### header ###
fiducial parameters:
Omega_m = 0.31
Omega_nu = 0
Omega_de = 0.69
Omega_k = 0
H_0 = 100
w_de = -1
zeff = 0
beta = 0
fgrowth = 0
b_1 = 2
gamma = 0.55
Lx = 3500 Ly = 3500 Lz = 3500
nx = 700 ny = 700 nz = 700
xoffset = 1379.75464 yoffset = 22.6059522 zoffset = 368.141391
bins = 400 dk = 0.001
kx_ny = 0.628318531 ky_ny = 0.628318531 kz_ny = 0.628318531
############################
A(data) = 3.31433323 (not used)
A(ran) = 3.32268087 (used)
Ngal = 186336
weighted Ngal = 0
Nran = 9399747
weighted Nran = 0
SN(data) = 6682.6762
SN(ran) = 132.160904
SN(data+ran) = 6814.8371
############################
13 columns: k_central k_mean P_0(k) sigma^{lin}_{P_0(k)} P^img_1(k) sigma^{lin}_{P_1(k)} P_2(k) sigma^{lin}_{P_2(k)} P^img_3(k) sigma^{lin}_{P_3(k)} P_4(k) sigma^{lin}_{P_4(k)} N_modes
### header ###
0.00050000 0 0 0 0 0 0 0 0 0 0 0 0
0.00150000 0.00179520 33751.28869723 0 -28426.29413042 0 -33600.78115464 0 19151.61341837 0 -31071.76642651 0 3
0.00250000 0.00253879 67606.50190986 0 -27653.90317494 0 -21145.69971769 0 -41424.73330586 0 36681.58293095 0 6
0.00350000 0.00331552 75402.83698067 0 -13521.38911155 0 -31974.70077006 0 -25544.69025130 0 -12280.28417304 0 7
0.00450000 0.00420575 81324.53794330 0 -447.10278578 0 -18098.50426814 0 -40650.12411099 0 20377.96706494 0 24
0.00550000 0.00557378 79667.40220727 0 6990.99216921 0 7959.77494904 0 -29408.86326806 0 1234.94932420 0 45
0.00650000 0.00659388 76656.80770764 0 4239.09983840 0 26447.07003501 0 -2937.42587336 0 -20504.29579818 0 40
0.00750000 0.00754703 72686.93558396 0 2078.67885845 0 34503.38276229 0 26747.97420821 0 7583.43954539 0 57
0.00850000 0.00846663 69020.07496091 0 5336.95087712 0 37388.75764837 0 -1800.18999427 0 8803.71521603 0 75
0.00950000 0.00948925 73254.47213180 0 8661.30424722 0 60412.52974530 0 -3936.46543847 0 25668.24618530 0 112
0.01050000 0.01054430 59870.05930257 0 12168.81764371 0 57916.78860802 0 21736.19504322 0 14130.29582401 0 105
0.01150000 0.01145670 47159.76942384 0 6881.99897680 0 62602.59749470 0 22008.70575224 0 56136.65149783 0 144
0.01250000 0.01249090 51506.52041982 0 -2279.46279680 0 55318.34298699 0 37098.05737635 0 39001.97224449 0 169
0.01350000 0.01339930 62051.47591834 0 -3851.81742336 0 70546.77822083 0 36585.64407735 0 71140.15725756 0 180
0.01450000 0.01448870 59321.82143742 0 -2521.45053182 0 25380.76236040 0 21881.60063521 0 53721.65427432 0 267
0.01550000 0.01550050 62292.70945197 0 -2428.53957498 0 27843.34081882 0 5778.49142763 0 41860.06278607 0 238
0.01650000 0.01653350 62906.93993896 0 1417.55479076 0 18406.28498345 0 -607.68002607 0 40395.91387694 0 315
0.01750000 0.01747870 63719.59193936 0 2872.25400009 0 29618.70871432 0 553.95870454 0 30192.67815639 0 297
0.01850000 0.01844180 62054.69236546 0 -3758.21881231 0 26111.78315126 0 8776.15359161 0 29896.87593378 0 388
0.01950000 0.01947590 67964.85848326 0 -3571.45414690 0 20440.18867982 0 -7122.92195691 0 5111.94376463 0 399
0.02050000 0.02045430 74123.80014861 0 -54.29762013 0 22292.41857017 0 -2157.12689446 0 -7967.72733725 0 462
0.02150000 0.02154770 77218.57683307 0 -1596.41143274 0 28380.82022293 0 -8248.54535279 0 -7526.30878991 0 571
0.02250000 0.02255340 70787.78993052 0 2685.01241321 0 34166.54311097 0 -9153.03246391 0 -24260.55146863 0 510
0.02350000 0.02348930 82547.12058290 0 2517.94571358 0 39006.07598736 0 -12746.44718078 0 -23533.19077277 0 555
0.02450000 0.02439640 76036.58797430 0 1991.06949375 0 50548.13009152 0 -1425.66245572 0 -41338.99835345 0 592
0.02550000 0.02547300 72308.39303212 0 4473.80065702 0 60337.99690181 0 900.97231081 0 -9321.71847830 0 837
0.02650000 0.02652900 70730.55935427 0 3751.20917584 0 60929.37952309 0 1644.73577785 0 -16292.30284512 0 723
0.02750000 0.02749970 68838.73389081 0 -823.36166017 0 58933.07498438 0 13626.31183468 0 -6178.93909345 0 826
0.02850000 0.02848090 65320.16257095 0 2479.45926017 0 58582.81498476 0 4896.30871357 0 -5027.26247593 0 831
0.02950000 0.02946900 64460.81663141 0 4230.30451922 0 56445.76315677 0 6886.12490206 0 6392.17844597 0 996
0.03050000 0.03053250 58860.42764437 0 1671.12173539 0 54500.58903599 0 7642.02324767 0 12281.72602864 0 1041
0.03150000 0.03150510 57512.95812713 0 994.64079640 0 46729.20915831 0 10792.40010244 0 2508.79547610 0 1036
0.03250000 0.03246190 55476.83619138 0 301.81365136 0 40543.53770832 0 8024.64735999 0 12921.90991650 0 1059
0.03350000 0.03345080 54306.71491334 0 -105.63555436 0 33384.17007824 0 4916.19522969 0 3611.68191823 0 1302
0.03450000 0.03451200 52254.51074201 0 302.37264768 0 24518.64362162 0 8930.78705947 0 6652.74393588 0 1339
0.03550000 0.03553350 53215.89569348 0 733.49523690 0 22390.35383922 0 3137.00087124 0 4011.35320026 0 1365
0.03650000 0.03647120 48952.32867461 0 1522.08932199 0 13053.45151230 0 306.33220499 0 -1901.63008156 0 1308
0.03750000 0.03744890 47446.36595298 0 2586.28966917 0 19856.56989640 0 -179.72397359 0 3169.45371351 0 1579
0.03850000 0.03847530 46857.09065913 0 -17.78063056 0 16636.79542233 0 -571.08462174 0 1272.55957305 0 1662
0.03950000 0.03950240 44067.98736256 0 -266.58800985 0 9540.42579092 0 5294.64905196 0 -434.14715862 0 1683
0.04050000 0.04050350 46968.88992436 0 -925.62471427 0 12257.65813127 0 3114.88502453 0 -294.20841761 0 1822
0.04150000 0.04152450 46418.43381982 0 1581.75996157 0 11448.88804980 0 -3610.35097460 0 -16.62503875 0 1887
0.04250000 0.04250150 45008.74268770 0 1950.64208087 0 14273.37226464 0 -2451.08797838 0 -351.53659639 0 1920
0.04350000 0.04349210 42760.55706630 0 1667.99401785 0 17811.35317915 0 -1326.61806698 0 -737.35719167 0 2005
0.04450000 0.04448520 40769.68721409 0 1396.92516443 0 20715.25036413 0 -1762.79047816 0 -667.92962614 0 2151
0.04550000 0.04548030 39717.13262371 0 1446.74682112 0 22856.96049484 0 1704.62824137 0 1826.45394865 0 2274
0.04650000 0.04648670 38141.18444933 0 416.20271108 0 22420.52189492 0 543.52521557 0 3613.63396890 0 2311
0.04750000 0.04749250 37566.10588757 0 410.59056542 0 22451.90998229 0 2187.51677410 0 2159.25640427 0 2568
0.04850000 0.04851840 37351.60213859 0 674.05751245 0 22001.05282634 0 348.38891470 0 1798.81468585 0 2493
0.04950000 0.04949480 37416.70746468 0 708.04426726 0 22547.51609998 0 913.22253784 0 451.24423872 0 2644
0.05050000 0.05050630 36110.05355221 0 231.80934358 0 22064.05082501 0 -463.16172984 0 2973.72736097 0 2829
0.05150000 0.05149060 36285.18355202 0 -473.28799265 0 18327.64839709 0 2620.47273817 0 -556.29007414 0 2784
0.05250000 0.05249300 36325.66642088 0 -81.97692215 0 19431.33340541 0 1262.04511834 0 -4099.19548009 0 3055
0.05350000 0.05348950 36136.45060094 0 1530.27462534 0 17652.30541491 0 -648.68972679 0 -3329.21131436 0 3009
0.05450000 0.05448610 33805.41373834 0 1069.69936263 0 18632.76722514 0 -131.08242025 0 -2778.27828835 0 3336
0.05550000 0.05550870 34092.78665126 0 -611.13049745 0 16812.92362987 0 3017.91468961 0 -1167.23756683 0 3349
0.05650000 0.05647670 33607.32496084 0 -608.93887693 0 13357.23939671 0 3329.86569498 0 -4394.19913652 0 3324
0.05750000 0.05747970 34907.21324317 0 691.64371433 0 13329.06775647 0 869.85817602 0 -2499.36795869 0 3639
0.05850000 0.05849280 33505.06412498 0 620.03894683 0 11271.31798666 0 -774.11452748 0 -2941.45197785 0 3846
0.05950000 0.05951020 32466.04079487 0 538.31900772 0 13394.50581846 0 -895.67848251 0 -1011.12120595 0 3787
0.06050000 0.06049470 31841.60640668 0 672.57572854 0 14076.50351881 0 -1168.13595378 0 -7950.21433727 0 3930
0.06150000 0.06148310 31351.59732551 0 1021.75877294 0 15171.42648153 0 -1169.26725587 0 -1885.50348120 0 4083
0.06250000 0.06249100 30899.74196184 0 -347.25872173 0 14609.76826808 0 2524.34533422 0 -3236.61091104 0 4303
0.06350000 0.06350600 31859.35232180 0 -1141.30634837 0 13297.67966910 0 3407.93663030 0 -295.42068543 0 4470
0.06450000 0.06451750 32687.42108595 0 206.71551048 0 12723.71022703 0 2365.43066434 0 -862.96943359 0 4479
0.06550000 0.06550280 32464.48802729 0 388.61890427 0 11469.29585219 0 -399.16663257 0 2732.91529283 0 4636
0.06650000 0.06648880 31893.06956052 0 601.08852773 0 13706.50118861 0 766.15437543 0 4549.64226175 0 4653
0.06750000 0.06749660 31042.37475459 0 1025.01847572 0 14188.08096011 0 -880.02547626 0 4941.82698584 0 5220
0.06850000 0.06852730 29432.37660559 0 1218.29034638 0 15248.06665245 0 -433.84104159 0 4956.00153554 0 5029
0.06950000 0.06949320 28983.84860100 0 426.49312361 0 15489.63292198 0 37.56211306 0 4371.68400672 0 5040
0.07050000 0.07048030 28118.06976723 0 363.70585769 0 16365.28292104 0 977.37513011 0 4717.45207158 0 5475
0.07150000 0.07148790 27858.53575864 0 242.98816098 0 15221.00413189 0 977.68457451 0 4483.94910223 0 5509
0.07250000 0.07249820 27172.10157951 0 344.34062781 0 15602.43039494 0 954.26551215 0 3119.25495613 0 5916
0.07350000 0.07351270 27043.99825476 0 568.51700965 0 11405.96511761 0 1769.44519633 0 3512.80389744 0 5721
0.07450000 0.07449140 25839.05061830 0 517.96222484 0 13573.85047311 0 756.27211895 0 4780.17279032 0 6028
0.07550000 0.07549160 24712.29592033 0 722.17667041 0 10853.95624550 0 1118.23665871 0 4148.86186003 0 6183
0.07650000 0.07648840 24212.52658585 0 46.91587400 0 10587.60115079 0 2714.07134921 0 4346.99500231 0 6330
0.07750000 0.07749960 23454.66509838 0 58.01039831 0 8487.64937660 0 1356.47556916 0 4825.61342422 0 6583
0.07850000 0.07848650 23417.73141254 0 27.49064076 0 6981.62010779 0 879.93009196 0 5341.12116717 0 6549
0.07950000 0.07947320 23308.70494654 0 151.99487210 0 6487.00817988 0 505.02545272 0 3287.74132897 0 6828
0.08050000 0.08048110 22627.92727786 0 837.25560259 0 7181.72748313 0 -1584.64367278 0 3898.23408259 0 7147
0.08150000 0.08149960 21449.48760211 0 503.02460079 0 6755.83661151 0 -772.08816580 0 1871.86130895 0 7386
0.08250000 0.08250610 21787.65819706 0 97.82579894 0 8775.08883671 0 249.75379112 0 2097.11242777 0 7227
0.08350000 0.08350160 21631.38323206 0 -312.53107497 0 6705.21638864 0 729.50240600 0 1193.90080429 0 7798
0.08450000 0.08449610 21651.12556263 0 -114.60866543 0 6793.65759310 0 1503.06791923 0 2516.31530763 0 7371
0.08550000 0.08548940 22249.49563798 0 -169.06866068 0 5793.71964104 0 734.59659275 0 2948.19542559 0 8256
0.08650000 0.08650700 21780.55983101 0 221.31152567 0 5682.39729727 0 1174.32484168 0 3516.87436672 0 8037
0.08750000 0.08749060 22094.88435252 0 190.06096914 0 5592.35896045 0 142.35440371 0 3767.85706246 0 8155
0.08850000 0.08849210 21250.73335279 0 243.07467232 0 5210.11194882 0 361.13269999 0 4421.52784580 0 8718
0.08950000 0.08949900 21210.80504378 0 251.24999359 0 5145.78300652 0 579.72022769 0 5179.47806285 0 8571
0.09050000 0.09049190 20876.62727973 0 -161.14954606 0 4493.43207562 0 219.75210337 0 3770.85168564 0 8932
0.09150000 0.09150830 20924.54125055 0 137.93567085 0 4307.26633484 0 404.45158791 0 3698.15998084 0 9285
0.09250000 0.09250820 20577.16496213 0 358.93220652 0 3735.19348745 0 -190.79076990 0 3205.58883317 0 9204
0.09350000 0.09350330 20208.16083966 0 250.21185755 0 3598.36139070 0 -235.18883129 0 2534.11667873 0 9349
0.09450000 0.09448040 19440.98274675 0 331.12213929 0 3766.63703080 0 -292.45046289 0 927.99712130 0 9564
0.09550000 0.09549270 19299.90272157 0 603.92011031 0 3518.61568464 0 -760.63317759 0 620.30402644 0 10155
0.09650000 0.09649430 18188.67569933 0 692.30253143 0 4307.61016195 0 -558.39185596 0 -972.63364342 0 9913
0.09750000 0.09749140 17780.85238754 0 571.01031072 0 4996.17385089 0 -983.34108495 0 -27.88781652 0 10476
0.09850000 0.09850240 16705.89357932 0 405.94889950 0 5535.91585918 0 25.69675056 0 -2261.58378732 0 10575
0.09950000 0.09950330 16316.14891856 0 370.40937712 0 5027.86140057 0 32.36810553 0 -1056.70824364 0 10882
0.10050000 0.10051200 16055.39487831 0 107.74155083 0 5271.88991582 0 -16.08855756 0 -2151.95839668 0 10875
0.10150000 0.10150300 16015.35565732 0 298.43527276 0 5414.06796950 0 299.70521482 0 -1520.83601674 0 11118
0.10250000 0.10250800 15424.63850786 0 342.30982965 0 5495.61044947 0 -357.31843736 0 -1780.64730525 0 11575
0.10350000 0.10349800 15222.22416356 0 462.94988798 0 6250.90987044 0 -918.66831555 0 -1872.90388146 0 11364
0.10450000 0.10450100 14790.55477833 0 364.52549714 0 6864.53034160 0 -263.51796653 0 -1703.16420337 0 12093
0.10550000 0.10551000 14289.89814809 0 9.34256993 0 6852.04165384 0 932.05760850 0 -995.32512325 0 12067
0.10650000 0.10649700 14534.01539292 0 -316.13127750 0 6298.62419971 0 886.13672578 0 502.91257970 0 12054
0.10750000 0.10749900 15010.49321382 0 -190.04322323 0 6253.50521053 0 1626.82349477 0 483.86455806 0 12807
0.10850000 0.10850100 15248.28847639 0 -73.06791820 0 5069.39793314 0 456.28186037 0 1511.88542080 0 12736
0.10950000 0.10950300 15030.34645635 0 270.42667311 0 5428.14269843 0 286.94590185 0 2405.24806139 0 12933
0.11050000 0.11050200 14735.54244147 0 87.24346611 0 5721.05011864 0 -172.66997233 0 3003.21885365 0 13428
0.11150000 0.11150900 14731.99325845 0 13.11966596 0 5505.23760842 0 858.82021681 0 3099.59026394 0 13453
0.11250000 0.11250000 15025.24450576 0 31.23647070 0 5191.74492668 0 411.36362185 0 2621.83695539 0 13668
0.11350000 0.11349100 14411.23584270 0 171.60965390 0 4432.15321248 0 -133.53024742 0 3549.42702976 0 13791
0.11450000 0.11448600 14572.94549421 0 166.43782876 0 4945.08779774 0 430.24083906 0 2913.62416471 0 14205
0.11550000 0.11549300 14117.43003555 0 284.63893288 0 4489.00668804 0 -78.62970982 0 2996.61959147 0 14776
0.11650000 0.11649800 13875.97467798 0 83.72056922 0 4532.82800718 0 -301.71161234 0 2244.85826232 0 14553
0.11750000 0.11747300 13550.44804755 0 152.23111459 0 4192.18407531 0 741.61732042 0 2102.29201675 0 14568
0.11850000 0.11849100 13433.65774369 0 4.88649300 0 3815.57139173 0 821.61812401 0 2367.92618366 0 16015
0.11950000 0.11950300 13446.41262018 0 -151.16081409 0 3091.05004229 0 582.70043231 0 1861.01411834 0 15270
0.12050000 0.12050700 13401.38236057 0 82.97989909 0 2594.75225245 0 650.14378271 0 2513.06558692 0 15999
0.12150000 0.12150000 13171.68367177 0 288.00178380 0 2817.43021358 0 -553.90879415 0 1887.40007588 0 15670
0.12250000 0.12250700 12938.32488798 0 297.86407612 0 2010.47908841 0 -502.08739465 0 1787.96749524 0 16887
0.12350000 0.12352200 12836.95134787 0 -112.29615086 0 3493.77140348 0 -396.37941477 0 1104.53015753 0 16407
0.12450000 0.12449800 12829.63115789 0 -51.89371411 0 2603.45884205 0 -331.12213929 0 577.59848171 0 16306
0.12550000 0.12549900 13321.30391860 0 47.67562099 0 3050.54499103 0 -139.92986806 0 -344.67558196 0 17523
0.12650000 0.12650100 13002.43200634 0 -37.24557030 0 2696.54725804 0 74.54182736 0 -398.59654504 0 17154
0.12750000 0.12750600 13154.60322847 0 -48.18515058 0 2846.18968726 0 100.62310972 0 -328.69982188 0 18007
0.12850000 0.12850300 13146.28483076 0 111.92792312 0 2682.17306679 0 390.75839616 0 -554.01970612 0 17496
0.12950000 0.12949900 12845.26974558 0 341.73197829 0 3132.67530443 0 0.90861747 0 -425.55480835 0 18405
0.13050000 0.13049000 12538.93088587 0 379.93449706 0 2815.55580129 0 -284.21303092 0 95.91656030 0 18100
0.13150000 0.13148800 12100.38495854 0 271.27514968 0 3496.06728125 0 -53.80772196 0 1098.06288058 0 19059
0.13250000 0.13249300 11872.23903732 0 122.96255497 0 3485.20899943 0 239.27482824 0 416.59755769 0 18957
0.13350000 0.13349100 11683.35595329 0 55.96063420 0 3559.07637111 0 209.55042042 0 1056.28788728 0 19468
0.13450000 0.13450700 11542.38684008 0 83.18608444 0 3497.47586326 0 259.14027110 0 973.60412315 0 19953
0.13550000 0.13551000 11735.81731485 0 58.50362384 0 3434.35586143 0 107.02395039 0 1755.70320331 0 19956
0.13650000 0.13649900 11683.13412935 0 -44.44741721 0 3022.30680360 0 285.82901831 0 1297.13766549 0 19723
0.13750000 0.13749600 11632.00371142 0 118.07910095 0 3529.85106715 0 -323.29951808 0 1044.55118267 0 20946
0.13850000 0.13851100 11518.09711876 0 119.09838195 0 3356.14074055 0 -198.56680808 0 827.06057435 0 20955
0.13950000 0.13949800 11430.69848681 0 19.22292981 0 3474.47272079 0 -81.36723905 0 875.44259368 0 20506
0.14050000 0.14048300 11370.58419935 0 84.38892475 0 3633.95304171 0 99.20920393 0 817.93030102 0 21447
0.14150000 0.14148400 11383.67181175 0 84.98396746 0 3420.00385258 0 248.35630030 0 352.66346200 0 21771
0.14250000 0.14249400 11191.12863273 0 155.67271301 0 3189.31804725 0 118.77451900 0 636.42840856 0 22470
0.14350000 0.14350900 10873.07746904 0 229.60552274 0 3405.69620851 0 148.17617299 0 653.31808328 0 22519
0.14450000 0.14449900 10671.68351485 0 181.60725883 0 3285.21253606 0 15.89102334 0 717.78566554 0 22218
0.14550000 0.14550500 10279.83152667 0 126.97313178 0 3233.41664632 0 175.67568670 0 1072.34461310 0 23559
0.14650000 0.14650700 10407.90157783 0 172.30174459 0 3142.24700740 0 72.77865978 0 389.05589743 0 23044
0.14750000 0.14750500 10041.47061306 0 112.12090995 0 3051.84266108 0 -70.18731253 0 849.63559662 0 23649
0.14850000 0.14849900 9810.34115985 0 152.76903765 0 3122.47140324 0 66.59964305 0 442.72176298 0 23640
0.14950000 0.14949500 10023.59160358 0 -70.03536313 0 3123.60270533 0 220.72036487 0 1298.96771298 0 24457
0.15050000 0.15050000 9852.63189382 0 -109.89013751 0 2603.76939556 0 517.55628703 0 791.24820853 0 24591
0.15150000 0.15149900 10286.41969766 0 -44.46505221 0 2438.53274343 0 465.13818114 0 1310.50255781 0 25020
0.15250000 0.15250500 10044.06595314 0 75.96349699 0 2253.04356567 0 79.02311458 0 1128.97293736 0 25297
0.15350000 0.15350100 9890.85215850 0 242.72751785 0 2367.43817099 0 -149.60582828 0 1263.49806514 0 25452
0.15450000 0.15450400 9608.02663632 0 270.79822821 0 2609.57009157 0 -583.51674440 0 941.72025928 0 26061
0.15550000 0.15549900 9403.15004629 0 192.13280473 0 2990.78562188 0 -115.41832280 0 1057.85285517 0 26128
0.15650000 0.15649500 9221.53169627 0 52.61819109 0 2778.84393939 0 195.31486914 0 1005.94272609 0 26331
0.15750000 0.15749700 9342.95812046 0 -27.26870590 0 2902.16695826 0 309.07727624 0 799.09079389 0 27345
0.15850000 0.15849900 9218.23761077 0 61.04184426 0 2823.04235923 0 60.05982968 0 795.01588813 0 26980
0.15950000 0.15949700 9062.05137535 0 207.44309300 0 2719.82768043 0 30.88432520 0 1059.19821736 0 27777
0.16050000 0.16050000 8999.69666611 0 106.12855806 0 2829.95217493 0 -20.70316096 0 1388.21857483 0 28224
0.16150000 0.16150500 8765.04021227 0 90.25317331 0 2745.01578870 0 -4.61567925 0 1180.01462572 0 28075
0.16250000 0.16249700 8790.89379236 0 96.00994817 0 2953.60792971 0 46.07760134 0 897.28337871 0 28590
0.16350000 0.16349900 8584.95244742 0 140.85376476 0 2980.73699744 0 -169.04980565 0 1241.82586631 0 29163
0.16450000 0.16449100 8389.98029627 0 128.10997947 0 3079.07154958 0 112.14309234 0 843.44005400 0 28996
0.16550000 0.16550500 8404.21030196 0 88.80388661 0 2850.30452133 0 9.94028562 0 841.34270866 0 30777
0.16650000 0.16650700 8132.86416862 0 38.32430011 0 2898.30722172 0 211.11982479 0 709.18222407 0 29211
0.16750000 0.16749900 8123.27028326 0 60.17429083 0 2641.62365075 0 311.28109707 0 1078.69321423 0 30922
0.16850000 0.16850800 8052.07589005 0 4.76310344 0 2431.04618549 0 283.11943890 0 1001.88334801 0 30867
0.16950000 0.16949900 7998.57195597 0 70.47878918 0 2115.22435239 0 229.57668563 0 1098.47103663 0 30852
0.17050000 0.17049200 7920.84484775 0 29.98649281 0 2217.04154037 0 253.98841011 0 1376.01825818 0 31257
0.17150000 0.17149500 7965.90838096 0 9.46825537 0 2064.04956967 0 9.09050030 0 1337.89781427 0 32608
0.17250000 0.17250900 7961.03934550 0 75.67756593 0 2152.55732132 0 -54.15631828 0 1606.99243463 0 32361
0.17350000 0.17350400 7741.40037233 0 162.09784340 0 2296.42123693 0 -159.66998039 0 1047.89296031 0 32508
0.17450000 0.17449800 7837.83832979 0 62.66637188 0 2173.13149166 0 -79.85639620 0 1707.55631736 0 32791
0.17550000 0.17549800 7734.97856930 0 -47.45146790 0 2445.25400878 0 87.97526328 0 805.04787577 0 33633
0.17650000 0.17650100 7709.23590118 0 76.50186369 0 2570.58453430 0 4.25127797 0 1216.90394677 0 33984
0.17750000 0.17750300 7674.47608994 0 142.93447331 0 2303.27559665 0 -158.10612162 0 615.36844380 0 34069
0.17850000 0.17849800 7580.61129017 0 146.34501637 0 2502.62877059 0 -412.14998772 0 673.05819561 0 34536
