### header ###
fiducial parameters:
Omega_m = 0.31
Omega_nu = 0
Omega_de = 0.69
Omega_k = 0
H_0 = 100
w_de = -1
zeff = 0
beta = 0
fgrowth = 0
b_1 = 2
gamma = 0.55
Lx = 3500 Ly = 3500 Lz = 3500
nx = 700 ny = 700 nz = 700
xoffset = 1379.75464 yoffset = 22.6059522 zoffset = 368.141391
bins = 400 dk = 0.001
kx_ny = 0.628318531 ky_ny = 0.628318531 kz_ny = 0.628318531
############################
A(data) = 3.36722345 (not used)
A(ran) = 3.36011413 (used)
Ngal = 188501
weighted Ngal = 0
Nran = 9399747
weighted Nran = 0
SN(data) = 6654.01795
SN(ran) = 133.649826
SN(data+ran) = 6787.66777
############################
13 columns: k_central k_mean P_0(k) sigma^{lin}_{P_0(k)} P^img_1(k) sigma^{lin}_{P_1(k)} P_2(k) sigma^{lin}_{P_2(k)} P^img_3(k) sigma^{lin}_{P_3(k)} P_4(k) sigma^{lin}_{P_4(k)} N_modes
### header ###
0.00050000 0 0 0 0 0 0 0 0 0 0 0 0
0.00150000 0.00179520 90312.28939029 0 -57435.54157243 0 -102511.27508970 0 127098.46230846 0 -114171.67226531 0 3
0.00250000 0.00253879 146292.88774706 0 -43447.10215739 0 -5194.91700900 0 -121392.04147860 0 116802.50418143 0 6
0.00350000 0.00331552 142607.28300116 0 3773.10319862 0 -63773.49515652 0 -41970.75293162 0 20043.90021286 0 7
0.00450000 0.00420575 116626.15414995 0 35534.08769469 0 -3098.31477629 0 -76855.67286892 0 28030.56022330 0 24
0.00550000 0.00557378 77521.92106960 0 14696.39051624 0 14063.08317050 0 2536.80074839 0 -8913.17423871 0 45
0.00650000 0.00659388 49574.21208750 0 3012.00308164 0 50114.68611479 0 25547.79578644 0 -8705.51375825 0 40
0.00750000 0.00754703 45475.90390316 0 11675.92485133 0 26452.83745742 0 -11562.79464246 0 6377.54915720 0 57
0.00850000 0.00846663 39521.04026166 0 11662.17176712 0 21994.06537226 0 14261.72650784 0 1462.20794967 0 75
0.00950000 0.00948925 43128.89571695 0 -16507.91571380 0 19609.45802840 0 29444.24418632 0 15355.42943891 0 112
0.01050000 0.01054430 54603.29351973 0 -3423.22029969 0 12657.27395731 0 6611.29613288 0 -596.28271209 0 105
0.01150000 0.01145670 65551.74676323 0 -666.31474786 0 18922.02564155 0 -6243.00184702 0 2913.25815521 0 144
0.01250000 0.01249090 63061.10757654 0 2659.84648733 0 29514.00781513 0 -18393.41919499 0 12217.17526241 0 169
0.01350000 0.01339930 65700.59062628 0 4184.73079096 0 41041.31062736 0 -3288.47334797 0 23040.96345221 0 180
0.01450000 0.01448870 69636.08003942 0 -3270.70525046 0 46189.51151481 0 7206.52739950 0 9618.19726392 0 267
0.01550000 0.01550050 75920.13040634 0 13.82362423 0 57904.92102728 0 5718.56569052 0 -5110.01389636 0 238
0.01650000 0.01653350 77453.93203231 0 1651.31285764 0 43669.14792030 0 11572.22215987 0 17494.92133022 0 315
0.01750000 0.01747870 77709.80594590 0 -654.76992096 0 52397.69809461 0 4082.62523185 0 10790.44805177 0 297
0.01850000 0.01844180 75351.70656274 0 2830.88383547 0 43466.51175205 0 10105.34481628 0 17430.92512383 0 388
0.01950000 0.01947590 78519.79605903 0 -1475.19574130 0 46403.34979197 0 5729.84543782 0 7748.26582324 0 399
0.02050000 0.02045430 80505.89669655 0 -2052.49254245 0 45623.86047045 0 7761.10942931 0 8305.94229699 0 462
0.02150000 0.02154770 76900.14856868 0 4643.27414639 0 33643.14952698 0 -1426.02846522 0 1034.05780124 0 571
0.02250000 0.02255340 78728.53238560 0 1363.09701374 0 48507.12802911 0 -4580.93052834 0 2928.41982144 0 510
0.02350000 0.02348930 72670.74243642 0 2729.18865066 0 48697.34205677 0 -1051.96897519 0 4150.89154907 0 555
0.02450000 0.02439640 75083.63233250 0 241.76923844 0 50808.44048390 0 765.65859893 0 -7273.62914104 0 592
0.02550000 0.02547300 75162.93439068 0 119.51541095 0 50982.68318796 0 6745.43306877 0 1025.19815311 0 837
0.02650000 0.02652900 76979.89427474 0 268.71308318 0 55011.89321531 0 10376.62440244 0 -289.39261989 0 723
0.02750000 0.02749970 77636.38222211 0 963.80615977 0 49978.70804020 0 5823.25549851 0 12044.26350198 0 826
0.02850000 0.02848090 74225.50642462 0 1787.81221848 0 43189.67547623 0 8869.41946675 0 6594.73697584 0 831
0.02950000 0.02946900 71351.44455943 0 2860.38641936 0 39466.13883677 0 4431.38791989 0 18255.77744087 0 996
0.03050000 0.03053250 69065.99251628 0 1945.61776866 0 40580.24957022 0 7458.12011108 0 15326.59232684 0 1041
0.03150000 0.03150510 66029.00096791 0 1391.64575468 0 39048.66618364 0 8048.46015984 0 19262.19265195 0 1036
0.03250000 0.03246190 62068.44544967 0 2333.13309883 0 28973.97743572 0 3281.07551960 0 11626.12537704 0 1059
0.03350000 0.03345080 58319.28814527 0 2286.61661883 0 29151.54749886 0 3319.34014907 0 16049.18380802 0 1302
0.03450000 0.03451200 57192.20071139 0 149.19545399 0 21779.78344722 0 6375.18673225 0 7059.60231353 0 1339
0.03550000 0.03553350 55072.00750277 0 462.16352211 0 18564.44545193 0 3571.79797401 0 4976.22078758 0 1365
0.03650000 0.03647120 53695.47904952 0 2986.24932232 0 18792.25863725 0 982.43715240 0 7376.93254941 0 1308
0.03750000 0.03744890 47610.62657979 0 2523.11421136 0 15762.58727887 0 -1130.39261057 0 5460.36262556 0 1579
0.03850000 0.03847530 46471.00609336 0 341.11308950 0 12065.33677618 0 5840.66867772 0 7466.16122886 0 1662
0.03950000 0.03950240 47151.00737825 0 -906.96488453 0 11671.48837255 0 5233.74728952 0 5313.83682268 0 1683
0.04050000 0.04050350 45951.82716421 0 578.12753181 0 7049.12113241 0 2155.68503886 0 4629.21050866 0 1822
0.04150000 0.04152450 44158.04788178 0 3290.97995848 0 11526.97007632 0 -4279.11687699 0 8582.42365452 0 1887
0.04250000 0.04250150 40636.14920284 0 2585.29146145 0 12005.33340070 0 -3842.07935244 0 4485.44641382 0 1920
0.04350000 0.04349210 38838.26617753 0 1708.31051875 0 15860.74437187 0 -1465.57967354 0 5729.71234345 0 2005
0.04450000 0.04448520 36245.92071482 0 848.52425869 0 17267.44088081 0 897.05490005 0 1249.25696826 0 2151
0.04550000 0.04548030 34722.21207808 0 1602.12339917 0 16820.68746774 0 1849.55691189 0 5885.79875810 0 2274
0.04650000 0.04648670 35415.63371128 0 -612.04552119 0 15051.19790662 0 5051.20837014 0 8508.41209728 0 2311
0.04750000 0.04749250 34763.13859481 0 -1262.23366869 0 12182.45981596 0 4757.58002214 0 8860.54650919 0 2568
0.04850000 0.04851840 36956.42279133 0 -685.00896032 0 12305.01754224 0 2555.70014799 0 10236.25421386 0 2493
0.04950000 0.04949480 36777.63269652 0 27.01161196 0 10835.16775787 0 -2608.97116693 0 9447.37064853 0 2644
0.05050000 0.05050630 36287.40179141 0 556.16696185 0 8833.72799497 0 1737.45818433 0 13054.11698412 0 2829
0.05150000 0.05149060 37566.32771151 0 -521.48035251 0 13410.36623010 0 -672.94728364 0 10470.53356700 0 2784
0.05250000 0.05249300 37729.36830665 0 267.43094082 0 10834.97920752 0 1754.63844841 0 11506.00771409 0 3055
0.05350000 0.05348950 36642.09826981 0 1382.66188516 0 15098.11366971 0 -940.52684649 0 7830.05230954 0 3009
0.05450000 0.05448610 35874.36561706 0 1095.08822156 0 14929.30565216 0 -2735.64372728 0 12235.36482540 0 3336
0.05550000 0.05550870 34855.52826539 0 530.38103806 0 16061.27321269 0 1009.16139145 0 10096.76022984 0 3349
0.05650000 0.05647670 34804.50875943 0 -277.91101281 0 17875.68212145 0 1667.49491398 0 10818.83042477 0 3324
0.05750000 0.05747970 34947.03064022 0 -128.52368112 0 14084.82191652 0 2505.46811701 0 6896.47298881 0 3639
0.05850000 0.05849280 35701.89750451 0 -849.59566831 0 14006.51806606 0 2240.59924269 0 8839.96124766 0 3846
0.05950000 0.05951020 35602.52037986 0 -138.56232347 0 9793.21635177 0 -37.01620434 0 5295.78035405 0 3787
0.06050000 0.06049470 37056.35447583 0 120.65447688 0 12207.30409712 0 188.08008137 0 7007.03003999 0 3930
0.06150000 0.06148310 34959.89642868 0 347.04022515 0 8733.59666892 0 564.87244233 0 3180.67800483 0 4083
0.06250000 0.06249100 35553.83002525 0 79.50746715 0 11241.37175490 0 747.16513714 0 5632.15417510 0 4303
0.06350000 0.06350600 35067.25921513 0 2.58755407 0 9679.75340699 0 257.78270859 0 3974.07568732 0 4470
0.06450000 0.06451750 35195.91709973 0 376.15461714 0 9129.78531511 0 1197.37234894 0 3427.49041052 0 4479
0.06550000 0.06550280 35115.28409792 0 599.20967897 0 11157.63321794 0 -1109.48570432 0 5709.90346570 0 4636
0.06650000 0.06648880 33948.26835503 0 825.94369082 0 10430.62744038 0 -924.30929831 0 3629.10618864 0 4653
0.06750000 0.06749660 33550.53803246 0 890.89041279 0 12975.14766185 0 579.24996094 0 4775.69194675 0 5220
0.06850000 0.06852730 32639.28529120 0 101.00098680 0 11773.08373660 0 -357.16981532 0 4514.50534982 0 5029
0.06950000 0.06949320 32505.41454403 0 620.77207495 0 13771.82833864 0 1896.96068765 0 2725.90565636 0 5040
0.07050000 0.07048030 30761.10199999 0 1328.57011764 0 11635.10924656 0 -237.39597948 0 4689.12515457 0 5475
0.07150000 0.07148790 29175.83722018 0 708.98812812 0 11584.20065257 0 669.14300308 0 3548.67282837 0 5509
0.07250000 0.07249820 28317.15675245 0 525.48538373 0 10592.18181513 0 2240.96525219 0 4989.30839998 0 5916
0.07350000 0.07351270 28124.39174949 0 -107.88895284 0 9042.47541273 0 1469.42831888 0 2417.84766112 0 5721
0.07450000 0.07449140 26761.83820440 0 614.85935786 0 7345.64428282 0 804.32251149 0 3666.78298467 0 6028
0.07550000 0.07549160 26389.83945875 0 435.92175013 0 6458.15997662 0 203.42475235 0 3808.22901935 0 6183
0.07650000 0.07648840 25905.15415212 0 -270.55644012 0 5740.98099955 0 988.78464441 0 2791.48790391 0 6330
0.07750000 0.07749960 26684.53256167 0 -84.63026919 0 5022.59308202 0 786.11409346 0 2254.00849980 0 6583
0.07850000 0.07848650 25637.19083385 0 367.93825844 0 4801.84498916 0 -395.55977532 0 1060.57019842 0 6549
0.07950000 0.07947320 25912.25251816 0 621.48523892 0 5444.90149702 0 -652.93765522 0 2428.56175737 0 6828
0.08050000 0.08048110 24909.71922601 0 649.52378480 0 6903.58244606 0 -1125.72321665 0 1361.81043489 0 7147
0.08150000 0.08149960 23577.66647253 0 1125.67885187 0 8630.48181090 0 -1153.37357065 0 2860.48624013 0 7386
0.08250000 0.08250610 23329.55639680 0 215.41988185 0 8499.72769007 0 118.12346574 0 1478.44546200 0 7227
0.08350000 0.08350160 22572.24946918 0 200.31810808 0 9300.71175128 0 962.96544704 0 2683.00490656 0 7798
0.08450000 0.08449610 22813.37209083 0 193.38278263 0 8853.47032554 0 516.02902921 0 1570.23620794 0 7371
0.08550000 0.08548940 22377.48805076 0 301.30900189 0 9068.07389529 0 87.18745556 0 1688.33527305 0 8256
0.08650000 0.08650700 21664.98955881 0 491.28345970 0 7962.43683631 0 -238.34871330 0 1514.94659116 0 8037
0.08750000 0.08749060 21133.72122499 0 438.19433639 0 9015.41289218 0 160.70146170 0 1935.87969774 0 8155
0.08850000 0.08849210 20766.38078207 0 77.24053740 0 7566.02636618 0 1075.49784039 0 664.66992335 0 8718
0.08950000 0.08949900 20705.93375870 0 187.53328536 0 7532.85259611 0 694.65941078 0 1187.53445725 0 8571
0.09050000 0.09049190 20177.21640018 0 336.23961756 0 7306.09307451 0 -32.84957439 0 1178.16239582 0 8932
0.09150000 0.09150830 19894.16905406 0 278.81383624 0 6721.36517140 0 -7.97675557 0 877.67857898 0 9285
0.09250000 0.09250820 19180.11779453 0 280.57068184 0 7354.21777806 0 427.42922063 0 1129.25021728 0 9204
0.09350000 0.09350330 19251.87783879 0 -7.17182304 0 6894.39893498 0 309.37341119 0 1100.20680895 0 9349
0.09450000 0.09448040 18995.89301322 0 70.61765097 0 6855.93466397 0 464.18322908 0 1054.94585245 0 9564
0.09550000 0.09549270 18817.76839023 0 539.21517643 0 6465.40252822 0 -456.96175075 0 644.69689589 0 10155
0.09650000 0.09649430 18495.45820692 0 174.61869563 0 6530.94041099 0 -44.27971831 0 286.03198722 0 9913
0.09750000 0.09749140 18027.52060767 0 272.65822194 0 7534.20572214 0 -228.32559862 0 566.96091472 0 10476
0.09850000 0.09850240 17908.84480033 0 294.72304915 0 7030.82065745 0 -203.21845608 0 -453.52458881 0 10575
0.09950000 0.09950330 17885.22055083 0 -165.63038963 0 6082.33476803 0 785.50407763 0 -561.13803632 0 10882
0.10050000 0.10051200 17518.43466775 0 98.12570490 0 6836.73580205 0 372.41466553 0 -613.98648066 0 10875
0.10150000 0.10150300 17632.00852450 0 228.97997924 0 5822.95603620 0 245.16425382 0 -1174.87940153 0 11118
0.10250000 0.10250800 16882.02178686 0 413.07277530 0 5880.43061878 0 -392.92561605 0 -862.05884632 0 11575
0.10350000 0.10349800 16792.18309158 0 290.34535371 0 5683.34004901 0 230.61038519 0 -1549.04093058 0 11364
0.10450000 0.10450100 16345.09694260 0 134.26115730 0 6063.28009167 0 25.58095847 0 -1140.17504628 0 12093
0.10550000 0.10551000 16389.79446630 0 168.21020204 0 5952.72304049 0 -302.99597295 0 -1982.08562422 0 12067
0.10650000 0.10649700 15872.39012866 0 422.57793109 0 5992.18551923 0 -57.12831542 0 -1649.38298937 0 12054
0.10750000 0.10749900 15172.09195335 0 324.82899414 0 6541.90960477 0 -194.88231246 0 -1648.27386967 0 12807
0.10850000 0.10850100 15241.96649413 0 321.98853860 0 6347.13709517 0 -44.09870998 0 -1476.65977929 0 12736
0.10950000 0.10950300 14750.95920523 0 129.11484191 0 7162.00733495 0 615.30189662 0 -1532.77014465 0 12933
0.11050000 0.11050200 14496.30532330 0 76.02682772 0 6486.20961370 0 245.76761494 0 -1440.03664697 0 13428
0.11150000 0.11150900 14634.72346121 0 134.00716889 0 6693.71481740 0 439.37333063 0 187.47117466 0 13453
0.11250000 0.11250000 14296.99651414 0 -75.18766776 0 6126.21154315 0 236.77265421 0 -864.50445525 0 13668
0.11350000 0.11349100 14637.38534848 0 -83.12785566 0 6208.86314281 0 1392.33340890 0 728.15926204 0 13791
0.11450000 0.11448600 14528.58070642 0 9.00425515 0 5002.41819477 0 480.87991696 0 48.74436873 0 14205
0.11550000 0.11549300 14462.80990851 0 98.10773717 0 4545.64943085 0 243.70687054 0 925.35630731 0 14776
0.11650000 0.11649800 14452.38418338 0 52.26160911 0 4741.98579923 0 284.02780793 0 1761.14898101 0 14553
0.11750000 0.11747300 14410.68128286 0 -151.03992004 0 3912.10916997 0 1057.70534225 0 1679.39576831 0 14568
0.11850000 0.11849100 14423.43615935 0 42.40098046 0 3509.53199434 0 140.94914906 0 1431.96225559 0 16015
0.11950000 0.11950300 14357.55444947 0 239.15615244 0 3655.42559900 0 -187.21385889 0 574.04042573 0 15270
0.12050000 0.12050700 14065.85596974 0 95.14749670 0 3390.15744159 0 -432.79292348 0 963.51335217 0 15999
0.12150000 0.12150000 13827.06249944 0 148.84829952 0 3791.64767992 0 -241.20469651 0 -243.04250785 0 15670
0.12250000 0.12250700 13838.26460836 0 101.27937584 0 3771.83880217 0 -282.74011996 0 416.06518024 0 16887
0.12350000 0.12352200 13811.86755962 0 -23.82666384 0 3627.04322601 0 222.21434910 0 -1454.15574068 0 16407
0.12450000 0.12449800 13919.56308199 0 170.53713516 0 3849.71009594 0 -245.16758118 0 -911.35145292 0 16306
0.12550000 0.12549900 13444.85985260 0 360.92418549 0 3712.44544251 0 -354.00882419 0 -1558.92318706 0 17523
0.12650000 0.12650100 13394.61673043 0 87.79636227 0 4077.07963338 0 -31.61512417 0 -988.27112199 0 17154
0.12750000 0.12750600 13010.41766814 0 24.37113070 0 3881.96329667 0 451.28638527 0 -973.24365925 0 18007
0.12850000 0.12850300 13014.41049904 0 257.51873810 0 3902.07163673 0 383.65559364 0 -828.15305725 0 17496
0.12950000 0.12949900 12728.92308960 0 163.51418925 0 4106.09420460 0 275.92901592 0 298.68482470 0 18405
0.13050000 0.13049000 12418.36957505 0 289.22070634 0 4300.81125822 0 -135.20390904 0 757.61304466 0 18100
0.13150000 0.13148800 12399.51454023 0 136.12115103 0 4716.37622547 0 96.19151107 0 1797.40610384 0 19059
0.13250000 0.13249300 12028.29217838 0 103.73186131 0 4664.02577588 0 143.44688661 0 1308.42850398 0 18957
0.13350000 0.13349100 12091.95564886 0 87.20087591 0 5054.13644614 0 -80.48426886 0 2144.08364685 0 19468
0.13450000 0.13450700 12092.06656083 0 119.49988328 0 5361.25168963 0 -8.95787176 0 2061.11040248 0 19953
0.13550000 0.13551000 12047.92359698 0 24.72017067 0 5403.08768452 0 -139.60822335 0 1911.63434121 0 19956
0.13650000 0.13649900 12054.02375530 0 -3.12948104 0 5995.90107021 0 128.90078181 0 1784.35176503 0 19723
0.13750000 0.13749600 12258.10177915 0 -34.91242611 0 5125.78557842 0 -4.01120901 0 1513.79310668 0 20946
0.13850000 0.13851100 12192.44189321 0 -16.34343326 0 5349.47283848 0 440.88062429 0 1397.33553872 0 20955
0.13950000 0.13949800 12176.91421748 0 80.54083397 0 4711.72901395 0 -50.85236162 0 828.61223280 0 20506
0.14050000 0.14048300 12089.18284962 0 129.21133533 0 4982.69804660 0 288.78925878 0 1117.84846682 0 21447
0.14150000 0.14148400 11992.91126011 0 18.59849543 0 4590.16949540 0 240.95514458 0 775.94346586 0 21771
0.14250000 0.14249400 11744.24662453 0 128.60242861 0 4092.69603868 0 318.10440143 0 507.77385132 0 22470
0.14350000 0.14350900 11665.72095014 0 184.07726839 0 4325.69990417 0 10.89290853 0 749.54087152 0 22519
0.14450000 0.14449900 11284.07286315 0 196.35411429 0 3858.84924223 0 246.51072513 0 930.55142396 0 22218
0.14550000 0.14550500 11196.67423120 0 156.88719907 0 4199.38226213 0 -40.61563049 0 1039.04218514 0 23559
0.14650000 0.14650700 10843.73016191 0 261.32634602 0 3994.83840801 0 -85.30428123 0 553.55498497 0 23044
0.14750000 0.14750500 10722.75847680 0 157.49610578 0 4319.82156979 0 -60.99381938 0 1347.99080350 0 23649
0.14850000 0.14849900 10474.20475319 0 55.30381352 0 4330.62439562 0 22.03798651 0 388.33164227 0 23640
0.14950000 0.14949500 10370.26914659 0 217.65032155 0 4142.24041545 0 -3.00518200 0 704.38306315 0 24457
0.15050000 0.15050000 10273.17680850 0 0.22311274 0 4211.69349074 0 272.04155139 0 516.32849153 0 24591
0.15150000 0.15149900 10152.09421142 0 -10.04879080 0 3582.91135335 0 415.42299994 0 706.69668683 0 25020
0.15250000 0.15250500 10089.27367190 0 33.20360539 0 3534.37627551 0 282.27539881 0 452.22359141 0 25297
0.15350000 0.15350100 10213.20670660 0 10.18303865 0 3018.96835332 0 306.55846541 0 192.62081740 0 25452
0.15450000 0.15450400 9929.67134782 0 124.14376744 0 2790.38987542 0 56.33651487 0 77.02814098 0 26061
0.15550000 0.15549900 9817.80553540 0 233.89337948 0 2501.05382063 0 -207.94219686 0 -282.81332186 0 26128
0.15650000 0.15649500 9393.50070495 0 153.41454531 0 2893.83746935 0 20.01961049 0 -19.93587195 0 26331
0.15750000 0.15749700 9346.47402989 0 69.19653590 0 2246.05611159 0 155.77475202 0 -744.81713074 0 27345
0.15850000 0.15849900 9253.09724278 0 34.52989072 0 2471.72869590 0 128.03788669 0 -626.96983581 0 26980
0.15950000 0.15949700 9285.46135548 0 111.71164478 0 2336.47154911 0 15.18029944 0 -567.18606602 0 27777
0.16050000 0.16050000 9012.59572816 0 119.91025757 0 2341.34058457 0 -318.19756749 0 -800.77776494 0 28224
0.16150000 0.16150500 8939.28291633 0 187.92258637 0 2666.98921817 0 -206.42270288 0 -1007.59198708 0 28075
0.16250000 0.16249700 8812.74345035 0 111.82921147 0 2882.34698931 0 -54.06337405 0 -1069.74816390 0 28590
0.16350000 0.16349900 8763.22125597 0 -52.29610273 0 2865.14454285 0 312.83608288 0 -216.88170160 0 29163
0.16450000 0.16449100 8820.18564350 0 -28.05451721 0 2227.84436620 0 685.05887070 0 -504.33003467 0 28996
0.16550000 0.16550500 8890.30419061 0 -1.88874211 0 2218.98249984 0 574.73140730 0 334.89314625 0 30777
0.16650000 0.16650700 8692.50378423 0 103.43106805 0 1852.99518294 0 318.62901505 0 380.35485342 0 29211
0.16750000 0.16749900 8563.01405986 0 207.43422004 0 1739.65424133 0 82.56165005 0 1509.07934797 0 30922
0.16850000 0.16850800 8243.11066628 0 168.48637284 0 1967.07923475 0 -38.55544066 0 950.90931595 0 30867
0.16950000 0.16949900 8227.33898422 0 166.80938386 0 2061.22131445 0 -106.32620319 0 1363.70702957 0 30852
0.17050000 0.17049200 7986.60455446 0 112.32498797 0 2003.20326321 0 -46.53455865 0 1259.10595115 0 31257
0.17150000 0.17149500 7804.43164459 0 69.39429195 0 2170.28105404 0 -4.74261800 0 1375.23078320 0 32608
0.17250000 0.17250900 7916.45273376 0 -46.10544024 0 1967.56724742 0 250.52019283 0 1499.72946894 0 32361
0.17350000 0.17350400 7899.92685031 0 -125.47249284 0 2021.49264698 0 262.58519687 0 1348.94464643 0 32508
0.17450000 0.17449800 8200.33191965 0 -25.34715603 0 1835.31581501 0 138.49133981 0 1303.72583648 0 32791
0.17550000 0.17549800 8221.05027555 0 30.15896092 0 1650.50320026 0 -237.92392045 0 1107.60907380 0 33633
0.17650000 0.17650100 8070.74237451 0 130.86836015 0 2096.06985526 0 -270.17379382 0 1280.51196126 0 33984
0.17750000 0.17750300 8048.79289575 0 102.69660899 0 2171.75618323 0 -260.01869390 0 970.15919738 0 34069
0.17850000 0.17849800 8160.39251944 0 -17.49048485 0 2485.03813223 0 -45.30820501 0 813.15886810 0 34536
