### header ###
fiducial parameters:
Omega_m = 0.31
Omega_nu = 0
Omega_de = 0.69
Omega_k = 0
H_0 = 100
w_de = -1
zeff = 0
beta = 0
fgrowth = 0
b_1 = 2
gamma = 0.55
Lx = 3500 Ly = 3500 Lz = 3500
nx = 700 ny = 700 nz = 700
xoffset = 1379.75464 yoffset = 22.6059522 zoffset = 368.141391
bins = 400 dk = 0.001
kx_ny = 0.628318531 ky_ny = 0.628318531 kz_ny = 0.628318531
############################
A(data) = 3.25355422 (not used)
A(ran) = 3.24591726 (used)
Ngal = 182251
weighted Ngal = 0
Nran = 9399747
weighted Nran = 0
SN(data) = 6765.65333
SN(ran) = 129.107602
SN(data+ran) = 6894.76094
############################
13 columns: k_central k_mean P_0(k) sigma^{lin}_{P_0(k)} P^img_1(k) sigma^{lin}_{P_1(k)} P_2(k) sigma^{lin}_{P_2(k)} P^img_3(k) sigma^{lin}_{P_3(k)} P_4(k) sigma^{lin}_{P_4(k)} N_modes
### header ###
0.00050000 0 0 0 0 0 0 0 0 0 0 0 0
0.00150000 0.00179520 54569.24354510 0 -3507.06974862 0 37310.01015003 0 -22370.94424456 0 81042.04515703 0 3
0.00250000 0.00253879 46411.22454181 0 2751.11594702 0 14419.55424041 0 4117.15212795 0 -44684.76882485 0 6
0.00350000 0.00331552 55567.34035847 0 -2800.11685514 0 22010.59125572 0 47628.26158294 0 26901.14363807 0 7
0.00450000 0.00420575 55741.47215056 0 -6817.38166338 0 20824.16591817 0 13317.31108770 0 5059.52676786 0 24
0.00550000 0.00557378 80023.42962930 0 -7738.33920197 0 4384.42779201 0 16812.59089396 0 32525.04596263 0 45
0.00650000 0.00659388 95265.17429949 0 -23934.47027836 0 -20139.61724252 0 26746.42144064 0 -2105.95211174 0 40
0.00750000 0.00754703 97758.69719739 0 -7667.39990629 0 -31343.61166371 0 11626.12537704 0 -7094.32885117 0 57
0.00850000 0.00846663 138442.53854710 0 -11757.88879678 0 -19777.48966216 0 -19503.86983345 0 -16135.02967240 0 75
0.00950000 0.00948925 111286.85193908 0 5618.24581412 0 3007.23386695 0 -34924.73733435 0 -11574.55131123 0 112
0.01050000 0.01054430 113701.40551470 0 20326.50391110 0 -26897.81627898 0 -35863.16350814 0 -39402.14263038 0 105
0.01150000 0.01145670 96116.75640117 0 5030.12400475 0 22879.36471267 0 -22478.19611905 0 -16956.77645429 0 144
0.01250000 0.01249090 84447.37535604 0 6082.01312332 0 10250.70604349 0 -10559.87315842 0 -73870.03356243 0 169
0.01350000 0.01339930 89230.45403996 0 3214.04032525 0 6811.85824730 0 -7963.27976728 0 -60590.21072041 0 180
0.01450000 0.01448870 78870.49970654 0 371.44640404 0 13352.58109400 0 -20339.92425941 0 -66381.03555905 0 267
0.01550000 0.01550050 78957.89833849 0 2259.43209511 0 16325.90917188 0 -18119.35571840 0 -98720.41488477 0 238
0.01650000 0.01653350 82406.26238166 0 -553.72246204 0 6667.25122149 0 -4743.37219885 0 -86347.07556933 0 315
0.01750000 0.01747870 74619.24391628 0 -229.65986961 0 20794.88515822 0 -3364.22622312 0 -85161.20479163 0 297
0.01850000 0.01844180 80924.25664544 0 1409.08111629 0 6270.68547460 0 -8702.28621994 0 -77342.24367904 0 388
0.01950000 0.01947590 76696.18145681 0 2901.09111216 0 18694.98884002 0 -3443.56155489 0 -74338.63663349 0 399
0.02050000 0.02045430 73605.84125112 0 1690.70878920 0 15251.83765941 0 -3656.19089159 0 -57348.14294048 0 462
0.02150000 0.02154770 70330.83261625 0 -334.64803080 0 16099.31601822 0 7468.61238339 0 -42929.91964370 0 571
0.02250000 0.02255340 73221.75310081 0 2212.17250491 0 12086.18822645 0 11977.38358439 0 -33641.59675941 0 510
0.02350000 0.02348930 67467.41830013 0 270.71060775 0 13330.62052404 0 241.50526795 0 -23851.50812518 0 555
0.02450000 0.02439640 65787.32378641 0 2954.45086067 0 8194.10975817 0 -1111.31575182 0 -20285.57739436 0 592
0.02550000 0.02547300 63439.09556854 0 3046.01978268 0 20316.30000991 0 -9050.07288264 0 -12890.41091716 0 837
0.02650000 0.02652900 61946.33137127 0 1590.04508569 0 14254.40631786 0 -2678.63497497 0 -19281.15859873 0 723
0.02750000 0.02749970 63309.77221212 0 -1278.79282574 0 21583.91290912 0 5162.45307553 0 -9662.67296369 0 826
0.02850000 0.02848090 60527.65636963 0 2701.29429033 0 28188.72069179 0 -5579.62626635 0 -13814.30762295 0 831
0.02950000 0.02946900 58257.28835433 0 3879.03522067 0 25287.04174619 0 -417.18095465 0 -13064.76453319 0 996
0.03050000 0.03053250 56934.99585416 0 1154.01686007 0 34261.04010897 0 4951.38759761 0 3427.12440102 0 1041
0.03150000 0.03150510 50442.20916067 0 342.53830831 0 26237.89006056 0 4457.61860067 0 -1242.95716840 0 1036
0.03250000 0.03246190 55861.25707760 0 892.19584667 0 33748.51589799 0 10883.81374768 0 16859.50665705 0 1059
0.03350000 0.03345080 52557.41133066 0 -405.41541293 0 22311.60634089 0 2098.94247527 0 7606.68669420 0 1302
0.03450000 0.03451200 53058.73343272 0 1801.22147559 0 26382.18653286 0 3400.80499066 0 20638.16654534 0 1339
0.03550000 0.03553350 51099.25166788 0 1093.49441656 0 21844.00147755 0 1735.29540093 0 8669.68919211 0 1365
0.03650000 0.03647120 47432.16922089 0 -30.11792349 0 25003.43984023 0 -210.59742941 0 17650.41991143 0 1308
0.03750000 0.03744890 48474.51991008 0 1715.39779360 0 22115.18124294 0 3114.86284214 0 7929.80653489 0 1579
0.03850000 0.03847530 47418.52704864 0 850.40865305 0 24417.38099348 0 15.15323692 0 12024.18843551 0 1662
0.03950000 0.03950240 45476.45846301 0 1052.29838374 0 20031.03442440 0 753.96958646 0 5361.10750407 0 1683
0.04050000 0.04050350 44162.92800843 0 1307.23065471 0 19879.75049802 0 -1966.58013089 0 1427.95833349 0 1822
0.04150000 0.04152450 43347.50320880 0 707.84129836 0 22323.69574557 0 2053.25783504 0 909.93399795 0 1887
0.04250000 0.04250150 40586.12790460 0 1020.06181981 0 16603.63274346 0 19.59226667 0 -6159.91769068 0 1920
0.04350000 0.04349210 40022.36236372 0 2196.56719081 0 21452.92587316 0 -511.02246291 0 876.80348354 0 2005
0.04450000 0.04448520 37344.28194860 0 336.48362390 0 13491.77561570 0 1800.95528686 0 -7662.96342751 0 2151
0.04550000 0.04548030 37980.47300555 0 -491.15258358 0 16739.27808214 0 4909.06359006 0 -38.57706849 0 2274
0.04650000 0.04648670 36760.55225322 0 282.60480736 0 10649.05747308 0 2430.52489923 0 -2901.46821285 0 2311
0.04750000 0.04749250 37443.43724932 0 254.77699422 0 9894.11297040 0 1688.16890510 0 -2095.41547464 0 2568
0.04850000 0.04851840 35751.80789078 0 1071.66028625 0 9492.94437679 0 -2216.12097103 0 -2703.57907690 0 2493
0.04950000 0.04949480 34832.12583983 0 1193.52370360 0 10822.66797891 0 -585.94238918 0 -3620.22213988 0 2644
0.05050000 0.05050630 34108.97979881 0 -317.74504665 0 12702.74786480 0 -694.52520730 0 515.50996120 0 2829
0.05150000 0.05149060 33623.07446051 0 284.52247531 0 13004.76115770 0 2165.38983619 0 -2967.77138821 0 2784
0.05250000 0.05249300 34430.40268637 0 668.28121708 0 12990.34260167 0 -1088.47454082 0 1500.25075520 0 3055
0.05350000 0.05348950 33891.92507453 0 195.45239998 0 13400.93871269 0 197.53865413 0 -1001.03043496 0 3009
0.05450000 0.05448610 33064.74360613 0 1053.39973959 0 15196.04893876 0 281.70420217 0 1731.64639713 0 3336
0.05550000 0.05550870 33453.82279508 0 -469.04893718 0 15953.91042623 0 1201.84210131 0 2960.66193096 0 3349
0.05650000 0.05647670 32392.17342319 0 205.43225899 0 16186.16009033 0 1828.79419120 0 2674.15413140 0 3324
0.05750000 0.05747970 33123.97059784 0 382.67624095 0 13731.78911766 0 2056.71828849 0 3939.55988242 0 3639
0.05850000 0.05849280 32137.63045323 0 465.40769722 0 12261.20731429 0 568.06559793 0 3465.82158717 0 3846
0.05950000 0.05951020 31415.92626781 0 768.44359848 0 14262.39197966 0 -702.38332034 0 4508.01699961 0 3787
0.06050000 0.06049470 30648.85908687 0 313.50599118 0 13745.65311384 0 -228.62838829 0 3656.95618418 0 3930
0.06150000 0.06148310 30666.27226608 0 496.38873766 0 13607.67862380 0 -76.99442374 0 1925.44288141 0 4083
0.06250000 0.06249100 29695.12706129 0 507.09728831 0 11629.78547203 0 974.53356545 0 1004.48977929 0 4303
0.06350000 0.06350600 29282.31271088 0 562.86271745 0 14413.56499406 0 -540.89327453 0 2348.82714251 0 4470
0.06450000 0.06451750 28172.63845621 0 665.23113792 0 12472.60552812 0 392.79030344 0 -476.21717777 0 4479
0.06550000 0.06550280 27845.66997018 0 417.79207960 0 14299.65840140 0 860.82217786 0 1831.46716967 0 4636
0.06650000 0.06648880 27062.29872972 0 169.94153788 0 12795.69209523 0 -22.18827223 0 -519.11903668 0 4653
0.06750000 0.06749660 26976.78560125 0 484.50452013 0 12671.80342531 0 1593.12843845 0 1372.05870087 0 5220
0.06850000 0.06852730 26966.69261203 0 -678.83227274 0 11335.97966487 0 2475.34442610 0 2592.84456657 0 5029
0.06950000 0.06949320 27231.55039515 0 -1096.80957533 0 7033.75982464 0 3421.61207613 0 2780.85144604 0 5040
0.07050000 0.07048030 28302.62728444 0 -297.46590215 0 5998.37440713 0 2443.17995495 0 1209.47284481 0 5475
0.07150000 0.07148790 28457.01674596 0 150.39995798 0 5316.26579481 0 -304.00527187 0 3320.10544166 0 5509
0.07250000 0.07249820 27671.42726612 0 553.51062018 0 4695.25858648 0 -537.50380474 0 1276.29730642 0 5916
0.07350000 0.07351270 26729.34099734 0 576.73558659 0 5192.77640799 0 -1405.01064701 0 -727.39396946 0 5721
0.07450000 0.07449140 26708.37863511 0 797.92732733 0 6042.15136148 0 -2048.11151966 0 -1694.11378666 0 6028
0.07550000 0.07549160 26030.92832551 0 77.13284188 0 6040.86478264 0 253.58025407 0 -1304.62422343 0 6183
0.07650000 0.07648840 25585.61676804 0 -97.33967178 0 6846.05240749 0 1708.28833636 0 -1805.53595120 0 6330
0.07750000 0.07749960 26264.61984521 0 127.26815762 0 4898.26076423 0 591.13750583 0 -2036.90941074 0 6583
0.07850000 0.07848650 25033.60789592 0 815.29614175 0 7312.34850958 0 -863.86671142 0 -515.70849362 0 6549
0.07950000 0.07947320 24161.39616792 0 1181.30120456 0 7287.29349568 0 -801.14266532 0 1838.37698536 0 6828
0.08050000 0.08048110 22745.71578945 0 717.48953058 0 8325.96190749 0 -166.60752408 0 412.41395820 0 7147
0.08150000 0.08149960 22527.99559335 0 535.65822957 0 8992.44302330 0 -5.18032099 0 1252.38468580 0 7386
0.08250000 0.08250610 21383.82771617 0 383.17645393 0 9595.12757427 0 309.16933317 0 410.52290912 0 7227
0.08350000 0.08350160 21313.84226343 0 341.16632725 0 9194.59117888 0 751.73914676 0 1786.08199175 0 7798
0.08450000 0.08449610 20999.85047783 0 -94.74444260 0 8762.43378099 0 338.21717798 0 1068.71335522 0 7371
0.08550000 0.08548940 21057.74652590 0 -122.99250120 0 7128.24573144 0 1436.62055831 0 693.11995265 0 8256
0.08650000 0.08650700 20599.79100390 0 9.02924361 0 6651.04698274 0 936.67043731 0 1235.84771115 0 8037
0.08750000 0.08749060 20813.62928107 0 169.73302338 0 5672.53722318 0 -486.50980854 0 -425.18214413 0 8155
0.08850000 0.08849210 20529.69463919 0 366.66277079 0 5374.20620767 0 423.86007345 0 -526.34827885 0 8718
0.08950000 0.08949900 19603.91242992 0 345.61389722 0 6197.10647405 0 -1102.79660344 0 -1099.34169559 0 8571
0.09050000 0.09049190 19359.79518509 0 464.90970248 0 5300.76030148 0 -562.85939009 0 -1870.59691250 0 8932
0.09150000 0.09150830 19010.64430516 0 257.53648402 0 6070.16772497 0 532.47838341 0 -2604.97833603 0 9285
0.09250000 0.09250820 18785.82574302 0 35.89333156 0 5765.47036241 0 -322.60964563 0 -2789.11438777 0 9204
0.09350000 0.09350330 18421.36901130 0 -66.47808353 0 5376.99009810 0 1163.81038697 0 -1825.66647366 0 9349
0.09450000 0.09448040 19039.48141723 0 140.15612848 0 5721.98177918 0 141.04564247 0 -2739.71419656 0 9564
0.09550000 0.09549270 18551.46875151 0 243.49946516 0 4175.91328938 0 -44.37011157 0 -2000.02008969 0 10155
0.09650000 0.09649430 18016.98397057 0 315.45804184 0 5912.43981317 0 -70.94118118 0 -2071.43630684 0 9913
0.09750000 0.09749140 17564.68495902 0 458.14185410 0 4597.73369172 0 -828.30057017 0 -2133.15881785 0 10476
0.09850000 0.09850240 17257.01515568 0 283.18376784 0 6105.44882247 0 138.11978472 0 -3254.96684199 0 10575
0.09950000 0.09950330 16779.53912706 0 139.23445001 0 4718.37264093 0 432.24501835 0 -2415.31886822 0 10882
0.10050000 0.10051200 16433.82651818 0 274.17549768 0 5825.71774424 0 216.22953922 0 -2370.25533502 0 10875
0.10150000 0.10150300 16399.22198370 0 271.44262675 0 4549.29843465 0 453.20183498 0 -2648.31164251 0 11118
0.10250000 0.10250800 15679.73603767 0 219.58351718 0 4697.82065298 0 634.07707481 0 -1764.99762636 0 11575
0.10350000 0.10349800 15658.66276347 0 -58.02182224 0 3580.31601326 0 898.95260385 0 -1267.98999991 0 11364
0.10450000 0.10450100 15272.24546179 0 73.73327910 0 4318.80117967 0 259.91665488 0 -298.44192748 0 12093
0.10550000 0.10551000 15489.07836213 0 201.46493785 0 3353.87813637 0 -431.60061980 0 -1219.85420515 0 12067
0.10650000 0.10649700 15194.60708316 0 312.03308022 0 4328.82762171 0 -194.59394134 0 26.39826877 0 12054
0.10750000 0.10749900 15026.24271348 0 108.80508571 0 4243.08157810 0 -450.69633359 0 -1033.49104107 0 12807
0.10850000 0.10850100 14980.65789403 0 -259.03046825 0 4528.26952523 0 607.27852475 0 -435.73985450 0 12736
0.10950000 0.10950300 15243.51926170 0 -72.50226715 0 4276.54371930 0 555.66009415 0 -954.26551215 0 12933
0.11050000 0.11050200 15328.03418244 0 65.92596375 0 4112.94856431 0 -235.87537638 0 -822.65071445 0 13428
0.11150000 0.11150900 15592.00466981 0 -25.90825969 0 4470.61748350 0 28.43217246 0 -748.18219990 0 13453
0.11250000 0.11250000 15228.21340991 0 294.61324630 0 4636.44196907 0 -485.42287123 0 -826.81989538 0 13668
0.11350000 0.11349100 14780.79452502 0 358.58172470 0 4424.30064504 0 -363.70031209 0 -320.25165716 0 13791
0.11450000 0.11448600 14588.69499388 0 196.96080277 0 5237.31865494 0 340.34557867 0 -825.57879044 0 14205
0.11550000 0.11549300 14318.95708409 0 106.73990484 0 4741.37578340 0 479.75748783 0 -51.59879918 0 14776
0.11650000 0.11649800 14262.17015572 0 -52.32139066 0 4616.53327055 0 1002.50223680 0 -213.42901199 0 14553
0.11750000 0.11747300 14358.88539311 0 45.89836759 0 4115.06698293 0 105.75023733 0 -74.94077772 0 14568
0.11850000 0.11849100 13965.03698948 0 156.56777260 0 3583.76537552 0 54.21066515 0 291.95468639 0 16015
0.11950000 0.11950300 13808.76202448 0 276.06765588 0 4351.56457545 0 -392.67273675 0 -428.72910891 0 15270
0.12050000 0.12050700 13621.54261999 0 194.50299352 0 4069.27143073 0 -324.77021080 0 -678.64372239 0 15999
0.12150000 0.12150000 13288.69579957 0 164.21958937 0 4436.54532647 0 257.86367433 0 -350.89663433 0 15670
0.12250000 0.12250700 13340.38077735 0 -12.58928492 0 3786.37936137 0 157.15116956 0 -221.70082668 0 16887
0.12350000 0.12352200 13378.42358289 0 -187.15951202 0 3676.08849891 0 785.61055312 0 -106.50299687 0 16407
0.12450000 0.12449800 13579.50698356 0 -30.61103811 0 3488.82472964 0 507.53428147 0 378.17543322 0 16306
0.12550000 0.12549900 13451.62548274 0 211.01445842 0 3166.92492061 0 -276.21295056 0 -284.60344105 0 17523
0.12650000 0.12650100 13112.56759204 0 378.32738262 0 3661.07101824 0 -615.38618971 0 471.12299101 0 17154
0.12750000 0.12750600 12721.15925173 0 226.73955745 0 3932.99389382 0 -261.68680992 0 -353.23909513 0 18007
0.12850000 0.12850300 12723.26657915 0 -42.61858975 0 3948.43283998 0 234.63316232 0 -316.92540720 0 17496
0.12950000 0.12949900 12592.61227910 0 75.95817321 0 3523.48472010 0 353.97222324 0 -1324.15582125 0 18405
0.13050000 0.13049000 12403.61828311 0 217.50280863 0 3690.68451410 0 75.98745397 0 -454.12794993 0 18100
0.13150000 0.13148800 12237.36124085 0 113.81231748 0 3459.65488167 0 244.09949892 0 -77.13827657 0 19059
0.13250000 0.13249300 12384.87416026 0 -184.75604964 0 2569.94124487 0 947.47215402 0 536.61318163 0 18957
0.13350000 0.13349100 12121.56914471 0 -60.03553996 0 2764.31447139 0 698.80086372 0 496.46637604 0 19468
0.13450000 0.13450700 12410.82756112 0 214.70893612 0 2380.45923621 0 170.01030330 0 1739.63205893 0 19953
0.13550000 0.13551000 12130.66392621 0 105.57200180 0 2180.64023199 0 68.29892534 0 1516.05571085 0 19956
0.13650000 0.13649900 12116.79993002 0 79.82378808 0 2959.75245281 0 -255.22396945 0 2084.10245375 0 19723
0.13750000 0.13749600 11837.19085496 0 173.63046999 0 2870.02466950 0 -316.37750207 0 1453.33499211 0 20946
0.13850000 0.13851100 11611.37408509 0 309.32793729 0 3633.27647869 0 -387.49425690 0 1972.63592442 0 20955
0.13950000 0.13949800 11601.17018390 0 232.75985916 0 3677.06452424 0 -477.81541925 0 1172.98280685 0 20506
0.14050000 0.14048300 11222.62763206 0 89.05177486 0 4419.79761908 0 -18.80490260 0 1153.32920586 0 21447
0.14150000 0.14148400 11176.04460488 0 124.41439265 0 4139.11269791 0 173.58055960 0 1048.91224131 0 21771
0.14250000 0.14249400 11105.28276835 0 157.55710737 0 4052.72336488 0 58.33259758 0 1177.31946486 0 22470
0.14350000 0.14350900 10785.01336527 0 110.68570906 0 3730.94555902 0 369.14719891 0 775.86582748 0 22519
0.14450000 0.14449900 10697.81437486 0 86.20233545 0 3716.39390862 0 380.44358300 0 1326.09678072 0 22218
0.14550000 0.14550500 10523.09474934 0 122.03200354 0 3054.39363637 0 295.33306498 0 1009.33995972 0 23559
0.14650000 0.14650700 10344.92576156 0 46.75582803 0 3186.05723535 0 73.14389290 0 992.23733402 0 23044
0.14750000 0.14750500 10291.72128980 0 96.19206563 0 2947.65195694 0 44.15327867 0 766.20539494 0 23649
0.14850000 0.14849900 10068.02293855 0 173.22896866 0 2665.23680905 0 -234.90378753 0 197.48985286 0 23640
0.14950000 0.14949500 9855.98143530 0 216.97375854 0 3008.18770989 0 -127.16722773 0 337.72140147 0 24457
0.15050000 0.15050000 9631.27378512 0 62.91991664 0 2830.93929146 0 -33.14570934 0 -197.34788554 0 24591
0.15150000 0.15149900 9665.46794532 0 37.77794775 0 2740.00256768 0 262.37779149 0 164.89947975 0 25020
0.15250000 0.15250500 9649.48553051 0 -39.88926800 0 2492.14758948 0 363.85447972 0 163.05945017 0 25297
0.15350000 0.15350100 9589.55979340 0 42.45743465 0 2438.85438814 0 351.38464700 0 244.68400499 0 25452
0.15450000 0.15450400 9761.66189645 0 -79.84463953 0 1931.89795803 0 374.30349637 0 761.28533997 0 26061
0.15550000 0.15549900 9708.16905357 0 0.22416418 0 2075.02985465 0 281.94044466 0 831.06005997 0 26128
0.15650000 0.15649500 9654.31020119 0 87.81654825 0 1839.85211456 0 -57.04169317 0 998.12343224 0 26331
0.15750000 0.15749700 9506.79728178 0 193.56467826 0 1946.68252356 0 114.56208240 0 1186.44751995 0 27345
0.15850000 0.15849900 9331.00181015 0 108.76537922 0 2015.52558302 0 -98.10917902 0 1279.21429122 0 26980
0.15950000 0.15949700 9240.37563988 0 69.27883259 0 2035.58955830 0 11.76731631 0 1116.91680628 0 27777
0.16050000 0.16050000 9179.11895914 0 23.96219827 0 2038.52872549 0 105.82843027 0 1099.05887007 0 28224
0.16150000 0.16150500 9015.10233867 0 221.98365220 0 2255.20634907 0 -606.47995857 0 630.85286386 0 28075
0.16250000 0.16249700 8816.66973407 0 307.97370214 0 2492.95724686 0 -440.34048300 0 50.45230215 0 28590
0.16350000 0.16349900 8611.39386095 0 157.75453067 0 2675.28543349 0 -242.04984572 0 485.00473311 0 29163
0.16450000 0.16449100 8242.56719763 0 -34.61307470 0 2840.95464230 0 410.77578841 0 -307.73635053 0 28996
0.16550000 0.16550500 8584.60862032 0 -59.44415734 0 2378.99519821 0 474.84297847 0 -33.36941879 0 30777
0.16650000 0.16650700 8431.69428799 0 54.81690997 0 1973.39012582 0 285.38869779 0 71.31018531 0 29211
0.16750000 0.16749900 8414.89112462 0 144.66913651 0 1843.68966870 0 -51.74198653 0 456.85638437 0 30922
0.16850000 0.16850800 8166.65904572 0 163.29458355 0 2147.41100593 0 -81.77716969 0 353.61397758 0 30867
0.16950000 0.16949900 8063.85474121 0 77.82482166 0 2092.76467857 0 -1.54085563 0 764.41416663 0 30852
0.17050000 0.17049200 7982.40099082 0 81.63675514 0 2248.32980697 0 -4.57792481 0 170.79666916 0 31257
0.17150000 0.17149500 7938.20257098 0 35.28320482 0 2303.00940792 0 -39.76293927 0 216.16077380 0 32608
0.17250000 0.17250900 7859.34416068 0 178.08580380 0 2425.51167821 0 -201.56032214 0 279.95844777 0 32361
0.17350000 0.17350400 7678.39128247 0 165.14126784 0 2585.35800863 0 -288.36557506 0 178.37417492 0 32508
0.17450000 0.17449800 7652.00532493 0 -11.43580044 0 2771.32410786 0 -43.97626316 0 98.95565917 0 32791
0.17550000 0.17549800 7616.89059539 0 1.50835842 0 2450.21177382 0 65.69859421 0 -492.78742601 0 33633
0.17650000 0.17650100 7805.89568258 0 -68.51076720 0 2445.17637040 0 349.39599538 0 0.86585980 0 33984
0.17750000 0.17750300 7564.90615529 0 29.67993212 0 2209.18897293 0 209.67131447 0 -455.12283029 0 34069
0.17850000 0.17849800 7811.25273071 0 85.58655219 0 2091.01226945 0 103.39668534 0 -17.79527094 0 34536
