### header ###
fiducial parameters:
Omega_m = 0.31
Omega_nu = 0
Omega_de = 0.69
Omega_k = 0
H_0 = 100
w_de = -1
zeff = 0
beta = 0
fgrowth = 0
b_1 = 2
gamma = 0.55
Lx = 3500 Ly = 3500 Lz = 3500
nx = 700 ny = 700 nz = 700
xoffset = 1379.75464 yoffset = 22.6059522 zoffset = 368.141391
bins = 400 dk = 0.001
kx_ny = 0.628318531 ky_ny = 0.628318531 kz_ny = 0.628318531
############################
A(data) = 3.28223026 (not used)
A(ran) = 3.28391769 (used)
Ngal = 184300
weighted Ngal = 0
Nran = 9399747
weighted Nran = 0
SN(data) = 6672.30064
SN(ran) = 130.619083
SN(data+ran) = 6802.91972
############################
13 columns: k_central k_mean P_0(k) sigma^{lin}_{P_0(k)} P^img_1(k) sigma^{lin}_{P_1(k)} P_2(k) sigma^{lin}_{P_2(k)} P^img_3(k) sigma^{lin}_{P_3(k)} P_4(k) sigma^{lin}_{P_4(k)} N_modes
### header ###
0.00050000 0 0 0 0 0 0 0 0 0 0 0 0
0.00150000 0.00179520 39590.47115456 0 -49897.29865460 0 -72888.90628039 0 67680.14745760 0 36743.47180992 0 3
0.00250000 0.00253879 52615.08555480 0 -31842.71552638 0 -8432.59267495 0 -97803.17289715 0 -24432.35410936 0 6
0.00350000 0.00331552 72338.56108782 0 -2324.14922930 0 -66799.17368400 0 -2337.93558711 0 -11502.56944303 0 7
0.00450000 0.00420575 74928.91013508 0 4804.95052430 0 -26271.71821125 0 -46724.88359150 0 4297.17334562 0 24
0.00550000 0.00557378 61475.73188476 0 6066.90691307 0 -19950.95598243 0 -12789.14828903 0 10990.63306549 0 45
0.00650000 0.00659388 53955.34579402 0 -5907.57077771 0 2294.87956056 0 10117.70040968 0 -11433.13855014 0 40
0.00750000 0.00754703 51738.10461210 0 -6231.37827262 0 -10346.23452280 0 -8238.71855229 0 -15264.25979999 0 57
0.00850000 0.00846663 65769.46695933 0 130.93490733 0 -15764.80551826 0 236.01845282 0 -3871.30465640 0 75
0.00950000 0.00948925 71904.34072730 0 -10227.85817777 0 -16911.52437074 0 -2268.80415653 0 12005.55522463 0 112
0.01050000 0.01054430 72580.23826932 0 124.40995617 0 -2188.54825541 0 -13434.32321550 0 -20636.28104186 0 105
0.01150000 0.01145670 79495.04500669 0 3678.20691753 0 16675.06005181 0 -21929.62551800 0 14121.20104251 0 144
0.01250000 0.01249090 79694.02107994 0 -3941.31229154 0 11296.82773964 0 6175.05717451 0 -6244.75425614 0 169
0.01350000 0.01339930 84816.71221442 0 -438.11669801 0 38621.98783704 0 -337.94211629 0 16932.93038085 0 180
0.01450000 0.01448870 85172.07416464 0 6605.75053441 0 38251.65277094 0 -2121.24687233 0 16666.29800622 0 267
0.01550000 0.01550050 81927.12267350 0 6907.56418576 0 41678.49989203 0 2070.84847340 0 3892.79939608 0 238
0.01650000 0.01653350 72952.12610300 0 1349.59902705 0 49297.93037152 0 11080.67140232 0 35173.06923402 0 315
0.01750000 0.01747870 75411.37720232 0 1795.02149649 0 38281.82082664 0 17360.27419927 0 3340.93470953 0 297
0.01850000 0.01844180 69620.33053975 0 3432.03780126 0 52717.12456672 0 2381.84563583 0 29490.05082972 0 388
0.01950000 0.01947590 64744.19671343 0 6819.01206933 0 36730.49510949 0 -6494.08436353 0 2887.71512864 0 399
0.02050000 0.02045430 58432.75109005 0 5056.97579256 0 51294.01308629 0 -692.71956044 0 6268.68905915 0 462
0.02150000 0.02154770 51728.78800666 0 2142.23141696 0 43910.38145392 0 2823.14218000 0 4066.66499944 0 571
0.02250000 0.02255340 51555.87624624 0 883.14986644 0 42016.78139895 0 16593.42884227 0 8694.57783806 0 510
0.02350000 0.02348930 53436.05595290 0 -4789.37848379 0 31270.85341173 0 15719.22069881 0 9449.21178722 0 555
0.02450000 0.02439640 57135.96834286 0 -2128.06795846 0 23855.72278002 0 17552.37373041 0 13930.76519091 0 592
0.02550000 0.02547300 59496.61870132 0 -2033.82605799 0 12543.25645268 0 9306.16862018 0 23568.79351497 0 837
0.02650000 0.02652900 59152.79159593 0 -2499.54541784 0 8279.20142115 0 2595.51754504 0 15839.11653782 0 723
0.02750000 0.02749970 68264.43171283 0 -2822.37688741 0 3717.33666036 0 8954.36694418 0 24842.83930842 0 826
0.02850000 0.02848090 64583.37435768 0 -992.31275416 0 1300.78666928 0 -6380.48832439 0 8978.37938557 0 831
0.02950000 0.02946900 68418.48843844 0 1516.59917950 0 5803.54644154 0 -1371.62614419 0 12461.84706708 0 996
0.03050000 0.03053250 66681.16334847 0 3228.35906051 0 13783.03044756 0 -14543.55382230 0 10007.93083349 0 1041
0.03150000 0.03150510 60508.91224678 0 5322.80960101 0 15553.29639246 0 -8080.97954929 0 -6367.81108628 0 1036
0.03250000 0.03246190 57798.44553658 0 3896.88095656 0 31835.06260048 0 499.39777939 0 2025.79603140 0 1059
0.03350000 0.03345080 52673.97981059 0 1733.64281258 0 22734.84641644 0 2382.59983722 0 -1362.59790988 0 1302
0.03450000 0.03451200 49826.31499413 0 1376.11807896 0 33772.47288340 0 4641.75465241 0 5232.26106913 0 1339
0.03550000 0.03553350 48876.35397552 0 1644.66923066 0 17719.62898039 0 4471.21640813 0 877.38909874 0 1365
0.03650000 0.03647120 47579.79305227 0 428.66588909 0 26886.50325809 0 2922.12002157 0 6863.21048917 0 1308
0.03750000 0.03744890 45962.25288934 0 866.05833194 0 16733.62157169 0 2295.76685631 0 8625.00275960 0 1579
0.03850000 0.03847530 46472.89159684 0 -1098.34348787 0 17390.44225497 0 5579.24916565 0 5783.00554479 0 1662
0.03950000 0.03950240 45938.40681590 0 -232.35503047 0 14236.77131471 0 489.54436002 0 4616.15616985 0 1683
0.04050000 0.04050350 47040.09540877 0 518.07202769 0 12902.05667396 0 1198.22637110 0 1959.72577118 0 1822
0.04150000 0.04152450 45356.78444794 0 401.12090147 0 12420.25507853 0 -1366.46873761 0 1145.50991201 0 1887
0.04250000 0.04250150 45220.69546138 0 1715.56416156 0 14570.72725482 0 -3054.39363637 0 -5099.62144482 0 1920
0.04350000 0.04349210 42402.42231684 0 1814.61964150 0 16082.23557492 0 -3356.78402997 0 -3811.76711118 0 2005
0.04450000 0.04448520 41526.43958187 0 1124.24808746 0 20251.63833170 0 -1397.01389401 0 -4227.60935836 0 2151
0.04550000 0.04548030 39641.49066052 0 1506.48400789 0 19558.10578653 0 -1593.38353598 0 -8555.49422833 0 2274
0.04650000 0.04648670 39889.48982428 0 592.18007834 0 23257.01996876 0 1800.10126470 0 -2902.75479170 0 2311
0.04750000 0.04749250 37851.37147308 0 -98.97495785 0 18994.78389353 0 1514.07038660 0 -9352.00853717 0 2568
0.04850000 0.04851840 39332.60082551 0 685.47700883 0 20474.79321430 0 1500.00674887 0 -2092.76467857 0 2493
0.04950000 0.04949480 38845.14271964 0 -589.60470241 0 17132.46101395 0 2958.98716023 0 -7631.89698486 0 2644
0.05050000 0.05050630 36817.45009356 0 333.76073504 0 16554.60965295 0 1775.87809056 0 -1414.92617708 0 2829
0.05150000 0.05149060 38202.07512058 0 1265.77176052 0 14108.88981389 0 -975.66597666 0 -5197.78962901 0 2784
0.05250000 0.05249300 36626.01603424 0 208.68752530 0 14246.30974408 0 -259.02603177 0 -6738.15724358 0 3055
0.05350000 0.05348950 36208.32155717 0 423.01603337 0 15443.93719055 0 962.24895571 0 -7662.76378597 0 3009
0.05450000 0.05448610 35589.76550337 0 -286.60983858 0 12285.27521167 0 191.70690277 0 -7770.50367312 0 3336
0.05550000 0.05550870 35458.66755544 0 21.11375707 0 12112.14162731 0 1191.76020328 0 -8185.52517173 0 3349
0.05650000 0.05647670 35374.70719454 0 92.12403641 0 12480.03663008 0 -472.21991039 0 -10413.43608511 0 3324
0.05750000 0.05747970 34667.42156515 0 978.29569946 0 10476.00152710 0 474.68437435 0 -9308.66413949 0 3639
0.05850000 0.05849280 34888.13638442 0 492.52900112 0 12551.79667433 0 1823.81424377 0 -6452.53673976 0 3846
0.05950000 0.05951020 32497.87253011 0 917.98287957 0 11320.78472505 0 -864.86824651 0 -3850.63066529 0 3787
0.06050000 0.06049470 31771.51004197 0 1555.56255438 0 14481.99767923 0 -1295.64035390 0 -5692.75647522 0 3930
0.06150000 0.06148310 30538.72350118 0 1000.93948715 0 13248.43475465 0 223.03287943 0 -3985.01160751 0 4083
0.06250000 0.06249100 29428.16195075 0 497.23277774 0 15853.64600582 0 687.15621605 0 -2528.04979400 0 4303
0.06350000 0.06350600 29123.04312270 0 -260.26380935 0 14079.38723001 0 943.24308062 0 -2759.86690141 0 4470
0.06450000 0.06451750 29693.01973387 0 -7.08974819 0 15235.31177596 0 1013.98384388 0 -1571.84443150 0 4479
0.06550000 0.06550280 29217.65103267 0 129.23129948 0 13298.67787683 0 137.22472512 0 -3901.10670260 0 4636
0.06650000 0.06648880 29965.30861895 0 558.71239155 0 14801.42415134 0 -854.64881764 0 -2710.04524472 0 4653
0.06750000 0.06749660 28447.47831659 0 501.07587749 0 13323.52215799 0 618.87880763 0 -3401.83647197 0 5220
0.06850000 0.06852730 28301.96181263 0 176.88240893 0 15458.79939446 0 140.33247851 0 -1561.60725672 0 5029
0.06950000 0.06949320 28275.78658783 0 -11.17593369 0 12987.90253834 0 1826.17666872 0 -4451.80681347 0 5040
0.07050000 0.07048030 27985.75178763 0 273.45346076 0 14345.02139692 0 393.90718698 0 -2261.84997604 0 5475
0.07150000 0.07148790 28186.72427633 0 490.93852348 0 12189.22544610 0 731.35241765 0 -2497.94828548 0 5509
0.07250000 0.07249820 26537.24146620 0 33.98742028 0 12790.47923266 0 547.39937066 0 -246.44639619 0 5916
0.07350000 0.07351270 27088.14121861 0 137.02286534 0 12012.98632659 0 1586.35171711 0 -1400.42998267 0 5721
0.07450000 0.07449140 26949.83399267 0 -291.15168373 0 9160.59666023 0 1430.75331512 0 -1530.33008132 0 6028
0.07550000 0.07549160 27118.19836234 0 -86.07866860 0 10817.98749380 0 1071.00036003 0 1457.29454942 0 6183
0.07650000 0.07648840 26670.89038942 0 439.72824893 0 7988.92261462 0 676.40551884 0 -0.83042232 0 6330
0.07750000 0.07749960 26503.96787535 0 165.86108652 0 8777.96145672 0 913.35563221 0 1289.83965790 0 6583
0.07850000 0.07848650 25537.03732540 0 478.29234072 0 7092.97572515 0 1113.88890951 0 979.34714493 0 6549
0.07950000 0.07947320 25367.78565997 0 551.17037762 0 8156.58823889 0 891.02905275 0 2599.97620621 0 6828
0.08050000 0.08048110 23974.39858737 0 1041.16947672 0 6775.66767165 0 -755.96156543 0 1007.21155902 0 7147
0.08150000 0.08149960 22740.94657476 0 880.68983896 0 8769.13286395 0 -539.93499512 0 1957.44098460 0 7386
0.08250000 0.08250610 21576.81454307 0 751.26555265 0 8079.87042960 0 -676.18813138 0 1479.14420741 0 7227
0.08350000 0.08350160 21712.34896978 0 49.23105045 0 7744.07335079 0 422.27846877 0 -673.22345444 0 7798
0.08450000 0.08449610 21048.31900849 0 338.53771357 0 8787.47770370 0 -287.36847645 0 -228.57293231 0 7371
0.08550000 0.08548940 20604.89295450 0 435.49917553 0 7729.31096766 0 -478.72822476 0 -1886.56823610 0 8256
0.08650000 0.08650700 20206.16442421 0 346.10967373 0 9254.03999452 0 -376.12134355 0 -1417.42169639 0 8037
0.08750000 0.08749060 19586.83198662 0 402.53724732 0 8201.15266823 0 751.24780673 0 -2018.39820303 0 8155
0.08850000 0.08849210 19759.96557098 0 -9.79974907 0 9351.63143647 0 261.33632809 0 -1017.44873381 0 8718
0.08950000 0.08949900 19322.52876335 0 70.26528364 0 8343.68564021 0 1203.80524317 0 -541.48110797 0 8571
0.09050000 0.09049190 19248.77230364 0 146.49363841 0 7985.19597245 0 476.61867910 0 55.47927625 0 8932
0.09150000 0.09150830 19341.93835801 0 100.91070446 0 7922.06487942 0 667.99062772 0 319.12035507 0 9285
0.09250000 0.09250820 19181.89238604 0 217.84330838 0 7346.68685534 0 265.82493550 0 613.40086546 0 9204
0.09350000 0.09350330 18226.71850486 0 371.95881733 0 7660.34590503 0 304.19382222 0 1893.46696061 0 9349
0.09450000 0.09448040 18430.79652871 0 -63.96437466 0 6693.19353115 0 1070.42139955 0 1503.05682803 0 9564
0.09550000 0.09549270 18309.56974606 0 -403.36575973 0 6079.60633358 0 1330.74399224 0 2590.50432401 0 10155
0.09650000 0.09649430 18955.41014436 0 127.16833685 0 4863.56750017 0 688.85316918 0 1726.41135217 0 9913
0.09750000 0.09749140 18589.95520492 0 195.78513589 0 5211.90872273 0 -211.18304461 0 2800.60486780 0 10476
0.09850000 0.09850240 18318.44270362 0 150.26353625 0 4383.38521950 0 183.63805699 0 1571.58933397 0 10575
0.09950000 0.09950330 18043.60284325 0 332.31777032 0 5640.58348478 0 -1465.89022706 0 424.12071658 0 10882
0.10050000 0.10051200 17731.49656112 0 753.60912256 0 5980.17375294 0 -1342.78903213 0 -322.21812638 0 10875
0.10150000 0.10150300 16841.53891800 0 250.09207263 0 7179.74215887 0 -112.91060317 0 -105.72528214 0 11118
0.10250000 0.10250800 16487.06426353 0 33.97721638 0 6763.78899972 0 136.76554957 0 -571.31420952 0 11575
0.10350000 0.10349800 17249.25131781 0 78.23242315 0 6966.42516797 0 511.48163846 0 -1236.29135903 0 11364
0.10450000 0.10450100 16209.22977998 0 266.56915481 0 7395.17756839 0 270.04069946 0 -988.95433973 0 12093
0.10550000 0.10551000 16504.03379486 0 366.13593894 0 6639.67850587 0 -278.99240451 0 170.73788582 0 12067
0.10650000 0.10649700 15725.76450501 0 27.76703338 0 7428.58425360 0 85.04763093 0 120.19197397 0 12054
0.10750000 0.10749900 16058.27858951 0 -17.31180567 0 6577.70089733 0 605.20668916 0 -194.39762715 0 12807
0.10850000 0.10850100 15988.95860859 0 -140.93140314 0 6822.33942841 0 359.20172260 0 -55.88510315 0 12736
0.10950000 0.10950300 15902.78000830 0 141.28632144 0 6427.04916918 0 265.17942784 0 -713.61093901 0 12933
0.11050000 0.11050200 16072.69714555 0 415.27881437 0 6839.20913897 0 -380.45356508 0 260.74960377 0 13428
0.11150000 0.11150900 15267.47624711 0 147.86229212 0 6108.64308719 0 529.00462052 0 334.86874562 0 13453
0.11250000 0.11250000 15095.67360638 0 130.92048878 0 6724.25997380 0 1040.83341345 0 677.78859110 0 13668
0.11350000 0.11349100 15078.03860323 0 24.82476066 0 5485.91674333 0 837.03821513 0 1561.38543278 0 13791
0.11450000 0.11448600 14752.73379674 0 203.69870491 0 5091.41395908 0 899.97410309 0 1703.68548963 0 14205
0.11550000 0.11549300 14506.06557661 0 127.59867529 0 4150.21498606 0 367.79740024 0 2331.46941929 0 14776
0.11650000 0.11649800 14376.29857232 0 27.81051088 0 4065.36732940 0 304.86262140 0 1870.89637482 0 14553
0.11750000 0.11747300 14121.20104251 0 122.58545427 0 3798.75713716 0 93.47816065 0 1645.23488171 0 14568
0.11850000 0.11849100 14167.78406969 0 104.44890720 0 3638.32297330 0 -66.13214910 0 1577.75603948 0 16015
0.11950000 0.11950300 13778.81579272 0 83.49985440 0 3952.04857018 0 -192.84929606 0 1105.52281965 0 15270
0.12050000 0.12050700 14049.10826234 0 -7.16192970 0 3086.83538745 0 114.12508924 0 680.73219477 0 15999
0.12150000 0.12150000 13952.17120102 0 72.38658597 0 4001.12711668 0 100.02107955 0 635.67753453 0 15670
0.12250000 0.12250700 14032.58237889 0 -52.06773499 0 3366.37791533 0 83.39836995 0 712.88002913 0 16887
0.12350000 0.12352200 13833.27356973 0 150.94453575 0 3856.07644299 0 -114.82494377 0 145.53535900 0 16407
0.12450000 0.12449800 13877.97109343 0 372.24386110 0 3506.67046553 0 -308.23989087 0 732.37169865 0 16306
0.12550000 0.12549900 13186.65678765 0 316.34977408 0 4283.94154766 0 -300.80213419 0 147.83678236 0 17523
0.12650000 0.12650100 13176.89653434 0 239.71182140 0 4643.76215905 0 280.69268501 0 1185.74877454 0 17154
0.12750000 0.12750600 12868.33943524 0 14.73776068 0 4252.59782508 0 373.99072462 0 595.35437891 0 18007
0.12850000 0.12850300 12745.55988502 0 78.94680714 0 3602.54277195 0 323.75314804 0 557.18735197 0 17496
0.12950000 0.12949900 12633.09514796 0 43.24668423 0 3974.46387921 0 -20.25396748 0 486.27356604 0 18405
0.13050000 0.13049000 12439.55376122 0 206.43268496 0 3483.97787657 0 -75.09960366 0 415.79566415 0 18100
0.13150000 0.13148800 12172.81047461 0 205.32356526 0 3788.71960392 0 210.09056171 0 360.15334730 0 19059
0.13250000 0.13249300 12138.31685210 0 -119.38231659 0 2971.40930081 0 342.29541110 0 337.17904194 0 18957
0.13350000 0.13349100 12002.22786555 0 -71.06540259 0 2752.67980579 0 552.19298598 0 444.82687216 0 19468
0.13450000 0.13450700 12257.32539536 0 147.25560364 0 2811.38551124 0 143.61658192 0 112.97049564 0 19953
0.13550000 0.13551000 11931.24420508 0 173.66818005 0 2839.10241241 0 -494.80269649 0 90.57215613 0 19956
0.13650000 0.13649900 11493.80739744 0 291.89146657 0 3047.58364145 0 -287.29638367 0 -128.71444970 0 19723
0.13750000 0.13749600 11587.41709969 0 185.42263058 0 3319.27360189 0 -531.23727847 0 -321.95859237 0 20946
0.13850000 0.13851100 11331.87592200 0 -4.53090923 0 3399.60714139 0 158.06841155 0 -295.29424579 0 20955
0.13950000 0.13949800 11613.14867661 0 -7.09520506 0 3592.76033624 0 258.29512189 0 -500.42038775 0 20506
0.14050000 0.14048300 11204.65989300 0 351.59427062 0 3849.27753926 0 -485.02691550 0 -203.15190890 0 21447
0.14150000 0.14148400 11094.74613125 0 175.80212635 0 3714.43076676 0 206.17758743 0 -0.43905945 0 21771
0.14250000 0.14249400 10902.66878250 0 -27.47977138 0 4358.81821826 0 139.38972677 0 395.71283384 0 22470
0.14350000 0.14350900 10858.23744752 0 44.50675511 0 3649.86890933 0 277.15902966 0 95.97157263 0 22519
0.14450000 0.14449900 11160.96057703 0 -29.03797364 0 4060.83102985 0 465.00065029 0 522.33215644 0 22218
0.14550000 0.14550500 10796.27093017 0 77.48576377 0 3638.13442296 0 -83.53201887 0 408.82041039 0 23559
0.14650000 0.14650700 10972.46568489 0 99.59917042 0 3669.00122406 0 -82.41202980 0 680.47376989 0 23044
0.14750000 0.14750500 10778.66920062 0 -17.58720009 0 3609.82968834 0 155.47085322 0 58.84090714 0 23649
0.14850000 0.14849900 10992.29674504 0 1.04402102 0 3474.29526164 0 -53.82491332 0 194.89340365 0 23640
0.14950000 0.14949500 10768.48748182 0 181.17359303 0 3351.79299134 0 -127.30808593 0 -460.92019894 0 24457
0.15050000 0.15050000 10575.34537816 0 251.78237104 0 3575.63552815 0 -144.48058617 0 -332.10592846 0 24591
0.15150000 0.15149900 10287.87264446 0 183.90646396 0 3615.04255091 0 32.13896140 0 7.08518970 0 25020
0.15250000 0.15250500 10018.64492974 0 125.31721608 0 3635.77199801 0 294.99700171 0 -499.78153480 0 25297
0.15350000 0.15350100 9943.15824331 0 101.23822750 0 3118.96658501 0 385.69082828 0 177.47356973 0 25452
0.15450000 0.15450400 9624.09778070 0 182.83283609 0 3391.61038839 0 264.46071827 0 400.18258621 0 26061
0.15550000 0.15549900 9511.59977005 0 82.74776034 0 3042.67024120 0 161.24936683 0 318.00568978 0 26128
0.15650000 0.15649500 9349.16919075 0 237.25179392 0 3209.24892817 0 -27.75682948 0 474.88956149 0 26331
0.15750000 0.15749700 9080.25202954 0 120.73433350 0 2937.79188286 0 16.32602008 0 762.17152661 0 27345
0.15850000 0.15849900 8895.91633626 0 -10.48072638 0 3112.22313726 0 430.29074944 0 939.50978373 0 26980
0.15950000 0.15949700 9106.49380152 0 51.41191251 0 2993.07040845 0 51.36965505 0 672.61232949 0 27777
0.16050000 0.16050000 8907.86155537 0 62.37533887 0 2708.70320989 0 155.57732871 0 786.70969073 0 28224
0.16150000 0.16150500 8712.60103310 0 288.66503737 0 3037.83447933 0 -223.66729590 0 854.68320035 0 28075
0.16250000 0.16249700 8528.90862924 0 73.26833613 0 2710.59980457 0 59.39701975 0 670.72571689 0 28590
0.16350000 0.16349900 8480.90592885 0 -24.29205047 0 3135.49246846 0 256.51387566 0 1463.12851902 0 29163
0.16450000 0.16449100 8566.66306366 0 18.75355036 0 2815.92181079 0 69.43499664 0 704.31207949 0 28996
0.16550000 0.16550500 8616.36271718 0 -38.76561884 0 2562.41032214 0 272.38759673 0 648.44904782 0 30777
0.16650000 0.16650700 8598.83862600 0 -55.96584706 0 2286.33933891 0 61.53307337 0 540.85889182 0 29211
0.16750000 0.16749900 8633.79807878 0 70.74342514 0 2588.23062864 0 -302.19075205 0 639.93988152 0 30922
0.16850000 0.16850800 8636.57087802 0 119.40560811 0 2365.84103863 0 -64.94472555 0 -41.50170621 0 30867
0.16950000 0.16949900 8445.64701375 0 41.21488786 0 2261.55051373 0 12.43034807 0 -355.70577733 0 30852
0.17050000 0.17049200 8406.61709169 0 146.86186615 0 2552.27296813 0 -236.65952400 0 -666.28701987 0 31257
0.17150000 0.17149500 8261.74387716 0 15.79353172 0 2111.04297114 0 98.37436954 0 -702.36446530 0 32608
0.17250000 0.17250900 8407.94803533 0 -108.60821696 0 1947.24817461 0 339.17434828 0 -945.69645339 0 32361
0.17350000 0.17350400 8368.71847172 0 -57.07219396 0 1554.85271778 0 278.22933016 0 -1305.44497200 0 32508
0.17450000 0.17449800 8384.68979533 0 104.56148285 0 1508.93516241 0 73.45522280 0 -845.10817003 0 32791
0.17550000 0.17549800 8205.68896778 0 83.60122794 0 1158.89698673 0 197.31904843 0 -795.47728192 0 33633
0.17650000 0.17650100 8326.43882895 0 -27.93029580 0 1121.85238892 0 433.05134836 0 -252.12619815 0 33984
0.17750000 0.17750300 8159.49413249 0 41.73406679 0 1073.54911709 0 249.82033830 0 29.63967108 0 34069
0.17850000 0.17849800 8136.18043650 0 136.91084425 0 826.94189854 0 62.87810283 0 159.52135835 0 34536
