### header ###
fiducial parameters:
Omega_m = 0.31
Omega_nu = 0
Omega_de = 0.69
Omega_k = 0
H_0 = 100
w_de = -1
zeff = 0
beta = 0
fgrowth = 0
b_1 = 2
gamma = 0.55
Lx = 3500 Ly = 3500 Lz = 3500
nx = 700 ny = 700 nz = 700
xoffset = 1379.75464 yoffset = 22.6059522 zoffset = 368.141391
bins = 400 dk = 0.001
kx_ny = 0.628318531 ky_ny = 0.628318531 kz_ny = 0.628318531
############################
A(data) = 3.32762726 (not used)
A(ran) = 3.33011276 (used)
Ngal = 186583
weighted Ngal = 0
Nran = 9399747
weighted Nran = 0
SN(data) = 6642.2554
SN(ran) = 132.45651
SN(data+ran) = 6774.71191
############################
13 columns: k_central k_mean P_0(k) sigma^{lin}_{P_0(k)} P^img_1(k) sigma^{lin}_{P_1(k)} P_2(k) sigma^{lin}_{P_2(k)} P^img_3(k) sigma^{lin}_{P_3(k)} P_4(k) sigma^{lin}_{P_4(k)} N_modes
### header ###
0.00050000 0 0 0 0 0 0 0 0 0 0 0 0
0.00150000 0.00179520 22258.70133145 0 -36337.75582555 0 -48868.25740175 0 46113.86955163 0 40894.24135582 0 3
0.00250000 0.00253879 36260.78291873 0 -34093.56303505 0 -21451.70584150 0 -50013.97804650 0 -25461.94992207 0 6
0.00350000 0.00331552 63516.06847536 0 -22271.23438400 0 -66924.94785739 0 -8588.56817763 0 -18960.73391889 0 7
0.00450000 0.00420575 89203.94607926 0 -18757.76501474 0 -53827.46429321 0 -44977.68733625 0 -10679.23661997 0 24
0.00550000 0.00557378 96400.24739517 0 1250.76537105 0 -33524.58463161 0 -56759.64403041 0 -7066.97795950 0 45
0.00650000 0.00659388 88566.42407867 0 9035.65432661 0 -28045.86607509 0 -20962.80588002 0 -30116.59254533 0 40
0.00750000 0.00754703 83801.53495775 0 3442.49679999 0 10548.79305267 0 -46103.00017862 0 -28140.80672097 0 57
0.00850000 0.00846663 76532.91903773 0 6856.08994073 0 9969.23364733 0 -13927.54874379 0 -51012.74033169 0 75
0.00950000 0.00948925 77690.61817518 0 4162.06038440 0 52671.76157120 0 -18829.85779491 0 -39548.76825403 0 112
0.01050000 0.01054430 76761.06495895 0 2569.49759699 0 38993.65384677 0 -25740.22805350 0 -53971.09529368 0 105
0.01150000 0.01145670 75848.48127405 0 3310.72228904 0 61686.68645072 0 4957.46557354 0 -37777.50410140 0 144
0.01250000 0.01249090 78325.70011244 0 -1014.90884970 0 58757.05768881 0 3800.55391107 0 -45460.48713941 0 169
0.01350000 0.01339930 78779.66280353 0 -450.82166412 0 59830.02008158 0 3909.43619151 0 -6573.75243121 0 180
0.01450000 0.01448870 79562.81222004 0 3716.41609102 0 52449.71580830 0 18153.40569303 0 -17640.32692221 0 267
0.01550000 0.01550050 73918.39118112 0 1577.74494828 0 45552.76589801 0 4850.24697264 0 -15101.10829288 0 238
0.01650000 0.01653350 75387.64204086 0 317.33578148 0 47671.29542709 0 13201.40807959 0 6154.17245066 0 315
0.01750000 0.01747870 78787.75937730 0 -751.95653422 0 48885.44875702 0 13714.26502648 0 24190.45510392 0 297
0.01850000 0.01844180 79082.45248022 0 1186.78025585 0 46620.51542822 0 9008.00397262 0 25721.26210671 0 388
0.01950000 0.01947590 81399.84717058 0 -1319.09823545 0 38728.90697562 0 1623.90650998 0 15196.27076270 0 399
0.02050000 0.02045430 81682.89451670 0 857.08000801 0 39886.05155323 0 8700.20107491 0 28082.46702502 0 462
0.02150000 0.02154770 81727.03748055 0 4869.50129054 0 59527.56314081 0 -5081.06587233 0 24374.79079720 0 571
0.02250000 0.02255340 75724.48169217 0 4311.59190165 0 47629.92526248 0 -3081.07905623 0 20365.87766027 0 510
0.02350000 0.02348930 74243.25233974 0 1802.43041606 0 69660.81340861 0 13699.29191060 0 36148.09635774 0 555
0.02450000 0.02439640 72195.37373522 0 -3088.39924622 0 45911.34429535 0 15740.95944483 0 15257.49416985 0 592
0.02550000 0.02547300 80916.60371954 0 -3460.71963657 0 44570.19676037 0 21010.05437902 0 27464.24370713 0 837
0.02650000 0.02652900 77941.50105015 0 1660.13035921 0 27196.61312477 0 611.68505729 0 19254.09607818 0 723
0.02750000 0.02749970 76069.30700529 0 6491.83285055 0 40309.06980483 0 -5712.49880579 0 24608.37140493 0 826
0.02850000 0.02848090 67632.56622269 0 2572.28148743 0 27752.50391581 0 3223.55657223 0 16524.21977331 0 831
0.02950000 0.02946900 67375.47227743 0 -1391.02464766 0 29151.10385098 0 6420.71609572 0 14516.04765386 0 996
0.03050000 0.03053250 65328.37005670 0 3286.82075962 0 24994.89961858 0 809.79379894 0 5668.51111869 0 1041
0.03150000 0.03150510 60639.34472290 0 3841.18096549 0 26592.91927488 0 -7081.59615708 0 -7570.88431045 0 1036
0.03250000 0.03246190 56919.02453055 0 4397.65958997 0 29661.96438242 0 -3569.36900188 0 666.96469200 0 1059
0.03350000 0.03345080 51713.37124290 0 1730.55945983 0 26362.22237835 0 -1043.56073878 0 -9039.46969836 0 1302
0.03450000 0.03451200 51993.09122994 0 555.45157965 0 33774.58021082 0 1512.88362853 0 -11040.24398944 0 1339
0.03550000 0.03553350 50027.17657087 0 1348.02407709 0 27683.62758276 0 2740.11347965 0 -15372.95353008 0 1365
0.03650000 0.03647120 48694.68016951 0 1475.61720678 0 32023.50203663 0 -1259.66051100 0 -10559.54042251 0 1308
0.03750000 0.03744890 47548.18314097 0 2374.35907789 0 33819.05591058 0 -135.89045413 0 -11942.22449006 0 1579
0.03850000 0.03847530 45339.26035676 0 1406.00885473 0 33597.34288359 0 1779.56036795 0 -7391.12928151 0 1662
0.03950000 0.03950240 43031.18227184 0 755.46689805 0 31139.64455183 0 3811.46764886 0 -8869.05345725 0 1683
0.04050000 0.04050350 43747.78450666 0 -852.44610593 0 29146.22372433 0 6215.01875712 0 -4748.13032234 0 1822
0.04150000 0.04152450 44132.53812879 0 -683.73790915 0 29575.67487016 0 3427.85642001 0 -971.86835083 0 1887
0.04250000 0.04250150 44283.60023123 0 1234.78295625 0 26030.48467763 0 1663.89027498 0 -4067.11973852 0 1920
0.04350000 0.04349210 42723.17973258 0 1981.05414291 0 24990.46313980 0 21.93561476 0 521.46704308 0 2005
0.04450000 0.04448520 40606.75753092 0 156.96261921 0 23609.83094368 0 3155.88917965 0 2034.82426571 0 2151
0.04550000 0.04548030 40301.97143879 0 171.87584263 0 22006.15477694 0 6032.05837226 0 4294.53364075 0 2274
0.04650000 0.04648670 39878.73136324 0 802.18080136 0 19810.76325301 0 3673.61516199 0 7528.44939092 0 2311
0.04750000 0.04749250 37897.95450026 0 690.31498894 0 19118.11800359 0 4023.58679050 0 10096.12803162 0 2568
0.04850000 0.04851840 36153.30922030 0 281.30270084 0 11962.74320441 0 3663.26707524 0 11408.18335700 0 2493
0.04950000 0.04949480 37061.67825036 0 -282.92977943 0 13533.36760425 0 2663.75058866 0 11705.42743522 0 2644
0.05050000 0.05050630 36587.75140477 0 370.26297332 0 9595.04993589 0 709.27095364 0 13020.84339327 0 2829
0.05150000 0.05149060 35479.07535782 0 710.24586985 0 10454.67315536 0 1715.36452001 0 8347.48992076 0 2784
0.05250000 0.05249300 34505.37917774 0 1046.67625600 0 9882.04574812 0 -1565.84409395 0 9768.49407377 0 3055
0.05350000 0.05348950 32199.29750826 0 1252.29595623 0 9384.60556500 0 -1491.91017510 0 3444.52648903 0 3009
0.05450000 0.05448610 31590.05805990 0 1075.40800170 0 11362.59853755 0 -1525.82705536 0 6024.47199355 0 3336
0.05550000 0.05550870 30927.24813027 0 -333.08417203 0 10506.46904511 0 3273.53350568 0 6271.17348727 0 3349
0.05650000 0.05647670 32047.12628613 0 -1000.48363895 0 9594.71719998 0 3053.20687830 0 4756.02725456 0 3324
0.05750000 0.05747970 33046.55404314 0 89.27237876 0 8186.93375374 0 698.73764390 0 4941.52752352 0 3639
0.05850000 0.05849280 31425.24287325 0 967.96092214 0 10472.28597612 0 -1691.69590572 0 5496.07627974 0 3846
0.05950000 0.05951020 30759.21649651 0 1540.44525294 0 10857.58306690 0 -2255.51690259 0 9282.35582033 0 3787
0.06050000 0.06049470 30373.35375468 0 336.71653903 0 15771.46023643 0 252.43342430 0 8976.40515251 0 3930
0.06150000 0.06148310 28972.53558012 0 592.17786010 0 14387.72250517 0 -52.11975270 0 7572.95836428 0 4083
0.06250000 0.06249100 29533.86105767 0 293.21464636 0 18047.59567415 0 -655.61617929 0 7783.45819116 0 4303
0.06350000 0.06350600 29920.94383116 0 27.86042126 0 17586.75644095 0 112.41482667 0 6887.63330485 0 4470
0.06450000 0.06451750 29881.45917002 0 33.77435839 0 17168.61831600 0 492.67762316 0 5710.79076146 0 4479
0.06550000 0.06550280 30456.53773179 0 -1037.41621567 0 16544.18392782 0 1517.29792491 0 5478.13072308 0 4636
0.06650000 0.06648880 30882.21787066 0 -200.55102322 0 15849.87499886 0 2101.34926501 0 5025.44351963 0 4653
0.06750000 0.06749660 31271.07523567 0 215.53855765 0 13912.57562791 0 -59.80096115 0 405.45312300 0 5220
0.06850000 0.06852730 30067.01489497 0 736.66621010 0 12328.30905583 0 -190.85953532 0 1552.93394071 0 5029
0.06950000 0.06949320 29477.07412929 0 454.94758938 0 12424.69155731 0 930.39725632 0 -1280.90015316 0 5040
0.07050000 0.07048030 28950.02045031 0 124.68723609 0 9685.37664384 0 1998.19004219 0 1367.73313406 0 5475
0.07150000 0.07148790 28301.96181263 0 167.47485568 0 8555.73823466 0 1779.05017289 0 -1616.18703690 0 5509
0.07250000 0.07249820 27394.59099029 0 365.25640702 0 7574.98805332 0 488.87666996 0 -433.11456819 0 5916
0.07350000 0.07351270 27019.59762147 0 703.49909475 0 6047.47513602 0 600.20345021 0 -1991.99006310 0 5721
0.07450000 0.07449140 25910.47792665 0 516.77213941 0 5959.03393155 0 -855.04699161 0 -1314.91685420 0 6028
0.07550000 0.07549160 25237.68591977 0 242.54229486 0 6296.22850117 0 -180.26633312 0 -1821.90655790 0 6183
0.07650000 0.07648840 25495.00168897 0 -73.72041332 0 6445.29418816 0 73.62602723 0 -4184.52005822 0 6330
0.07750000 0.07749960 25842.15615345 0 -488.93545331 0 5196.44759418 0 971.30935450 0 -3862.73116116 0 6583
0.07850000 0.07848650 26494.09671007 0 -355.68026757 0 4424.44483060 0 422.56794901 0 -4321.54070531 0 6549
0.07950000 0.07947320 26104.46296128 0 374.16263817 0 5291.35496647 0 -879.80254320 0 -3615.64147554 0 6828
0.08050000 0.08048110 25496.88719245 0 1064.99225864 0 5814.87055362 0 -758.21307842 0 -4990.09587496 0 7147
0.08150000 0.08149960 24554.80092367 0 655.50970379 0 6600.50439825 0 -959.80667415 0 -3502.75527301 0 7386
0.08250000 0.08250610 23723.73753634 0 405.63058215 0 6937.01131366 0 498.84654690 0 -2717.84235618 0 7227
0.08350000 0.08350160 23492.92972785 0 48.20688933 0 6264.39676593 0 847.76007522 0 -3513.61355482 0 7798
0.08450000 0.08449610 23407.52751135 0 -38.42068261 0 6918.48901476 0 79.54806093 0 -1292.51263636 0 7371
0.08550000 0.08548940 23249.81069074 0 487.02776743 0 6793.96814662 0 -88.05656175 0 -3857.58484577 0 8256
0.08650000 0.08650700 22390.02110332 0 661.61429859 0 7590.68209700 0 -1081.22422538 0 -1162.34634898 0 8037
0.08750000 0.08749060 21972.43753822 0 193.16206781 0 7590.32717870 0 553.48621955 0 -2379.87140277 0 8155
0.08850000 0.08849210 21842.78144589 0 119.46439145 0 8096.11903313 0 748.72123207 0 -1207.01059909 0 8718
0.08950000 0.08949900 21766.47401089 0 475.94433432 0 8492.87333036 0 -390.01417685 0 -835.26029626 0 8571
0.09050000 0.09049190 21475.33009100 0 175.92967511 0 8198.80133447 0 724.22410537 0 415.97755978 0 8932
0.09150000 0.09150830 20520.71076966 0 464.06788063 0 8575.19219411 0 255.60550663 0 -21.18030425 0 9285
0.09250000 0.09250820 20551.32247324 0 458.68865011 0 8391.65506701 0 -72.95201519 0 1416.64531261 0 9204
0.09350000 0.09350330 19707.17147351 0 413.99556289 0 9113.74744432 0 427.15083159 0 1167.57030274 0 9349
0.09450000 0.09448040 19869.21386092 0 78.19249484 0 8685.47196537 0 418.06492305 0 2030.19923658 0 9564
0.09550000 0.09549270 19164.36829486 0 104.47596972 0 8033.27631122 0 1169.42253263 0 2214.83439218 0 10155
0.09650000 0.09649430 19178.56502696 0 297.19860430 0 7653.84646362 0 889.36315497 0 2288.18047760 0 9913
0.09750000 0.09749140 18411.27602208 0 291.94359519 0 7156.39518930 0 -1.10128709 0 2729.02228270 0 10476
0.09850000 0.09850240 18060.90511049 0 475.01600114 0 7207.61433680 0 470.46750127 0 2392.53754969 0 10575
0.09950000 0.09950330 17672.82412927 0 337.22784321 0 6876.18718960 0 285.86894662 0 3171.71631769 0 10882
0.10050000 0.10051200 16721.86490293 0 267.94002676 0 6775.40148293 0 194.61057813 0 2280.50536931 0 10875
0.10150000 0.10150300 16793.18129930 0 311.86227579 0 6717.50543486 0 191.28765553 0 2613.35218973 0 11118
0.10250000 0.10250800 16198.24949500 0 152.25551523 0 5932.88088915 0 489.61645280 0 1173.80355542 0 11575
0.10350000 0.10349800 16205.45877302 0 160.53953023 0 6043.69303786 0 353.56295808 0 1945.09648240 0 11364
0.10450000 0.10450100 15741.84674058 0 -58.38528077 0 5480.64842478 0 486.87803627 0 1798.16030523 0 12093
0.10550000 0.10551000 15757.92897616 0 118.86879417 0 5223.83175945 0 327.06276121 0 1373.04581740 0 12067
0.10650000 0.10649700 15734.52655060 0 87.64718568 0 4883.19891877 0 33.44073518 0 1264.51845526 0 12054
0.10750000 0.10749900 15381.93739961 0 486.48984438 0 4492.91078936 0 -490.23534159 0 1448.31067989 0 12807
0.10850000 0.10850100 14837.47054142 0 141.08667990 0 5709.40436184 0 -4.41766811 0 1177.53019760 0 12736
0.10950000 0.10950300 15076.70765960 0 109.73230977 0 5283.70204057 0 -242.05871868 0 577.05279482 0 12933
0.11050000 0.11050200 14943.39147228 0 138.02107306 0 5795.02840228 0 79.20722845 0 438.77440599 0 13428
0.11150000 0.11150900 14697.05598806 0 179.36794617 0 5936.08624507 0 -691.97423200 0 268.37812903 0 13453
0.11250000 0.11250000 14621.08128896 0 153.02302606 0 6057.65685482 0 85.83277677 0 -627.70850952 0 13668
0.11350000 0.11349100 14517.82224538 0 254.45645863 0 6739.11108651 0 -370.73656743 0 -123.24538049 0 13791
0.11450000 0.11448600 14263.39018738 0 11.94022807 0 5913.16074098 0 560.47145538 0 -493.60484722 0 14205
0.11550000 0.11549300 14386.72429745 0 -175.01686960 0 5848.79852508 0 875.78420255 0 645.79603351 0 14776
0.11650000 0.11649800 14534.23721686 0 -241.34888207 0 4354.59247222 0 1066.27329189 0 -414.11423870 0 14553
0.11750000 0.11747300 14674.76268219 0 -210.61184797 0 4216.83980612 0 730.22333380 0 726.47340011 0 14568
0.11850000 0.11849100 14856.54740017 0 171.34901077 0 3809.59323658 0 -21.53710806 0 240.89192476 0 16015
0.11950000 0.11950300 14305.09308791 0 419.32377390 0 3821.77137083 0 -635.16179387 0 268.72750174 0 15270
0.12050000 0.12050700 14142.60705262 0 236.73050766 0 4329.21581360 0 -97.99493969 0 564.96782663 0 15999
0.12150000 0.12150000 13467.15315847 0 254.49084134 0 4392.54654818 0 78.49018256 0 -188.79879093 0 15670
0.12250000 0.12250700 13681.54599548 0 277.46958317 0 4796.27720829 0 -20.92531763 0 622.50119256 0 16887
0.12350000 0.12352200 13161.59068255 0 141.44492556 0 4538.47342642 0 464.55145682 0 420.21439702 0 16407
0.12450000 0.12449800 12874.32868159 0 330.58199800 0 5323.58598480 0 -276.56897798 0 1497.46686477 0 16306
0.12550000 0.12549900 12794.91571144 0 -97.14768316 0 4851.35609233 0 437.58875704 0 1581.59359362 0 17523
0.12650000 0.12650100 12955.84897916 0 -143.24059035 0 4533.36038463 0 591.08426808 0 1544.41590145 0 17154
0.12750000 0.12750600 13238.11994149 0 -197.52867205 0 3982.22771708 0 788.61072189 0 2152.36877097 0 18007
0.12850000 0.12850300 13302.44888379 0 -112.88842078 0 3585.89488533 0 247.40578473 0 1447.21265139 0 17496
0.12950000 0.12949900 13255.20038479 0 222.96965961 0 3345.20482036 0 84.48064895 0 2227.15671199 0 18405
0.13050000 0.13049000 13174.34555904 0 162.05680597 0 3554.59552754 0 -265.89148268 0 1652.87671641 0 18100
0.13150000 0.13148800 12670.80521759 0 178.92318917 0 3574.07166938 0 139.27105096 0 1505.59671213 0 19059
0.13250000 0.13249300 12810.99794701 0 186.56835123 0 3775.34362040 0 -407.16227645 0 1117.11644782 0 18957
0.13350000 0.13349100 12268.30568034 0 185.23075287 0 3306.00853034 0 19.00731695 0 604.01438548 0 19468
0.13450000 0.13450700 12268.19476837 0 248.49715851 0 3951.28327759 0 -110.32779614 0 1201.24317667 0 19953
0.13550000 0.13551000 11718.07139974 0 234.36475535 0 3920.61611803 0 -267.80138679 0 214.75330091 0 19956
0.13650000 0.13649900 11603.72115920 0 306.75256136 0 4392.72400733 0 -253.37506692 0 299.82167238 0 19723
0.13750000 0.13749600 11379.67898085 0 85.62980786 0 4118.52743637 0 -214.41169204 0 -550.88200650 0 20946
0.13850000 0.13851100 11292.72399677 0 66.85962071 0 4727.01268335 0 69.76562522 0 279.38281465 0 20955
0.13950000 0.13949800 11287.95478208 0 -43.57387454 0 4060.77557386 0 362.10650709 0 -64.20594093 0 20506
0.14050000 0.14048300 11411.62162806 0 -126.60268580 0 4016.41078607 0 674.18284298 0 464.32630552 0 21447
0.14150000 0.14148400 11309.69352810 0 67.87036149 0 3298.55524599 0 624.65953948 0 447.52868774 0 21771
0.14250000 0.14249400 11260.11587774 0 190.13638928 0 3270.22832899 0 255.67205381 0 1122.45131355 0 22470
0.14350000 0.14350900 10900.58363747 0 144.26985342 0 3087.31230892 0 367.45135489 0 1813.90980490 0 22519
0.14450000 0.14449900 10805.46553244 0 101.22480716 0 3047.37290871 0 540.77238048 0 1952.18375725 0 22218
0.14550000 0.14550500 10600.95495191 0 22.81747583 0 2401.76542555 0 314.31675767 0 1657.18010082 0 23559
0.14650000 0.14650700 10571.91819830 0 40.06273432 0 2253.44284876 0 24.91448844 0 1791.87159656 0 23044
0.14750000 0.14750500 10408.58923204 0 188.50487421 0 2669.40709910 0 -475.39975655 0 1401.88292947 0 23649
0.14850000 0.14849900 10328.05605100 0 241.87127745 0 2280.10608622 0 -536.79729550 0 648.97587967 0 23640
0.14950000 0.14949500 10150.23089033 0 94.79002742 0 2988.41210573 0 -275.77263004 0 283.36788171 0 24457
0.15050000 0.15050000 9998.04857701 0 71.48342980 0 3116.20487697 0 -276.30389837 0 -249.05393659 0 24591
0.15150000 0.15149900 10148.07919812 0 46.22422696 0 2963.46800379 0 220.08483928 0 117.40808353 0 25020
0.15250000 0.15250500 9967.34814385 0 106.64474237 0 3105.31332156 0 11.85072212 0 -212.70919331 0 25297
0.15350000 0.15350100 9787.36019978 0 225.64152895 0 3173.69055075 0 -195.10302728 0 -140.29476844 0 25452
0.15450000 0.15450400 9616.52249318 0 96.46169263 0 3579.60617666 0 186.00491842 0 381.70687033 0 26061
0.15550000 0.15549900 9412.76611405 0 65.05408476 0 3243.27672040 0 253.42054083 0 377.86598883 0 26128
0.15650000 0.15649500 9626.68202959 0 -30.06734763 0 3203.79205927 0 297.20525902 0 496.96215254 0 26331
0.15750000 0.15749700 9543.52023487 0 -102.15613496 0 2782.91440867 0 325.56323138 0 503.94184278 0 27345
0.15850000 0.15849900 9478.81419187 0 127.74618821 0 2645.02864821 0 151.54346038 0 567.59200383 0 26980
0.15950000 0.15949700 9512.63125137 0 182.33595047 0 2776.86970634 0 -138.22071461 0 832.19912590 0 27777
0.16050000 0.16050000 9268.99092801 0 47.92007097 0 2866.44221289 0 3.80611060 0 975.13027185 0 28224
0.16150000 0.16150500 9226.31200215 0 98.36283470 0 2675.83999333 0 319.65938724 0 614.16393981 0 28075
0.16250000 0.16249700 9118.82721253 0 26.17455933 0 2590.03849374 0 27.27136779 0 765.30368062 0 28590
0.16350000 0.16349900 9028.75560211 0 83.74585715 0 2651.15098893 0 -77.20293825 0 928.34760312 0 29163
0.16450000 0.16449100 9080.26312074 0 210.40000611 0 3082.95346852 0 -312.53440233 0 643.13858272 0 28996
0.16550000 0.16550500 8646.40876971 0 276.18522257 0 3287.45295785 0 -332.21129483 0 770.55314414 0 30777
0.16650000 0.16650700 8399.37454009 0 219.84305119 0 3391.88766831 0 -221.54887728 0 62.40661604 0 29211
0.16750000 0.16749900 8345.46023172 0 63.72458298 0 3838.13088633 0 -41.69524760 0 240.67010082 0 30922
0.16850000 0.16850800 8161.45727435 0 22.91618749 0 3403.38923955 0 212.77130402 0 -374.87358389 0 30867
0.16950000 0.16949900 8208.96087088 0 -26.10069195 0 3271.17108073 0 158.79155759 0 225.15684365 0 30852
0.17050000 0.17049200 8215.61558905 0 27.19217665 0 3100.44428610 0 355.05916054 0 -227.13551318 0 31257
0.17150000 0.17149500 8231.47600068 0 27.80352342 0 2684.09184386 0 383.51584455 0 -94.26308466 0 32608
0.17250000 0.17250900 8129.90281903 0 63.68776020 0 2602.32753996 0 49.41294608 0 156.87167140 0 32361
0.17350000 0.17350400 8015.85204081 0 77.78101143 0 2263.29183165 0 177.63882856 0 -16.58200491 0 32508
0.17450000 0.17449800 7987.30329987 0 30.27785855 0 2420.53173078 0 133.83081886 0 739.93811320 0 32791
0.17550000 0.17549800 7828.51063316 0 38.86166860 0 1961.26744755 0 224.97938450 0 125.99488821 0 33633
0.17650000 0.17650100 7922.47525371 0 -27.35266627 0 1980.73249820 0 416.75172533 0 926.57633897 0 33984
0.17750000 0.17750300 7905.70536392 0 -10.15640869 0 2000.45264637 0 13.65925269 0 397.27558349 0 34069
0.17850000 0.17849800 7985.87253546 0 125.18966731 0 1774.25877581 0 -84.14425294 0 626.05259382 0 34536
