### header ###
fiducial parameters:
Omega_m = 0.31
Omega_nu = 0
Omega_de = 0.69
Omega_k = 0
H_0 = 100
w_de = -1
zeff = 0
beta = 0
fgrowth = 0
b_1 = 2
gamma = 0.55
Lx = 3500 Ly = 3500 Lz = 3500
nx = 700 ny = 700 nz = 700
xoffset = 1379.75464 yoffset = 22.6059522 zoffset = 368.141391
bins = 400 dk = 0.001
kx_ny = 0.628318531 ky_ny = 0.628318531 kz_ny = 0.628318531
############################
A(data) = 3.36923898 (not used)
A(ran) = 3.36911062 (used)
Ngal = 189281
weighted Ngal = 0
Nran = 9399747
weighted Nran = 0
SN(data) = 6642.88974
SN(ran) = 134.007665
SN(data+ran) = 6776.8974
############################
13 columns: k_central k_mean P_0(k) sigma^{lin}_{P_0(k)} P^img_1(k) sigma^{lin}_{P_1(k)} P_2(k) sigma^{lin}_{P_2(k)} P^img_3(k) sigma^{lin}_{P_3(k)} P_4(k) sigma^{lin}_{P_4(k)} N_modes
### header ###
0.00050000 0 0 0 0 0 0 0 0 0 0 0 0
0.00150000 0.00179520 26519.71737502 0 -54840.31239852 0 -88228.25348372 0 104038.97655735 0 121662.66668414 0 3
0.00250000 0.00253879 40467.00844938 0 -48945.00848463 0 -27670.76179430 0 -103656.21935067 0 -123188.81538421 0 6
0.00350000 0.00331552 110565.70231350 0 -59004.05864485 0 -168918.92952143 0 53074.37202042 0 37218.84051112 0 7
0.00450000 0.00420575 151210.72447390 0 -47989.50186754 0 -119098.38194971 0 -67394.10548830 0 -48404.31263340 0 24
0.00550000 0.00557378 165817.83085471 0 23372.92297687 0 -103891.35272597 0 -137013.99238017 0 -16432.82831046 0 45
0.00650000 0.00659388 139317.63398632 0 14990.52905931 0 -7269.40339500 0 -39160.90909675 0 -14610.43373989 0 40
0.00750000 0.00754703 100504.10117798 0 10518.49190260 0 -28313.71848139 0 -18810.33728828 0 -18658.38789009 0 57
0.00850000 0.00846663 118615.91488246 0 -13310.10180968 0 -35189.48420550 0 15373.84082584 0 -46749.50604873 0 75
0.00950000 0.00948925 117074.23850666 0 -1303.69256288 0 -38596.36717209 0 -5729.66797866 0 -44017.96606432 0 112
0.01050000 0.01054430 105130.23942509 0 9443.62182396 0 -6286.92298693 0 -50128.77193491 0 -42090.75968260 0 105
0.01150000 0.01145670 94324.97353419 0 16427.61544789 0 -12207.96956894 0 -34680.39826558 0 -33921.20583447 0 144
0.01250000 0.01249090 85029.55228385 0 8435.79803086 0 28432.61611268 0 -16699.79342100 0 -28873.49119137 0 169
0.01350000 0.01339930 70484.11295808 0 3021.24204870 0 2837.54964484 0 11275.64355347 0 -13089.71972632 0 180
0.01450000 0.01448870 77403.02343832 0 2826.10352959 0 30561.46045492 0 20377.41250509 0 -3014.58733053 0 267
0.01550000 0.01550050 67172.72519722 0 -517.59954270 0 3178.35994466 0 8483.64545450 0 75.96671343 0 238
0.01650000 0.01653350 80501.46021777 0 -8368.05299990 0 18440.00222218 0 36385.78070834 0 43914.04154891 0 315
0.01750000 0.01747870 80558.02532221 0 -5616.16066910 0 -11328.32673898 0 7212.40573388 0 24698.32101218 0 297
0.01850000 0.01844180 85638.45899631 0 361.75713438 0 651.11980804 0 4110.78578090 0 47950.90450216 0 388
0.01950000 0.01947590 91917.29650067 0 921.45331510 0 6504.05534959 0 -17944.78027844 0 26282.25484836 0 399
0.02050000 0.02045430 88534.03778358 0 -1036.56441175 0 -97.94092556 0 -1447.35683696 0 21842.22688604 0 462
0.02150000 0.02154770 92962.75272501 0 2593.76513592 0 14263.50109935 0 -9989.35307860 0 9455.50049589 0 571
0.02250000 0.02255340 87864.01857594 0 4679.07653014 0 20382.07080781 0 -19617.22186626 0 5284.04586768 0 510
0.02350000 0.02348930 80241.14982540 0 5602.65159121 0 25962.82837625 0 8147.99256125 0 1659.98617365 0 555
0.02450000 0.02439640 77310.30103183 0 3275.47446514 0 32993.87085763 0 5323.44179924 0 -1840.65068074 0 592
0.02550000 0.02547300 74021.76113668 0 1802.67442239 0 24015.99057593 0 13425.67208188 0 7242.18559769 0 837
0.02650000 0.02652900 69602.80644857 0 2022.41321633 0 32681.54275157 0 8251.55106716 0 15232.98262460 0 723
0.02750000 0.02749970 67644.21197948 0 3180.67800483 0 17189.02611839 0 -5946.20141668 0 16057.94585361 0 826
0.02850000 0.02848090 63518.39762671 0 2311.77145351 0 27848.55368138 0 3599.39287202 0 9066.52112772 0 831
0.02950000 0.02946900 60534.64382370 0 3187.16635504 0 23812.35619996 0 -5609.63904529 0 7368.72506367 0 996
0.03050000 0.03053250 55426.92580511 0 1374.21039308 0 30560.79498310 0 70.88805435 0 6892.76852903 0 1041
0.03150000 0.03150510 57869.31828508 0 813.38291028 0 31374.55610319 0 4361.53556151 0 1312.58770284 0 1036
0.03250000 0.03246190 56039.82534847 0 2483.13044636 0 29874.69353988 0 -4241.73954327 0 -851.68192246 0 1059
0.03350000 0.03345080 51210.38546130 0 1797.16209751 0 31746.11120096 0 784.60679979 0 -5550.83351907 0 1302
0.03450000 0.03451200 51334.71777909 0 2641.81220110 0 41197.14194448 0 -1034.36391827 0 4094.59263336 0 1339
0.03550000 0.03553350 48640.44421643 0 -121.88781798 0 30919.70611635 0 3986.85274621 0 -1742.22739902 0 1365
0.03650000 0.03647120 49830.52964897 0 834.45618448 0 36681.47201898 0 7630.11130215 0 1339.42839945 0 1308
0.03750000 0.03744890 48060.81826392 0 562.98915709 0 24781.94863717 0 4330.97931392 0 5474.23771295 0 1579
0.03850000 0.03847530 46372.18352855 0 146.65335165 0 24409.39533168 0 6284.00600214 0 7024.77595511 0 1662
0.03950000 0.03950240 46037.22938071 0 304.78165566 0 23767.10411641 0 4283.08752550 0 12008.32802387 0 1683
0.04050000 0.04050350 45118.65644946 0 220.69485512 0 15245.18294124 0 5317.81856239 0 7442.35952021 0 1822
0.04150000 0.04152450 44848.47489180 0 216.59776696 0 20185.53479789 0 804.24154575 0 12334.18739021 0 1887
0.04250000 0.04250150 43801.68772383 0 480.46954268 0 11628.67635233 0 1501.54842524 0 5144.79588999 0 1920
0.04350000 0.04349210 44262.08330915 0 630.06317064 0 18118.57933462 0 -436.87670219 0 10991.30962851 0 2005
0.04450000 0.04448520 41644.11718149 0 1720.37774103 0 14410.68128286 0 -788.57744830 0 4777.17816714 0 2151
0.04550000 0.04548030 41323.02702984 0 1331.22091371 0 18839.83987216 0 432.67202943 0 11031.23793752 0 2274
0.04650000 0.04648670 39920.21243983 0 980.13572903 0 19504.20256936 0 -786.78067439 0 6531.14005254 0 2311
0.04750000 0.04749250 37838.39477265 0 1578.86515917 0 21278.79408107 0 829.20117536 0 10572.14002224 0 2568
0.04850000 0.04851840 37439.11168251 0 57.84292124 0 20949.05279580 0 3068.08017341 0 8590.73096103 0 2493
0.04950000 0.04949480 37345.83471618 0 -277.17566645 0 20772.70276433 0 678.80898122 0 8705.93522373 0 2644
0.05050000 0.05050630 38565.08999670 0 -334.80441668 0 20644.59943957 0 1796.56317287 0 8472.97572303 0 2829
0.05150000 0.05149060 37170.15015652 0 -7.46194657 0 19033.38125891 0 583.21839121 0 6535.49889294 0 2784
0.05250000 0.05249300 38515.62325831 0 683.53383112 0 19183.33424165 0 -67.47651308 0 6550.59401198 0 3055
0.05350000 0.05348950 37388.20308852 0 -13.93143066 0 15712.34415670 0 433.19553392 0 2741.84370637 0 3009
0.05450000 0.05448610 37934.88818610 0 706.94734788 0 20344.58256212 0 1019.00482874 0 4988.44328661 0 3336
0.05550000 0.05550870 36820.00106886 0 478.09380829 0 14542.00105472 0 904.25419599 0 3601.50019944 0 3349
0.05650000 0.05647670 35148.00312892 0 685.49808210 0 17492.81400280 0 735.63140143 0 4083.70107796 0 3324
0.05750000 0.05747970 35619.71173513 0 211.35939464 0 16807.93259124 0 2297.25307670 0 5099.99854552 0 3639
0.05850000 0.05849280 35310.71098815 0 -343.69179279 0 13107.46564144 0 3437.07320468 0 3705.73526836 0 3846
0.05950000 0.05951020 35586.32723231 0 -77.97732562 0 14066.96508943 0 -375.98159447 0 4868.11489092 0 3787
0.06050000 0.06049470 35058.05352167 0 799.08635741 0 11657.29164046 0 -1021.53140340 0 3245.99406365 0 3930
0.06150000 0.06148310 34013.59550505 0 1572.28807938 0 15176.97208001 0 -2190.45594129 0 492.55229263 0 4083
0.06250000 0.06249100 32271.94484827 0 1345.00727152 0 15470.66697520 0 -3221.23851207 0 -1449.46416438 0 4303
0.06350000 0.06350600 30220.62797270 0 1075.26270702 0 19349.92401981 0 37.58939740 0 -2767.44218893 0 4470
0.06450000 0.06451750 29747.25568695 0 814.61070578 0 18269.30870114 0 153.77279097 0 -1359.93602261 0 4479
0.06550000 0.06550280 29278.09805604 0 -248.49604939 0 15862.40805141 0 3991.48886653 0 -1619.66967274 0 4636
0.06650000 0.06648880 28946.02761941 0 -303.61042526 0 16622.93142615 0 2527.12922465 0 524.87204054 0 4653
0.06750000 0.06749660 29435.70396467 0 293.82798955 0 13008.42125269 0 2040.88005925 0 1545.09246446 0 5220
0.06850000 0.06852730 28474.65174911 0 229.68316112 0 12947.08693357 0 1118.25884111 0 1860.60374405 0 5029
0.06950000 0.06949320 28680.50436447 0 -15.70557853 0 12279.28596532 0 870.94067684 0 4919.50040638 0 5040
0.07050000 0.07048030 28155.33618897 0 -107.72923961 0 10601.90879485 0 1215.14044645 0 3784.98187055 0 5475
0.07150000 0.07148790 28834.78291402 0 -164.68652877 0 10468.61478993 0 1496.63502500 0 3513.73555798 0 5509
0.07250000 0.07249820 28529.99682188 0 248.79107522 0 10243.54113026 0 511.41841864 0 2690.85747400 0 5916
0.07350000 0.07351270 27966.67492888 0 451.72116019 0 8288.75094172 0 -549.84941607 0 1978.56971479 0 5721
0.07450000 0.07449140 27170.65972391 0 976.73073157 0 10957.65893697 0 -630.82735411 0 2592.84456657 0 6028
0.07550000 0.07549160 25922.90006723 0 673.94438224 0 9889.62103564 0 -402.80010869 0 1159.66227932 0 6183
0.07650000 0.07648840 26217.92590606 0 -263.77528230 0 10317.14231321 0 668.75259295 0 398.36917551 0 6330
0.07750000 0.07749960 25572.86189155 0 304.34133514 0 7978.33052154 0 338.69299033 0 -1694.50197855 0 6583
0.07850000 0.07848650 25185.33547018 0 627.00200028 0 8866.25847562 0 -495.82641397 0 -1821.90655790 0 6549
0.07950000 0.07947320 24542.71151900 0 288.75376695 0 8834.89257065 0 -158.20483327 0 -683.33751694 0 6828
0.08050000 0.08048110 24087.97244412 0 520.36014162 0 7421.17533404 0 969.00904025 0 -3622.75093279 0 7147
0.08150000 0.08149960 23513.55935417 0 -26.04878515 0 8128.78260814 0 870.53695727 0 -1450.80619921 0 7386
0.08250000 0.08250610 22919.29302169 0 570.44465968 0 7102.25905699 0 260.36030276 0 -1732.52260169 0 7227
0.08350000 0.08350160 22442.81520079 0 639.20120780 0 7086.30991578 0 -15.71999708 0 -1741.93902790 0 7798
0.08450000 0.08449610 21654.23109777 0 17.13700840 0 7182.89205880 0 650.18482014 0 -884.29336884 0 7371
0.08550000 0.08548940 21641.25439734 0 204.80006077 0 7211.10806384 0 312.16839283 0 -2572.17057546 0 8256
0.08650000 0.08650700 21700.81412495 0 53.45712923 0 5936.69626090 0 1177.89620710 0 822.67511508 0 8037
0.08750000 0.08749060 20904.90983195 0 23.18437263 0 5546.74086740 0 814.68058032 0 -2879.49655170 0 8155
0.08850000 0.08849210 20893.81863500 0 541.25152019 0 5373.09708798 0 469.44267467 0 2238.27009133 0 8718
0.08950000 0.08949900 20359.55567800 0 256.68468009 0 3906.28629157 0 1038.04841390 0 1456.10779135 0 8571
0.09050000 0.09049190 20172.22536155 0 -54.87757882 0 4758.12349079 0 544.66649973 0 2857.40288738 0 8932
0.09150000 0.09150830 19931.76821171 0 260.37915780 0 4441.17035560 0 227.38617423 0 2027.88117642 0 9285
0.09250000 0.09250820 19809.65413331 0 382.13609965 0 5025.79843794 0 -1080.50551582 0 2674.26504337 0 9204
0.09350000 0.09350330 19253.65243030 0 267.17473417 0 5474.16007457 0 -504.30008844 0 4015.60112869 0 9349
0.09450000 0.09448040 19338.38917498 0 329.72353936 0 6426.86061883 0 -228.45536562 0 2048.27788761 0 9564
0.09550000 0.09549270 19158.93360836 0 275.36225575 0 7001.32916476 0 -267.44646849 0 2557.24182437 0 10155
0.09650000 0.09649430 18701.64355818 0 90.38305123 0 7295.57861980 0 130.37480189 0 2173.96333143 0 9913
0.09750000 0.09749140 18769.74350745 0 -90.93539283 0 7649.77599434 0 863.49404721 0 3993.94002105 0 10476
0.09850000 0.09850240 18652.95320358 0 -46.57104869 0 6047.51950081 0 360.47942849 0 2269.71363468 0 10575
0.09950000 0.09950330 19126.76913721 0 71.58713249 0 7051.64992532 0 294.63653781 0 2251.03605902 0 10882
0.10050000 0.10051200 18292.93295064 0 481.52098815 0 6377.39388044 0 -607.95176040 0 1120.75436042 0 10875
0.10150000 0.10150300 17821.44616837 0 626.69921060 0 7145.59236347 0 -792.04566559 0 1285.05935201 0 11118
0.10250000 0.10250800 17016.22526993 0 428.28989751 0 6532.63736412 0 -229.85840203 0 330.39455677 0 11575
0.10350000 0.10349800 16859.39574508 0 238.09694313 0 7321.89803016 0 589.47382628 0 -522.35655707 0 11364
0.10450000 0.10450100 16298.18117950 0 124.06501994 0 5637.26721689 0 930.29743555 0 329.60375443 0 12093
0.10550000 0.10551000 16513.57222424 0 -303.44516643 0 5858.55877840 0 1203.03995058 0 -273.42462365 0 12067
0.10650000 0.10649700 16157.87753811 0 201.10225571 0 4679.68654597 0 166.85374865 0 626.80346785 0 12054
0.10750000 0.10749900 16193.92392819 0 477.04901754 0 5360.84131535 0 -698.62895017 0 -1297.25966865 0 12807
0.10850000 0.10850100 15466.89596824 0 404.51813510 0 5410.91806957 0 -952.09940139 0 72.66098218 0 12736
0.10950000 0.10950300 15043.87771663 0 308.38962203 0 5895.63664980 0 -60.38679817 0 -1129.82695952 0 12933
0.11050000 0.11050200 15102.55014849 0 -76.67044988 0 5899.89566943 0 356.41783217 0 -107.25642188 0 13428
0.11150000 0.11150900 15054.52526570 0 -263.59338667 0 4978.59430372 0 1293.57739127 0 -572.02071877 0 13453
0.11250000 0.11250000 15632.04389079 0 -178.40744851 0 4692.94052632 0 1315.75978516 0 151.66102707 0 13668
0.11350000 0.11349100 15393.02859656 0 5.69740369 0 4008.15893554 0 84.06406359 0 764.85005067 0 13791
0.11450000 0.11448600 15291.87688039 0 373.15888484 0 3758.96192251 0 -156.85503460 0 908.15053348 0 14205
0.11550000 0.11549300 14801.20232740 0 390.62862916 0 4924.84636331 0 -553.92543095 0 676.13600276 0 14776
0.11650000 0.11649800 14402.25197318 0 517.70934555 0 5164.21657585 0 -768.72309664 0 782.03586034 0 14553
0.11750000 0.11747300 13839.04099214 0 362.83408961 0 5847.32339589 0 -780.56294939 0 -61.28585059 0 14568
0.11850000 0.11849100 13849.46671728 0 95.32850503 0 6127.25411567 0 40.54342680 0 137.12379523 0 16015
0.11950000 0.11950300 13678.44046033 0 -83.23987674 0 6041.27515692 0 488.65595514 0 -442.39124531 0 15270
0.12050000 0.12050700 13660.02907340 0 28.37028359 0 6033.71096061 0 311.78020093 0 480.11240614 0 15999
0.12150000 0.12150000 14164.56762258 0 -380.78741011 0 5402.34457433 0 822.77937233 0 -282.30090856 0 15670
0.12250000 0.12250700 14453.16056717 0 -193.96174311 0 5117.68900465 0 341.29387601 0 -0.59105210 0 16887
0.12350000 0.12352200 14437.07833159 0 177.11532407 0 4885.93844442 0 -400.66394416 0 -469.38278221 0 16407
0.12450000 0.12449800 14055.20842067 0 431.79582487 0 4925.57838231 0 -608.33884317 0 -471.41690773 0 16306
0.12550000 0.12549900 13738.55474779 0 347.68129633 0 5626.42002627 0 -171.48875985 0 -1030.21026501 0 17523
0.12650000 0.12650100 13264.51699023 0 125.84072057 0 5228.54551815 0 442.65410668 0 -867.79743162 0 17154
0.12750000 0.12750600 13140.29558441 0 227.99286271 0 5523.75990732 0 265.44450744 0 -879.02726853 0 18007
0.12850000 0.12850300 12787.15187358 0 113.90437442 0 4592.68719711 0 301.33562077 0 -743.84332365 0 17496
0.12950000 0.12949900 12650.39741520 0 110.94524307 0 4574.10944222 0 417.78542489 0 -927.09540699 0 18405
0.13050000 0.13049000 12598.71243743 0 -40.29964229 0 4324.42441652 0 317.00304558 0 104.81214390 0 18100
0.13150000 0.13148800 12506.76641472 0 123.42283964 0 3989.63663664 0 393.10862079 0 -366.94448719 0 19059
0.13250000 0.13249300 12429.79350790 0 142.88012645 0 4260.22856858 0 25.95062806 0 -372.75516528 0 18957
0.13350000 0.13349100 12210.18780833 0 24.71240683 0 3764.39660901 0 297.96167865 0 -145.01961834 0 19468
0.13450000 0.13450700 12194.54922063 0 101.62575393 0 4067.11973852 0 38.29335567 0 518.47241990 0 19953
0.13550000 0.13551000 12136.87499650 0 222.51270229 0 3667.34863572 0 7.16521269 0 456.06890939 0 19956
0.13650000 0.13649900 11730.16080441 0 152.16345829 0 4325.66663058 0 -197.57969156 0 530.64722679 0 19723
0.13750000 0.13749600 11624.90534537 0 345.22348709 0 4523.50031054 0 -330.06514822 0 -218.46996101 0 20946
0.13850000 0.13851100 11323.22478838 0 159.45259293 0 4942.00444499 0 -137.99889067 0 841.14861272 0 20955
0.13950000 0.13949800 11181.03564350 0 16.45867080 0 4680.66257130 0 293.47972597 0 143.19733468 0 20506
0.14050000 0.14048300 11155.63680249 0 24.94510014 0 4606.52901090 0 465.29900349 0 956.69115692 0 21447
0.14150000 0.14148400 11269.98704303 0 -23.95898182 0 4194.50213547 0 253.01238478 0 232.39163142 0 21771
0.14250000 0.14249400 11167.94803110 0 71.84378279 0 4162.84785938 0 269.07576532 0 488.97427250 0 22470
0.14350000 0.14350900 11055.84930355 0 109.70657820 0 3779.71355200 0 131.36191842 0 323.91507951 0 22519
0.14450000 0.14449900 10777.27170980 0 153.03966285 0 3959.97877600 0 -104.37370888 0 109.52712263 0 22218
0.14550000 0.14550500 10559.64024328 0 265.10844417 0 3847.49185655 0 -80.75711231 0 111.62513345 0 23559
0.14650000 0.14650700 10447.75224847 0 100.71228294 0 3914.11667662 0 -94.37710216 0 -253.67120188 0 23044
0.14750000 0.14750500 10146.80371048 0 116.76590323 0 3852.36089201 0 79.58288729 0 -505.07979959 0 23649
0.14850000 0.14849900 10216.20132978 0 134.44416205 0 3797.16000480 0 -132.67400701 0 -663.83031975 0 23640
0.14950000 0.14949500 10009.50578345 0 -15.93128438 0 3875.99623271 0 62.00134371 0 -259.68263063 0 24457
0.15050000 0.15050000 10030.24632175 0 48.82888365 0 3525.27040281 0 521.96392870 0 -254.32225514 0 24591
0.15150000 0.15149900 10097.03750977 0 45.31696705 0 3415.43427943 0 317.26701606 0 198.90952607 0 25020
0.15250000 0.15250500 9817.78335301 0 115.63460114 0 3355.90782541 0 228.52302192 0 10.53944317 0 25297
0.15350000 0.15350100 9572.35734694 0 262.73492803 0 3593.63654080 0 -57.43154874 0 389.04924271 0 25452
0.15450000 0.15450400 9352.39672906 0 255.04096470 0 3488.59181450 0 -69.89672317 0 1031.23730985 0 26061
0.15550000 0.15549900 9197.76326121 0 -76.60368087 0 3716.23863187 0 552.36046306 0 964.59696211 0 26128
0.15650000 0.15649500 9337.33488360 0 -111.85804858 0 3052.08666741 0 425.72561278 0 1492.17636382 0 26331
0.15750000 0.15749700 9456.32124446 0 -17.15309064 0 2844.34854857 0 377.34248433 0 1145.82046552 0 27345
0.15850000 0.15849900 9330.43615910 0 129.74482190 0 2714.79227702 0 -158.76493872 0 1496.19137712 0 26980
0.15950000 0.15949700 9370.20919136 0 119.89916637 0 2900.75837625 0 -367.01768909 0 1310.97947928 0 27777
0.16050000 0.16050000 9159.69827328 0 177.42920494 0 3234.15975651 0 -209.20437508 0 1002.15730057 0 28224
0.16150000 0.16150500 9014.48123164 0 105.02110205 0 3310.93302179 0 -57.50497247 0 850.30550492 0 28075
0.16250000 0.16249700 8989.80331843 0 -76.06176499 0 3191.27009791 0 -13.76994284 0 211.67438464 0 28590
0.16350000 0.16349900 8989.67022406 0 22.07591841 0 3150.24376040 0 104.53541853 0 305.78208162 0 29163
0.16450000 0.16449100 8995.37109930 0 170.03470393 0 3424.25178101 0 6.82662063 0 495.08441290 0 28996
0.16550000 0.16550500 8803.52666568 0 72.85718546 0 3019.07926529 0 201.53813975 0 272.47410807 0 30777
0.16650000 0.16650700 8702.16421677 0 70.93164275 0 2942.69419191 0 155.03275094 0 174.61980475 0 29211
0.16750000 0.16749900 8479.49734684 0 161.78728988 0 3087.71159201 0 108.63261760 0 469.01344535 0 30922
0.16850000 0.16850800 8424.93974905 0 95.30410440 0 2687.33047337 0 277.18564853 0 815.09206372 0 30867
0.16950000 0.16949900 8211.70039653 0 69.89982870 0 2731.12961012 0 298.47520107 0 604.89280828 0 30852
0.17050000 0.17049200 8111.94617117 0 40.51270418 0 2249.36128828 0 219.64895524 0 889.99424408 0 31257
0.17150000 0.17149500 8042.84801419 0 42.08521408 0 2234.72090831 0 288.55856188 0 733.98879516 0 32608
0.17250000 0.17250900 8122.63808503 0 -16.18549462 0 1863.93110313 0 78.15622662 0 933.26543985 0 32361
0.17350000 0.17350400 8103.91614458 0 9.71975935 0 1760.13968209 0 -29.41108151 0 594.58464984 0 32508
0.17450000 0.17449800 8130.00263980 0 -87.77318167 0 1556.76040365 0 147.30995051 0 550.82433228 0 32791
0.17550000 0.17549800 8157.44226105 0 105.12968487 0 1814.28690559 0 -291.49772907 0 -122.63092818 0 33633
0.17650000 0.17650100 8015.29748097 0 220.11700375 0 1538.00518961 0 -246.28113735 0 140.40568041 0 33984
0.17750000 0.17750300 7791.52149134 0 140.70070625 0 1983.25019990 0 -30.56722788 0 -80.00169088 0 34069
0.17850000 0.17849800 7641.72378536 0 39.28346682 0 1870.13108223 0 186.84341291 0 59.89856368 0 34536
