### header ###
fiducial parameters:
Omega_m = 0.31
Omega_nu = 0
Omega_de = 0.69
Omega_k = 0
H_0 = 100
w_de = -1
zeff = 0
beta = 0
fgrowth = 0
b_1 = 2
gamma = 0.55
Lx = 3500 Ly = 3500 Lz = 3500
nx = 700 ny = 700 nz = 700
xoffset = 1379.75464 yoffset = 22.6059522 zoffset = 368.141391
bins = 400 dk = 0.001
kx_ny = 0.628318531 ky_ny = 0.628318531 kz_ny = 0.628318531
############################
A(data) = 3.3171875 (not used)
A(ran) = 3.31681359 (used)
Ngal = 186303
weighted Ngal = 0
Nran = 9399747
weighted Nran = 0
SN(data) = 6665.56472
SN(ran) = 131.92753
SN(data+ran) = 6797.49225
############################
13 columns: k_central k_mean P_0(k) sigma^{lin}_{P_0(k)} P^img_1(k) sigma^{lin}_{P_1(k)} P_2(k) sigma^{lin}_{P_2(k)} P^img_3(k) sigma^{lin}_{P_3(k)} P_4(k) sigma^{lin}_{P_4(k)} N_modes
### header ###
0.00050000 0 0 0 0 0 0 0 0 0 0 0 0
0.00150000 0.00179520 32741.98977494 0 -39831.15012833 0 -63970.80755023 0 70041.90693575 0 25643.18008020 0 3
0.00250000 0.00253879 45681.64560655 0 -26437.19886972 0 1764.77580242 0 -93695.32628344 0 -51453.06085053 0 6
0.00350000 0.00331552 61601.94970603 0 -6067.40601693 0 -61461.31332873 0 7882.50257990 0 32673.33526583 0 7
0.00450000 0.00420575 69690.64872840 0 -3960.77734218 0 -25241.90057461 0 -36617.58672456 0 -1831.34516650 0 24
0.00550000 0.00557378 68745.34601250 0 4299.69104733 0 -10179.23437035 0 -35642.33777690 0 -144.60924405 0 45
0.00650000 0.00659388 72925.39631835 0 3144.11032849 0 10250.30676040 0 3206.52049372 0 -21990.07254136 0 40
0.00750000 0.00754703 55967.62165633 0 4347.37210301 0 7641.73487655 0 -14252.40990240 0 -9761.01860703 0 57
0.00850000 0.00846663 60518.67250010 0 4707.27035278 0 27264.04760221 0 -7196.85587576 0 -19441.20457069 0 75
0.00950000 0.00948925 59154.89892335 0 -3056.74497013 0 24173.48557259 0 266.04343208 0 -11545.49237522 0 112
0.01050000 0.01054430 63834.94038762 0 700.69524016 0 13623.09538756 0 -1744.14617609 0 -7813.17150778 0 105
0.01150000 0.01145670 68278.40662098 0 -3986.71965184 0 18686.44861837 0 11369.91872753 0 -7657.72838255 0 144
0.01250000 0.01249090 70835.81481330 0 -3655.92470286 0 14645.48192225 0 8508.09045257 0 5605.30238728 0 169
0.01350000 0.01339930 84309.40086601 0 -6751.76614223 0 11795.70977837 0 17303.04362301 0 13272.83538794 0 180
0.01450000 0.01448870 91730.63165603 0 -4445.09663932 0 -9277.75297360 0 12651.28471096 0 8171.28407485 0 267
0.01550000 0.01550050 85280.98971867 0 -4620.83665496 0 -1129.33894686 0 1108.07934055 0 -4882.50017336 0 238
0.01650000 0.01653350 87005.89266806 0 10133.19481182 0 -4914.30972621 0 -17716.19070933 0 4427.11780906 0 315
0.01750000 0.01747870 81289.15702504 0 8320.36085303 0 22065.82541652 0 -22234.85525801 0 344.91958829 0 297
0.01850000 0.01844180 71834.57709849 0 7138.42745024 0 27858.20302273 0 -3811.56746964 0 847.79223969 0 388
0.01950000 0.01947590 63236.34848832 0 -2133.22536504 0 15026.46453742 0 13559.65374102 0 -10558.55330598 0 399
0.02050000 0.02045430 70673.32877801 0 -2360.32871375 0 15061.62363175 0 3638.91080674 0 -3998.12140230 0 462
0.02150000 0.02154770 75087.62516341 0 -4188.06924124 0 10568.42447127 0 7339.07829423 0 -10057.79685497 0 571
0.02250000 0.02255340 72117.06988476 0 2340.64183917 0 5930.74028814 0 -3111.00310560 0 -4417.20227899 0 510
0.02350000 0.02348930 71524.68905576 0 5081.85334731 0 7728.22403036 0 -11750.79043073 0 -6781.41291167 0 555
0.02450000 0.02439640 66767.78559664 0 2897.24246681 0 21579.03278246 0 -635.88715815 0 -2154.11008889 0 592
0.02550000 0.02547300 65898.67940377 0 498.42729966 0 17131.01915835 0 5012.15626569 0 2783.95698119 0 837
0.02650000 0.02652900 60508.02495103 0 3245.72787493 0 18120.02119022 0 4144.25901329 0 2376.02275743 0 723
0.02750000 0.02749970 58273.81423778 0 3852.93763425 0 20800.09802079 0 3194.55309221 0 13866.76898452 0 826
0.02850000 0.02848090 55995.23873674 0 349.93946403 0 20927.09222585 0 5256.98334712 0 12434.89545850 0 831
0.02950000 0.02946900 58668.88267307 0 -2166.34367912 0 18852.04018880 0 8307.82780048 0 14050.77194189 0 996
0.03050000 0.03053250 57575.84521383 0 -303.43962083 0 15507.04610119 0 855.58824202 0 8275.03113110 0 1041
0.03150000 0.03150510 58152.80927907 0 1006.44404819 0 9754.91844870 0 -5182.07340294 0 3438.42633071 0 1036
0.03250000 0.03246190 57064.20829861 0 1644.44740673 0 23240.05043743 0 -5370.54611268 0 1975.59727401 0 1059
0.03350000 0.03345080 53818.92407156 0 2988.30119376 0 15517.47182632 0 -8239.37293291 0 -8129.25952961 0 1302
0.03450000 0.03451200 53923.07041090 0 450.62313169 0 25990.44545665 0 3215.10508015 0 -6623.24135199 0 1339
0.03550000 0.03553350 52319.39424416 0 -1183.59708233 0 17656.07642188 0 1478.40109721 0 -12895.84560367 0 1365
0.03650000 0.03647120 54217.20895397 0 662.91085952 0 23394.88354682 0 4533.27165506 0 -4699.92798040 0 1308
0.03750000 0.03744890 52570.60985503 0 1367.97714040 0 15166.21361897 0 2649.59822135 0 -5478.69637412 0 1579
0.03850000 0.03847530 51473.69047685 0 1139.50957446 0 21708.57796282 0 848.19152278 0 1388.62894911 0 1662
0.03950000 0.03950240 49174.15261358 0 1498.62034925 0 16055.94943816 0 3816.76924100 0 3023.93720955 0 1683
0.04050000 0.04050350 47018.57848669 0 2036.99814031 0 17766.54474348 0 2795.52509960 0 7823.68596249 0 1822
0.04150000 0.04152450 44437.76786881 0 1621.73263538 0 18281.06536991 0 -132.39672709 0 13380.19817440 0 1887
0.04250000 0.04250150 41826.12372341 0 1360.67913280 0 21410.00294097 0 757.01744738 0 8096.29649228 0 1920
0.04350000 0.04349210 42452.33270311 0 332.31998856 0 19840.15492492 0 1404.58918152 0 14258.51006073 0 2005
0.04450000 0.04448520 39950.71323144 0 470.40539057 0 18346.05978402 0 1203.68324000 0 5008.62926506 0 2151
0.04550000 0.04548030 42124.47692132 0 950.73740240 0 25110.91353865 0 -2136.39744736 0 11189.02130531 0 2274
0.04650000 0.04648670 39089.81452432 0 1100.30219325 0 22602.75026078 0 -847.06576629 0 6357.44081713 0 2311
0.04750000 0.04749250 39699.49762056 0 395.13054600 0 22881.36112812 0 1910.82468383 0 6418.35367077 0 2568
0.04850000 0.04851840 39611.21169285 0 -611.43439624 0 21381.60947678 0 3887.40907437 0 6110.40658750 0 2493
0.04950000 0.04949480 40532.00286349 0 -34.26691844 0 20414.67892684 0 654.06673907 0 6225.56648542 0 2644
0.05050000 0.05050630 39276.14663305 0 240.57360741 0 20187.08756546 0 3565.09889105 0 8735.37126044 0 2829
0.05150000 0.05149060 40227.54950726 0 187.31811614 0 19422.46044785 0 1928.67041972 0 10860.21168058 0 2784
0.05250000 0.05249300 38933.98320719 0 487.26844641 0 17342.86102006 0 1017.89127256 0 8084.91692421 0 3055
0.05350000 0.05348950 38813.75463227 0 821.59815985 0 18205.86705460 0 1292.53481876 0 9494.34186760 0 3009
0.05450000 0.05448610 37556.78928213 0 669.16518548 0 17013.67429463 0 -91.21367097 0 9328.70593238 0 3336
0.05550000 0.05550870 37691.21458914 0 378.14326875 0 18418.37438813 0 495.81975925 0 9189.93287616 0 3349
0.05650000 0.05647670 35363.06143774 0 1317.24600556 0 17216.08863894 0 546.13275597 0 6163.93270397 0 3324
0.05750000 0.05747970 34169.20499824 0 1596.48907112 0 19673.45423479 0 -1953.74761602 0 5527.84146780 0 3639
0.05850000 0.05849280 32031.59861041 0 1804.09409560 0 18088.30036695 0 -1144.09023880 0 2136.75236567 0 3846
0.05950000 0.05951020 30498.79519216 0 885.95483015 0 19730.46298710 0 648.41355599 0 4304.22734688 0 3787
0.06050000 0.06049470 29064.03795494 0 100.30712152 0 20521.15441754 0 1144.12351239 0 184.20148980 0 3930
0.06150000 0.06148310 29642.99843564 0 137.11603139 0 17726.83825841 0 1905.97783076 0 684.84370148 0 4083
0.06250000 0.06249100 29214.32367359 0 28.14879238 0 16077.02271236 0 1426.76048422 0 -462.39089165 0 4303
0.06350000 0.06350600 29441.02773921 0 -281.77740407 0 14809.40981314 0 788.38335235 0 241.40101070 0 4470
0.06450000 0.06451750 29356.06917059 0 -143.45797781 0 13993.98501351 0 1724.68112545 0 -2320.82187022 0 4479
0.06550000 0.06550280 29451.89711222 0 118.61591488 0 13965.25881342 0 30.46740710 0 69.26031029 0 4636
0.06650000 0.06648880 29321.68646005 0 87.59949353 0 12679.89999909 0 1208.97374095 0 -994.63968728 0 4653
0.06750000 0.06749660 29586.10059529 0 -34.07271158 0 11721.50967079 0 580.00859881 0 -695.47128640 0 5220
0.06850000 0.06852730 29064.59251479 0 602.54591101 0 13349.91920673 0 -334.53933707 0 -437.88600111 0 5029
0.06950000 0.06949320 28642.12882303 0 800.92527786 0 12202.86761834 0 1435.23415869 0 1394.51837469 0 5040
0.07050000 0.07048030 27252.06910951 0 225.80013307 0 12231.03925859 0 1303.06036466 0 1702.28799881 0 5475
0.07150000 0.07148790 27121.41480946 0 356.51099822 0 11770.20002539 0 1381.98532214 0 4233.90915823 0 5509
0.07250000 0.07249820 26653.58812218 0 289.33050919 0 11083.22237762 0 1031.01881327 0 3447.14401151 0 5916
0.07350000 0.07351270 26330.83429099 0 385.55551567 0 10824.75312394 0 478.72489740 0 4290.98445772 0 5721
0.07450000 0.07449140 25603.91724300 0 304.80938365 0 11094.08065943 0 -519.28762288 0 3528.87504182 0 6028
0.07550000 0.07549160 24924.58142992 0 869.96908799 0 11290.61666935 0 -1244.68739512 0 3531.71438824 0 6183
0.07650000 0.07648840 24867.23994170 0 77.79620637 0 12079.75533222 0 331.95952466 0 755.76525125 0 6330
0.07750000 0.07749960 24589.51637012 0 -79.98616321 0 11294.83132419 0 465.68497715 0 1297.11548309 0 6583
0.07850000 0.07848650 24655.84172787 0 -45.57871930 0 10980.47352909 0 882.95022489 0 -1372.50234875 0 6549
0.07950000 0.07947320 24513.31984708 0 587.25115042 0 10237.40769835 0 -932.02433491 0 141.61462087 0 6828
0.08050000 0.08048110 23332.55101998 0 649.09122812 0 10463.60156891 0 587.66263382 0 -1162.16888983 0 7147
0.08150000 0.08149960 22793.29702435 0 322.64070098 0 11192.57048833 0 1661.03983736 0 1122.44022236 0 7386
0.08250000 0.08250610 22616.50334500 0 -48.77808597 0 8669.86665126 0 1582.79144289 0 -261.32745513 0 7227
0.08350000 0.08350160 22041.86843111 0 207.26119737 0 8546.24417007 0 742.40812276 0 438.96628370 0 7798
0.08450000 0.08449610 21831.02477713 0 493.70910447 0 7444.85503952 0 71.80873461 0 769.41185997 0 7371
0.08550000 0.08548940 21418.09951474 0 -65.04510089 0 6532.53754335 0 -381.54161150 0 -466.31828449 0 8256
0.08650000 0.08650700 21243.52407478 0 270.59415019 0 6860.41550754 0 168.56955682 0 -822.57529431 0 8037
0.08750000 0.08749060 21096.01115537 0 487.88511696 0 7475.16728078 0 -1057.52455574 0 -2811.78479433 0 8155
0.08850000 0.08849210 20654.80334077 0 283.06620115 0 7066.85595633 0 47.54895952 0 -2629.64515804 0 8718
0.08950000 0.08949900 20229.12320189 0 444.29005823 0 7822.77648434 0 161.48450021 0 -2785.67611671 0 8571
0.09050000 0.09049190 19646.16989030 0 -13.00575937 0 6386.41102356 0 231.58862876 0 -2230.91662776 0 8932
0.09150000 0.09150830 20037.57823060 0 48.45211569 0 7706.40764596 0 1655.39441811 0 -2403.06309559 0 9285
0.09250000 0.09250820 19125.88184145 0 422.35056155 0 5783.00554479 0 -428.99862500 0 -1264.85119117 0 9204
0.09350000 0.09350330 18811.89005585 0 485.80884489 0 6787.19142528 0 827.81699398 0 34.46400901 0 9349
0.09450000 0.09448040 18280.51081006 0 320.16625495 0 5735.83468417 0 213.84825924 0 -530.58511609 0 9564
0.09550000 0.09549270 17714.30520585 0 372.82060334 0 6752.85307953 0 605.38414831 0 -78.05540764 0 10155
0.09650000 0.09649430 17389.44404724 0 378.81650441 0 6315.42736309 0 131.66248985 0 379.15922239 0 9913
0.09750000 0.09749140 16831.77866468 0 184.54420778 0 6062.45934310 0 194.53959447 0 1193.04678213 0 10476
0.09850000 0.09850240 16670.84539696 0 168.24125739 0 5333.77879479 0 656.59996845 0 784.13986040 0 10575
0.09950000 0.09950330 16177.17622080 0 203.09201644 0 5717.95567469 0 -209.36741567 0 314.18144507 0 10882
0.10050000 0.10051200 16137.13699982 0 363.65594730 0 6104.69462107 0 -459.48943453 0 355.39522381 0 10875
0.10150000 0.10150300 15689.16355508 0 195.29823234 0 6278.33840050 0 -420.93310658 0 234.31595409 0 11118
0.10250000 0.10250800 15598.77029995 0 -4.11626483 0 6288.80849041 0 -166.28587937 0 256.57376812 0 11575
0.10350000 0.10349800 15902.89092027 0 -171.45992274 0 6509.41239771 0 281.68978361 0 -2182.51464427 0 11364
0.10450000 0.10450100 16084.23199037 0 9.34723932 0 6584.28906831 0 -479.06317890 0 -1149.99075558 0 12093
0.10550000 0.10551000 16136.47152800 0 140.86818332 0 6449.08737751 0 -24.52430013 0 -1538.28246954 0 12067
0.10650000 0.10649700 15995.16967888 0 -266.00683113 0 5959.30012028 0 296.32572711 0 -1547.37725103 0 12054
0.10750000 0.10749900 16262.13478942 0 -44.57330230 0 5994.65885615 0 286.29373947 0 -3092.51408029 0 12807
0.10850000 0.10850100 16551.17138189 0 72.12561011 0 5456.38088586 0 273.94369166 0 -2976.28942746 0 12736
0.10950000 0.10950300 15819.15238331 0 181.92335794 0 5538.87720876 0 -278.41788051 0 -3191.31446270 0 12933
0.11050000 0.11050200 15681.62154115 0 322.26360029 0 5184.74638140 0 -84.92108038 0 -3417.61924523 0 13428
0.11150000 0.11150900 15599.65759571 0 22.72053877 0 4855.39328802 0 1039.97384569 0 -2274.21666064 0 13453
0.11250000 0.11250000 15200.37450557 0 47.32835562 0 3893.45377670 0 583.31044814 0 -3505.32843070 0 13668
0.11350000 0.11349100 15360.53138950 0 210.10165291 0 3992.38725348 0 276.88840445 0 -2083.58116750 0 13791
0.11450000 0.11448600 14713.47095954 0 237.46363578 0 3858.74942145 0 -11.67769944 0 -2979.65006014 0 14205
0.11550000 0.11549300 14393.04627971 0 295.02694794 0 3636.95875608 0 -258.51361847 0 -1390.99137406 0 14776
0.11650000 0.11649800 14343.69045329 0 61.36082708 0 4114.23514316 0 -202.75040757 0 -2498.24774780 0 14553
0.11750000 0.11747300 14224.68191003 0 155.89675518 0 3931.24148471 0 184.98785566 0 -2279.88426228 0 14568
0.11850000 0.11849100 14239.76593788 0 172.92617898 0 4464.78351390 0 -184.10610550 0 -2081.92857915 0 16015
0.11950000 0.11950300 13534.47672395 0 317.02411885 0 4657.19359856 0 -374.58299453 0 -2319.77929771 0 15270
0.12050000 0.12050700 13588.26902915 0 238.41415136 0 4937.80088135 0 -155.02831446 0 -1845.78590493 0 15999
0.12150000 0.12150000 13575.51415265 0 24.22095590 0 5021.77233344 0 718.60197763 0 -1601.14737384 0 15670
0.12250000 0.12250700 13558.54462132 0 -257.41669909 0 4202.28815573 0 929.59647190 0 -1176.26580115 0 16887
0.12350000 0.12352200 13492.21926357 0 4.76341399 0 4146.57707346 0 338.04526443 0 -771.37722007 0 16407
0.12450000 0.12449800 13737.00198022 0 168.80801755 0 3567.26167446 0 69.93787151 0 -257.81154570 0 16306
0.12550000 0.12549900 13417.68642008 0 49.48581525 0 4203.78546732 0 103.04054701 0 -208.56108565 0 17523
0.12650000 0.12650100 13245.55104345 0 288.62289082 0 3743.80025628 0 -208.92931339 0 -557.82509579 0 17154
0.12750000 0.12750600 13078.62852937 0 116.39878461 0 4410.09282175 0 -118.85770298 0 -165.48509495 0 18007
0.12850000 0.12850300 12934.99752890 0 41.08512086 0 3959.04711546 0 15.02446812 0 -673.12917927 0 17496
0.12950000 0.12949900 13012.19225965 0 137.25799871 0 4692.75197597 0 173.98206093 0 -253.26193671 0 18405
0.13050000 0.13049000 12882.64707930 0 185.27289942 0 3984.10212936 0 -119.37566187 0 -864.31257754 0 18100
0.13150000 0.13148800 12475.71106327 0 186.57611506 0 4461.55597559 0 100.62310972 0 -26.97301459 0 19059
0.13250000 0.13249300 12340.73119641 0 1.34407561 0 4200.55792900 0 300.55590962 0 -512.00625208 0 18957
0.13350000 0.13349100 12433.56451487 0 -10.75656445 0 4154.47400568 0 791.65414633 0 353.93673141 0 19468
0.13450000 0.13450700 12226.04821996 0 -51.36322216 0 3386.04260752 0 520.25810261 0 273.39467741 0 19953
0.13550000 0.13551000 12359.69714319 0 70.26073625 0 3202.20601810 0 88.93875556 0 544.07866630 0 19956
0.13650000 0.13649900 12153.06814405 0 158.17266880 0 2797.11114077 0 161.28707690 0 789.51243620 0 19723
0.13750000 0.13749600 12029.73403398 0 115.45048727 0 3057.65444828 0 93.65561980 0 1023.91268339 0 20946
0.13850000 0.13851100 11902.18526908 0 54.12348834 0 2660.73378309 0 15.32958695 0 672.89515501 0 20955
0.13950000 0.13949800 11932.79697265 0 100.53160735 0 2846.51133197 0 206.04116571 0 947.06621621 0 20506
0.14050000 0.14048300 11607.15943025 0 112.96827740 0 2756.15135044 0 -150.68278350 0 392.02057437 0 21447
0.14150000 0.14148400 11573.44219153 0 183.08682450 0 2920.94435469 0 -243.79116364 0 440.26839022 0 21771
0.14250000 0.14249400 11437.13138104 0 46.77379577 0 2783.00313825 0 -215.62617811 0 -171.22811673 0 22470
0.14350000 0.14350900 11419.60728986 0 47.04896837 0 2937.81406525 0 237.94277549 0 -268.27609002 0 22519
0.14450000 0.14449900 11187.80127364 0 128.36174964 0 2542.57926200 0 -205.10617780 0 -1167.71448830 0 22218
0.14550000 0.14550500 11019.07089447 0 228.64835245 0 2547.37065908 0 -114.46115251 0 -1063.42507252 0 23559
0.14650000 0.14650700 10824.38711444 0 104.39589128 0 2785.57629594 0 -17.63722139 0 -1754.50535404 0 23044
0.14750000 0.14750500 10724.24469719 0 42.25524213 0 2277.03382467 0 310.05884717 0 -1524.06355505 0 23649
0.14850000 0.14849900 10491.26301410 0 88.46028132 0 2086.84197940 0 98.25225546 0 -2155.33012055 0 23640
0.14950000 0.14949500 10501.89947197 0 196.54710112 0 2067.78730304 0 -151.15970497 0 -1597.69801159 0 24457
0.15050000 0.15050000 10095.78420451 0 259.63161112 0 2137.65075262 0 15.63293119 0 -1803.80572448 0 24591
0.15150000 0.15149900 9880.95881082 0 234.79509380 0 2514.62944569 0 -2.59136944 0 -1348.98901122 0 25020
0.15250000 0.15250500 9520.70564275 0 172.70435504 0 2210.43118699 0 46.20415189 0 -1206.87750472 0 25297
0.15350000 0.15350100 9425.41007857 0 135.06415996 0 2451.09906957 0 413.13266777 0 -1056.38659893 0 25452
0.15450000 0.15450400 9145.11334929 0 157.41181269 0 2290.62054093 0 -15.85874796 0 -441.79675716 0 26061
0.15550000 0.15549900 9035.18849634 0 128.86418086 0 2528.84836018 0 -107.75219838 0 -727.76774279 0 26128
0.15650000 0.15649500 8933.71513546 0 87.55424145 0 2314.69952950 0 73.35207466 0 -441.04033753 0 26331
0.15750000 0.15749700 8879.94501266 0 66.02678273 0 2523.64658881 0 -42.32056928 0 -440.20849776 0 27345
0.15850000 0.15849900 8689.90844414 0 69.20441065 0 2523.55785924 0 -230.46398139 0 -836.51692887 0 26980
0.15950000 0.15949700 8834.94802664 0 50.90149563 0 2514.67381048 0 224.25180198 0 -653.39904902 0 27777
0.16050000 0.16050000 8649.02629219 0 3.43386785 0 2377.52006902 0 53.17252911 0 -526.50799209 0 28224
0.16150000 0.16150500 8743.31255745 0 -3.56732822 0 2156.11759554 0 271.77203530 0 -646.14873357 0 28075
0.16250000 0.16249700 8776.78578984 0 13.31065637 0 2381.85672702 0 141.51812746 0 -426.94675356 0 28590
0.16350000 0.16349900 8455.34071989 0 172.43151159 0 2249.40565307 0 -101.70782878 0 51.60212654 0 29163
0.16450000 0.16449100 8762.82197288 0 91.43571673 0 2358.27684231 0 163.19809014 0 -210.05174252 0 28996
0.16550000 0.16550500 8295.61639264 0 72.97730312 0 2608.23914793 0 -124.75932887 0 165.79675758 0 30777
0.16650000 0.16650700 8399.88473515 0 113.59160266 0 2498.38084216 0 247.70857440 0 178.91764357 0 29211
0.16750000 0.16749900 8407.61529942 0 -18.37833517 0 2620.05127268 0 -63.90437128 0 490.91855932 0 30922
0.16850000 0.16850800 8306.01993537 0 -2.69041383 0 2177.45705847 0 378.31740054 0 778.57540689 0 30867
0.16950000 0.16949900 8372.71130262 0 7.42621074 0 2510.65879718 0 229.58001299 0 791.40903088 0 30852
0.17050000 0.17049200 8336.80909810 0 78.69803159 0 1993.08809160 0 -95.02604809 0 433.45506793 0 31257
0.17150000 0.17149500 8223.36833571 0 144.66248180 0 2365.17556681 0 99.16406276 0 726.10517237 0 32608
0.17250000 0.17250900 7924.03911248 0 179.58977011 0 2500.45489599 0 -266.14879845 0 712.88890209 0 32361
0.17350000 0.17350400 7808.50211387 0 172.82746733 0 2306.03730469 0 0.75396959 0 638.64221148 0 32508
0.17450000 0.17449800 7728.39039831 0 56.13321323 0 2737.20758605 0 107.98112069 0 439.21139915 0 32791
0.17550000 0.17549800 7735.58858513 0 -42.85660683 0 1981.29814924 0 106.02962459 0 221.62318830 0 33633
0.17650000 0.17650100 7603.80298299 0 -10.47221943 0 1892.24692894 0 418.70599423 0 718.40788169 0 33984
0.17750000 0.17750300 7759.17956104 0 -20.02548883 0 1719.35735091 0 172.66997233 0 324.63822555 0 34069
0.17850000 0.17849800 7736.43151610 0 47.21622362 0 1380.16636584 0 107.83837698 0 305.37725293 0 34536
