### header ###
fiducial parameters:
Omega_m = 0.31
Omega_nu = 0
Omega_de = 0.69
Omega_k = 0
H_0 = 100
w_de = -1
zeff = 0
beta = 0
fgrowth = 0
b_1 = 2
gamma = 0.55
Lx = 3500 Ly = 3500 Lz = 3500
nx = 700 ny = 700 nz = 700
xoffset = 1379.75464 yoffset = 22.6059522 zoffset = 368.141391
bins = 400 dk = 0.001
kx_ny = 0.628318531 ky_ny = 0.628318531 kz_ny = 0.628318531
############################
A(data) = 3.33395192 (not used)
A(ran) = 3.33670367 (used)
Ngal = 187374
weighted Ngal = 0
Nran = 9399747
weighted Nran = 0
SN(data) = 6643.35473
SN(ran) = 132.718666
SN(data+ran) = 6776.07339
############################
13 columns: k_central k_mean P_0(k) sigma^{lin}_{P_0(k)} P^img_1(k) sigma^{lin}_{P_1(k)} P_2(k) sigma^{lin}_{P_2(k)} P^img_3(k) sigma^{lin}_{P_3(k)} P_4(k) sigma^{lin}_{P_4(k)} N_modes
### header ###
0.00050000 0 0 0 0 0 0 0 0 0 0 0 0
0.00150000 0.00179520 19274.72570450 0 -23000.03693547 0 -11495.36016502 0 -11164.62067202 0 51172.23174380 0 3
0.00250000 0.00253879 42332.10412819 0 -26280.48025684 0 -32904.91945811 0 -6758.11030688 0 -11070.19022120 0 6
0.00350000 0.00331552 53797.18532554 0 -14334.81749573 0 -16632.35894355 0 -46922.86145703 0 1628.35407995 0 7
0.00450000 0.00420575 66940.47553312 0 -1827.58525073 0 -19434.99350040 0 -49601.71825593 0 -12406.28017037 0 24
0.00550000 0.00557378 58113.65735385 0 4694.17164918 0 9479.23565736 0 -34157.33741750 0 -2213.90273164 0 45
0.00650000 0.00659388 56166.81955352 0 12256.10536369 0 20038.13279045 0 -20191.41313227 0 -38199.41323331 0 40
0.00750000 0.00754703 61087.31816763 0 -8984.02480482 0 17750.79524381 0 -404.40500489 0 -11899.41246984 0 57
0.00850000 0.00846663 71117.53121579 0 -9196.85378306 0 30544.71274753 0 16916.07176149 0 -44646.83693128 0 75
0.00950000 0.00948925 79748.36794499 0 1402.72586044 0 9416.64803298 0 557.15518750 0 10871.39160710 0 112
0.01050000 0.01054430 77219.02048095 0 -3210.67969257 0 13658.03265795 0 7814.66881937 0 -22590.10629626 0 105
0.01150000 0.01145670 85498.70991476 0 1378.76887503 0 15222.00233962 0 5912.36217480 0 -8651.75472664 0 144
0.01250000 0.01249090 71230.21777678 0 6295.16374627 0 15246.18114897 0 -5019.64282363 0 -7680.84243699 0 169
0.01350000 0.01339930 70291.01521921 0 8417.98556857 0 32407.25745104 0 -11098.07349033 0 26621.09091512 0 180
0.01450000 0.01448870 66491.39296869 0 -2626.88345000 0 16498.48819639 0 9960.18323062 0 6871.59543406 0 267
0.01550000 0.01550050 73320.24292971 0 -6986.27841050 0 12369.45739651 0 24736.36381771 0 -12448.42671878 0 238
0.01650000 0.01653350 86231.72712107 0 -13142.84655970 0 -8124.32394697 0 18465.73379910 0 7525.32167338 0 315
0.01750000 0.01747870 86689.46081912 0 -3453.56581454 0 6944.66423955 0 -3005.55909621 0 -6022.08738620 0 297
0.01850000 0.01844180 99077.88416241 0 3972.63383172 0 -8831.70939713 0 -23594.19235598 0 -5389.17932355 0 388
0.01950000 0.01947590 89373.75230453 0 5869.83852570 0 7865.57741336 0 -30145.87330527 0 -36672.93179733 0 399
0.02050000 0.02045430 86537.40050896 0 4397.82595792 0 19204.62933979 0 -11380.89901251 0 -27004.73541756 0 462
0.02150000 0.02154770 86570.11953996 0 -1416.16839114 0 30721.39551491 0 5291.82079674 0 -35979.62107610 0 571
0.02250000 0.02255340 89058.09683939 0 -160.24228615 0 28778.55054549 0 149.56257261 0 -34703.46795523 0 510
0.02350000 0.02348930 86866.25449848 0 3224.45495918 0 17295.05796121 0 7127.31407090 0 -31821.42042824 0 555
0.02450000 0.02439640 78063.17148068 0 7166.90964400 0 27417.21703207 0 -10864.47070021 0 -32829.94296674 0 592
0.02550000 0.02547300 71051.76041789 0 5776.27318824 0 23775.42251412 0 1211.30289231 0 -6399.77591588 0 837
0.02650000 0.02652900 65511.70754225 0 2437.61217408 0 30639.65339340 0 8482.59179079 0 -13082.95409618 0 723
0.02750000 0.02749970 67113.94185339 0 -1825.21173459 0 17170.28199554 0 8597.66295913 0 -1308.29540962 0 826
0.02850000 0.02848090 61474.62276507 0 1330.69962745 0 17498.13777733 0 6606.91511009 0 -10802.09380857 0 831
0.02950000 0.02946900 62457.74646256 0 1702.74273789 0 16229.30484646 0 721.84393450 0 -375.90950169 0 996
0.03050000 0.03053250 59396.13245697 0 3093.40137604 0 17995.46704849 0 -6556.67198791 0 -2657.48406238 0 1041
0.03150000 0.03150510 54849.18535608 0 3015.69645022 0 23092.31569408 0 -5411.47262942 0 -9262.22529787 0 1036
0.03250000 0.03246190 52334.70009594 0 2368.81347941 0 25084.73831386 0 -1655.27241495 0 -7251.51329432 0 1059
0.03350000 0.03345080 51134.74349812 0 1459.25769128 0 28443.15274978 0 139.34979846 0 -11872.68268519 0 1302
0.03450000 0.03451200 50656.93473359 0 -411.00648531 0 26635.73129510 0 5495.24443997 0 -4888.76669964 0 1339
0.03550000 0.03553350 50129.77014264 0 35.42594852 0 25222.38006798 0 2952.29916847 0 -8579.67303768 0 1365
0.03650000 0.03647120 49055.58771820 0 1533.86817315 0 22231.08425105 0 1852.90645337 0 -5466.41841910 0 1308
0.03750000 0.03744890 48516.77737046 0 1228.54970356 0 22056.17607517 0 2800.29431429 0 -3780.42338860 0 1579
0.03850000 0.03847530 46842.67210309 0 -373.60142360 0 21650.12735490 0 5410.08622980 0 2999.22602275 0 1662
0.03950000 0.03950240 45168.78865967 0 4.27662136 0 13670.45479853 0 5050.62053671 0 1777.64159088 0 1683
0.04050000 0.04050350 47341.55414182 0 192.87591493 0 14940.84049698 0 3948.61029913 0 6799.64683946 0 1822
0.04150000 0.04152450 43538.04997237 0 1018.90722620 0 11203.77259725 0 -566.17898533 0 1468.85157664 0 1887
0.04250000 0.04250150 43766.97227738 0 2708.83630426 0 13691.63898470 0 -4509.94686787 0 1017.49198947 0 1920
0.04350000 0.04349210 40333.69226206 0 2094.62799966 0 17046.83697351 0 -3690.42941657 0 2840.78827435 0 2005
0.04450000 0.04448520 37839.61480431 0 1461.23192434 0 17935.24184906 0 -652.77572375 0 -1220.60840655 0 2151
0.04550000 0.04548030 37382.99022595 0 -1034.34506324 0 16692.80596692 0 6516.85459087 0 3621.17598282 0 2274
0.04650000 0.04648670 40084.25124269 0 -2188.53716422 0 9937.79010399 0 7960.87297754 0 2930.27205133 0 2311
0.04750000 0.04749250 40816.49206521 0 -1008.91516687 0 7644.82932050 0 6190.31866151 0 5863.17271633 0 2568
0.04850000 0.04851840 39975.00295275 0 740.42058027 0 5772.11398938 0 2219.61469807 0 11785.72770112 0 2493
0.04950000 0.04949480 38942.52342884 0 1442.96472296 0 2077.91356586 0 -829.85001038 0 8689.43152268 0 2644
0.05050000 0.05050630 37307.79191064 0 971.03096546 0 4414.82876285 0 -2264.96660239 0 9701.11505231 0 2829
0.05150000 0.05149060 36779.18546409 0 564.60070801 0 3457.24809193 0 -600.91106858 0 3319.51760822 0 2784
0.05250000 0.05249300 35471.31151996 0 563.75555880 0 5830.96388039 0 -2647.45762034 0 3974.96298308 0 3055
0.05350000 0.05348950 34488.74238232 0 1432.90500733 0 4315.50709417 0 -4204.37330075 0 -4021.24654794 0 3009
0.05450000 0.05448610 34292.20637239 0 535.97654692 0 8957.60557369 0 -2533.77285162 0 -3684.09634311 0 3336
0.05550000 0.05550870 33592.57366890 0 1107.26413757 0 10072.32632297 0 -1692.64974866 0 -7895.24636520 0 3349
0.05650000 0.05647670 31673.13112504 0 1565.33389889 0 12013.20815053 0 -2188.54825541 0 -9407.39797473 0 3324
0.05750000 0.05747970 30940.00300676 0 241.29675345 0 11452.88088070 0 2263.69111474 0 -5585.97043100 0 3639
0.05850000 0.05849280 30699.21312102 0 -1052.43924194 0 11057.46861830 0 4543.69738019 0 -6012.47131845 0 3846
0.05950000 0.05951020 31697.53175833 0 333.51118311 0 8788.17644911 0 1920.24111004 0 -1966.61340448 0 3787
0.06050000 0.06049470 30807.35229126 0 1028.28816058 0 8865.95901330 0 571.81664074 0 880.49463389 0 3930
0.06150000 0.06148310 29695.23797326 0 668.28232620 0 10055.73389233 0 -425.24647307 0 1526.18197367 0 4083
0.06250000 0.06249100 28487.29571363 0 988.96321268 0 9907.95478420 0 -696.92866968 0 1093.17609921 0 4303
0.06350000 0.06350600 28297.52533385 0 507.40007799 0 12870.77949856 0 612.49360555 0 3592.03940844 0 4470
0.06450000 0.06451750 27114.76009129 0 -164.28280920 0 10937.59496169 0 -564.66170959 0 2574.84355392 0 4479
0.06550000 0.06550280 28437.27441540 0 -266.21201827 0 12394.74532555 0 1544.26062469 0 1926.40781554 0 4636
0.06650000 0.06648880 28534.21147672 0 -39.49142677 0 12688.44022074 0 -628.06564607 0 2288.22484239 0 4653
0.06750000 0.06749660 28022.57456150 0 176.49088968 0 11095.30069109 0 1500.28402879 0 1747.69535912 0 5220
0.06850000 0.06852730 28806.94400968 0 101.81130965 0 12078.75712449 0 -1500.00674887 0 2291.69638703 0 5029
0.06950000 0.06949320 27772.91171820 0 1000.80306543 0 13871.09455133 0 -1558.16898566 0 -1478.72274192 0 5040
0.07050000 0.07048030 27121.52572143 0 978.41215703 0 14122.19925023 0 -193.25079739 0 1131.96756054 0 5475
0.07150000 0.07148790 25909.59063090 0 479.86729068 0 14246.42065605 0 -357.19643420 0 -397.18907215 0 5509
0.07250000 0.07249820 25597.26252483 0 37.98746046 0 13800.44362676 0 1765.31927107 0 -652.34205795 0 5916
0.07350000 0.07351270 25662.25693895 0 -391.86640674 0 11569.78209654 0 2764.95776081 0 -352.79655637 0 5721
0.07450000 0.07449140 26222.47329680 0 -696.42512934 0 9777.82177040 0 2807.86960181 0 1002.15397321 0 6028
0.07550000 0.07549160 25865.66949098 0 -158.82483118 0 7503.74929532 0 1522.67715543 0 1275.48764905 0 6183
0.07650000 0.07648840 26176.77756538 0 339.47381059 0 6441.96682907 0 706.78541641 0 981.77833530 0 6330
0.07750000 0.07749960 25650.38935822 0 180.67781653 0 3824.67726443 0 188.45829119 0 -300.27308410 0 6583
0.07850000 0.07848650 24800.02728820 0 629.67941522 0 6247.62687615 0 212.92879901 0 362.25956560 0 6549
0.07950000 0.07947320 24486.47915047 0 634.51850445 0 4680.74020968 0 -705.71400678 0 772.50852216 0 6828
0.08050000 0.08048110 23115.27447176 0 665.60602038 0 6526.43738503 0 -512.83143713 0 -976.55992714 0 7147
0.08150000 0.08149960 22817.03218582 0 500.56900979 0 5721.54922250 0 -33.87451190 0 493.56270067 0 7386
0.08250000 0.08250610 22318.26105906 0 191.15677940 0 7185.33212213 0 610.79221594 0 1720.34446744 0 7227
0.08350000 0.08350160 21942.82404236 0 -285.90887493 0 6147.86155960 0 1052.90507221 0 1958.11754762 0 7798
0.08450000 0.08449610 22327.57766450 0 223.07391686 0 5916.26627612 0 1138.16753963 0 2294.92392534 0 7371
0.08550000 0.08548940 22231.41698696 0 272.29997628 0 5262.37366884 0 162.20764625 0 2024.52054375 0 8256
0.08650000 0.08650700 21680.84997045 0 365.39282874 0 6774.62509914 0 -651.20853762 0 2070.49355510 0 8037
0.08750000 0.08749060 21346.00673458 0 796.60082017 0 7057.81663082 0 -1841.42706453 0 2353.78490755 0 8155
0.08850000 0.08849210 19981.67859798 0 782.12237168 0 8000.21345312 0 -997.84282496 0 1559.36683494 0 8718
0.08950000 0.08949900 19589.93752177 0 235.64357036 0 9203.99651389 0 -93.99345766 0 214.61798831 0 8571
0.09050000 0.09049190 19935.98286655 0 -233.69262882 0 8512.73766409 0 941.59936524 0 174.69411577 0 8932
0.09150000 0.09150830 19203.40930812 0 334.87318210 0 8435.54293333 0 2.42978179 0 -1007.77055535 0 9285
0.09250000 0.09250820 19255.42702181 0 531.09863851 0 8477.24583386 0 -396.59791135 0 -325.54437635 0 9204
0.09350000 0.09350330 18599.49363429 0 110.94413395 0 7919.05916505 0 508.62343701 0 -416.37795199 0 9349
0.09450000 0.09448040 18634.98546453 0 -13.59558922 0 8442.85203212 0 540.06808948 0 -541.09957079 0 9564
0.09550000 0.09549270 18542.70670592 0 -105.05526293 0 6895.86297298 0 755.24396499 0 -774.80550905 0 10155
0.09650000 0.09649430 18770.96353911 0 221.52447665 0 7305.92670655 0 390.31696652 0 -749.91131750 0 9913
0.09750000 0.09749140 18008.33283695 0 363.44077808 0 6550.15036411 0 -606.32468181 0 -668.89012379 0 10476
0.09850000 0.09850240 17768.65207090 0 330.63856310 0 6731.05887753 0 527.38863313 0 -787.49272924 0 10575
0.09950000 0.09950330 17540.50614968 0 214.31187127 0 7017.06757323 0 -240.37618410 0 -1309.20488777 0 10882
0.10050000 0.10051200 16869.04508643 0 241.39768334 0 6423.85490446 0 148.33366799 0 -1931.87577564 0 10875
0.10150000 0.10150300 17185.80967127 0 77.24730303 0 6764.83157224 0 339.25531401 0 -1776.49919759 0 11118
0.10250000 0.10250800 16937.92141948 0 -296.97788949 0 5716.09235360 0 662.92416895 0 -958.50345850 0 11575
0.10350000 0.10349800 17159.30171056 0 -166.89478608 0 5445.66678961 0 798.92220769 0 -2540.19465466 0 11364
0.10450000 0.10450100 17474.95717571 0 -38.81663834 0 4168.87037932 0 368.95753944 0 -1615.90975698 0 12093
0.10550000 0.10551000 17405.85901872 0 -26.72967373 0 4022.06729652 0 535.67486637 0 -1540.91108321 0 12067
0.10650000 0.10649700 17034.85848081 0 194.42424602 0 3893.28740875 0 92.26966383 0 -714.96406504 0 12054
0.10750000 0.10749900 16895.88578304 0 323.01003784 0 4030.34132944 0 169.83395327 0 -1144.34533633 0 12807
0.10850000 0.10850100 16589.87965924 0 303.95092501 0 4341.95959890 0 342.12238842 0 4.77284151 0 12736
0.10950000 0.10950300 16266.01670835 0 162.99290299 0 3441.77587218 0 80.18369743 0 490.67677123 0 12933
0.11050000 0.11050200 15889.91421984 0 293.29561210 0 4655.08627114 0 375.70209630 0 820.87168645 0 13428
0.11150000 0.11150900 15573.37145894 0 270.41780015 0 4243.71377633 0 270.33239794 0 2472.79345080 0 13453
0.11250000 0.11250000 15226.32790643 0 108.72633821 0 4512.40911360 0 159.48697564 0 1351.99472559 0 13668
0.11350000 0.11349100 15468.00508793 0 250.65883279 0 4923.94797636 0 -474.87625206 0 1909.34955464 0 13791
0.11450000 0.11448600 14726.44765997 0 485.48165458 0 5463.71216704 0 -1121.29782907 0 666.44340575 0 14205
0.11550000 0.11549300 14186.08454465 0 698.57793066 0 6457.89378789 0 -991.68388330 0 900.09499714 0 14776
0.11650000 0.11649800 13818.63318976 0 219.46595049 0 6611.97269590 0 -15.44715364 0 141.68116806 0 14553
0.11750000 0.11747300 13511.85068217 0 -30.88177422 0 6958.39514138 0 861.87362333 0 341.14858133 0 14568
0.11850000 0.11849100 13653.70709114 0 -122.57879955 0 5872.16767705 0 907.80448813 0 646.45928708 0 16015
0.11950000 0.11950300 13473.47514073 0 -54.44579852 0 5286.98503487 0 1046.14942415 0 591.92830817 0 15270
0.12050000 0.12050700 13807.76381675 0 -117.60217948 0 4483.73836949 0 630.37039679 0 1081.80984058 0 15999
0.12150000 0.12150000 13614.22243000 0 61.16373651 0 3846.75983755 0 408.45883737 0 1238.24340969 0 15670
0.12250000 0.12250700 13775.04478575 0 -91.67040646 0 3750.51043044 0 110.09854110 0 1525.70505220 0 16887
0.12350000 0.12352200 13718.70150526 0 28.31504943 0 3257.75073242 0 -40.09689521 0 367.13747402 0 16407
0.12450000 0.12449800 13670.34388656 0 202.51527420 0 3866.10288503 0 7.85942180 0 771.66337295 0 16306
0.12550000 0.12549900 13748.98047293 0 52.60576895 0 3771.18442155 0 -317.38458275 0 768.11308081 0 17523
0.12650000 0.12650100 13595.36739519 0 -185.87071494 0 3039.25415254 0 701.58475416 0 1043.93340300 0 17154
0.12750000 0.12750600 13734.22918098 0 -39.43929814 0 3361.86379817 0 732.60683202 0 1440.97939871 0 18007
0.12850000 0.12850300 13692.08263258 0 156.79846950 0 2625.68560073 0 357.95729031 0 1551.01516363 0 17496
0.12950000 0.12949900 13576.84509629 0 254.33778282 0 2893.28290950 0 365.59579765 0 2438.34419308 0 18405
0.13050000 0.13049000 12945.53416600 0 391.80651427 0 3001.02279666 0 -397.01494036 0 2264.73368725 0 18100
0.13150000 0.13148800 12550.90937858 0 512.42771756 0 3364.68096220 0 -332.53626690 0 3305.48724408 0 19059
0.13250000 0.13249300 12114.47077867 0 127.98797630 0 3434.82169170 0 72.06483035 0 2254.61851563 0 18957
0.13350000 0.13349100 11750.67951876 0 177.18852597 0 3570.93286065 0 -66.99448966 0 2007.12954693 0 19468
0.13450000 0.13450700 11749.45948710 0 92.37192466 0 3068.02471742 0 260.15733386 0 2079.43305984 0 19953
0.13550000 0.13551000 11496.24746077 0 209.97854062 0 3494.75852001 0 -213.50110477 0 1259.83797015 0 19956
0.13650000 0.13649900 11468.85220431 0 -73.99403314 0 2912.45958903 0 -44.26474520 0 1188.49939138 0 19723
0.13750000 0.13749600 11383.33907584 0 -24.09706723 0 2994.06861617 0 229.95600457 0 16.58555409 0 20946
0.13850000 0.13851100 11495.58198895 0 99.27763662 0 2431.80038688 0 -146.07660941 0 509.27449027 0 20955
0.13950000 0.13949800 11233.05335719 0 122.59876371 0 2965.09840974 0 -78.97264963 0 -128.81537960 0 20506
0.14050000 0.14048300 11140.44186267 0 257.26918617 0 2940.94178279 0 -294.26498271 0 -128.45602481 0 21447
0.14150000 0.14148400 10784.49207901 0 208.54777622 0 3273.63332645 0 -208.46348312 0 -845.22240935 0 21771
0.14250000 0.14249400 10634.39491071 0 166.59421464 0 3414.49152769 0 -185.73762057 0 -207.88119528 0 22470
0.14350000 0.14350900 10459.03199576 0 64.21769759 0 3395.19284500 0 321.26761080 0 -232.95950070 0 22519
0.14450000 0.14449900 10529.18381646 0 8.16106908 0 3423.78595073 0 557.83951435 0 682.84395867 0 22218
0.14550000 0.14550500 10188.25151347 0 164.43364948 0 3382.32705654 0 81.91481144 0 537.81546738 0 23559
0.14650000 0.14650700 10476.54499575 0 59.95601608 0 3020.05529062 0 492.42807123 0 959.91647700 0 23044
0.14750000 0.14750500 10078.12701897 0 -27.85398837 0 3328.25747142 0 241.70601861 0 1483.83578372 0 23649
0.14850000 0.14849900 10190.66939441 0 115.45714199 0 2644.39644999 0 0.66238070 0 1206.86641353 0 23640
0.14950000 0.14949500 10120.01846985 0 53.73740377 0 3114.97375411 0 230.41850748 0 1554.37579631 0 24457
0.15050000 0.15050000 10039.92893668 0 31.54857698 0 2538.25369519 0 52.58525024 0 1232.67562883 0 24591
0.15150000 0.15149900 10149.21050021 0 -34.82036917 0 2425.91096130 0 341.29942161 0 1365.65908023 0 25020
0.15250000 0.15250500 9966.57176007 0 -25.81021351 0 1878.57148311 0 323.92949807 0 691.65813289 0 25297
0.15350000 0.15350100 9927.76366194 0 204.20335437 0 1994.94032149 0 -363.16460727 0 838.84829847 0 25452
0.15450000 0.15450400 9703.47747726 0 179.27921659 0 1845.18698029 0 -83.18930089 0 375.46363557 0 26061
0.15550000 0.15549900 9429.83546615 0 197.20480910 0 2249.02855237 0 -265.64193075 0 146.77202746 0 26128
0.15650000 0.15649500 9251.67756957 0 131.98191632 0 1866.82590554 0 -23.65064655 0 4.19026530 0 26331
0.15750000 0.15749700 9162.78162603 0 55.48082902 0 2420.58718677 0 272.94770218 0 71.11819669 0 27345
0.15850000 0.15849900 9120.06942658 0 17.96784997 0 2213.73636368 0 80.83364157 0 564.76374860 0 26980
0.15950000 0.15949700 9041.32192825 0 17.35384131 0 1985.70135443 0 160.33101572 0 198.26401841 0 27777
0.16050000 0.16050000 9241.61785394 0 41.97474576 0 2167.88535550 0 67.16085762 0 622.22834911 0 28224
0.16150000 0.16150500 9001.87054071 0 114.09181565 0 1983.25019990 0 -111.31236169 0 684.01297083 0 28075
0.16250000 0.16249700 8993.45232222 0 68.41660293 0 2421.77394484 0 81.32498159 0 1057.93936650 0 28590
0.16350000 0.16349900 8878.73607219 0 40.31406084 0 1898.65764078 0 164.22291673 0 875.97497113 0 29163
0.16450000 0.16449100 8883.51637807 0 73.14333834 0 2165.80021047 0 170.24765492 0 1013.80638473 0 28996
0.16550000 0.16550500 8748.71397036 0 79.77398861 0 1886.44623294 0 288.78149494 0 1404.99955581 0 30777
0.16650000 0.16650700 8517.16305168 0 111.93790520 0 2008.79322647 0 210.78043416 0 1158.00969097 0 29211
0.16750000 0.16749900 8668.84626114 0 16.02367406 0 1634.11041117 0 -23.23239751 0 1483.60286858 0 30922
0.16850000 0.16850800 8475.17178003 0 59.16099908 0 1578.85406797 0 48.40464537 0 800.50603062 0 30867
0.16950000 0.16949900 8344.18474407 0 154.43715367 0 1787.41293539 0 -307.72082285 0 885.86388233 0 30852
0.17050000 0.17049200 8332.22843376 0 35.46033123 0 1715.97453584 0 -189.21471082 0 532.10128271 0 31257
0.17150000 0.17149500 8317.23313549 0 -30.49557875 0 1730.75910138 0 79.42694506 0 315.45804184 0 32608
0.17250000 0.17250900 8336.92001007 0 92.04406888 0 1956.66460082 0 -197.55418180 0 8.67953817 0 32361
0.17350000 0.17350400 8256.29809945 0 129.07047713 0 1896.66122533 0 -244.77051633 0 -58.61364851 0 32508
0.17450000 0.17449800 8178.41571448 0 135.13514362 0 2413.68846227 0 -221.40025524 0 -114.63528430 0 32791
0.17550000 0.17549800 8050.53421367 0 158.02071940 0 2452.39673962 0 -222.93084042 0 -410.27113895 0 33633
0.17650000 0.17650100 7921.13321888 0 112.54126631 0 2838.52567017 0 -115.08004130 0 -78.38925267 0 33984
0.17750000 0.17750300 7811.49673704 0 23.85161904 0 2668.57525933 0 199.60494412 0 -321.85766248 0 34069
0.17850000 0.17849800 7934.76429992 0 -5.24732291 0 2640.68089901 0 233.05710323 0 61.38345313 0 34536
