### header ###
fiducial parameters:
Omega_m = 0.31
Omega_nu = 0
Omega_de = 0.69
Omega_k = 0
H_0 = 100
w_de = -1
zeff = 0
beta = 0
fgrowth = 0
b_1 = 2
gamma = 0.55
Lx = 3500 Ly = 3500 Lz = 3500
nx = 700 ny = 700 nz = 700
xoffset = 1379.75464 yoffset = 22.6059522 zoffset = 368.141391
bins = 400 dk = 0.001
kx_ny = 0.628318531 ky_ny = 0.628318531 kz_ny = 0.628318531
############################
A(data) = 3.33728908 (not used)
A(ran) = 3.34515256 (used)
Ngal = 188437
weighted Ngal = 0
Nran = 9399747
weighted Nran = 0
SN(data) = 6604.38165
SN(ran) = 133.054724
SN(data+ran) = 6737.43637
############################
13 columns: k_central k_mean P_0(k) sigma^{lin}_{P_0(k)} P^img_1(k) sigma^{lin}_{P_1(k)} P_2(k) sigma^{lin}_{P_2(k)} P^img_3(k) sigma^{lin}_{P_3(k)} P_4(k) sigma^{lin}_{P_4(k)} N_modes
### header ###
0.00050000 0 0 0 0 0 0 0 0 0 0 0 0
0.00150000 0.00179520 26631.51664026 0 -41851.41165245 0 -54417.95961873 0 57124.10076213 0 25411.04132807 0 3
0.00250000 0.00253879 27980.76074901 0 -33140.60739326 0 -11193.01413621 0 -64890.71142512 0 -52292.44263557 0 6
0.00350000 0.00331552 52881.82884140 0 -7509.66090329 0 -47712.44376777 0 -13308.77086605 0 -47250.05176700 0 7
0.00450000 0.00420575 73638.89301803 0 -7214.70161165 0 -40409.44513722 0 -39124.41905879 0 -699.13470875 0 24
0.00550000 0.00557378 61790.38914218 0 2341.19639901 0 -19832.72382296 0 -29028.76794864 0 6590.52232100 0 45
0.00650000 0.00659388 76202.29045670 0 -1313.78555211 0 -14077.94537441 0 -6531.21769092 0 -5302.94526728 0 40
0.00750000 0.00754703 65197.49393271 0 -8394.58314300 0 -24386.88020187 0 -4211.47166680 0 -43558.01412688 0 57
0.00850000 0.00846663 78857.30118217 0 508.41492251 0 1413.85033097 0 -20617.86965493 0 -18122.12851764 0 75
0.00950000 0.00948925 81871.55577679 0 3540.54298101 0 -97.02567999 0 -20722.23781821 0 -12054.46740318 0 112
0.01050000 0.01054430 68797.91828604 0 1201.40954463 0 18728.81699071 0 -12585.95756093 0 -26029.15373400 0 105
0.01150000 0.01145670 82879.41284347 0 -543.99437320 0 16668.18350970 0 13490.44467206 0 -9447.72556683 0 144
0.01250000 0.01249090 75936.32355388 0 -2902.53296776 0 14580.82024404 0 9004.65443114 0 -7964.13378944 0 169
0.01350000 0.01339930 85619.93669741 0 482.93511576 0 40410.55425691 0 7756.01856991 0 14997.29468945 0 180
0.01450000 0.01448870 79629.69213764 0 478.76704395 0 9829.08528270 0 8038.57790336 0 10627.89546930 0 267
0.01550000 0.01550050 88877.31032913 0 811.78466879 0 28256.15516923 0 -11998.56777056 0 3045.21012530 0 238
0.01650000 0.01653350 77041.89406568 0 7117.04362252 0 24299.92521780 0 -7293.20510365 0 9380.22454220 0 315
0.01750000 0.01747870 76655.58767598 0 7535.76958091 0 49644.19754024 0 -3689.95249510 0 1868.57831465 0 297
0.01850000 0.01844180 66999.14796498 0 5901.14897468 0 49762.31878774 0 -5152.38226871 0 11804.25000002 0 388
0.01950000 0.01947590 60063.48977734 0 3469.71459730 0 49597.72542503 0 14869.63501257 0 6121.39796368 0 399
0.02050000 0.02045430 61420.05407608 0 56.05635123 0 53273.56991761 0 12135.32222893 0 17772.31216589 0 462
0.02150000 0.02154770 59514.91917628 0 -37.54048522 0 47868.60782080 0 7227.17920822 0 12027.29397065 0 571
0.02250000 0.02255340 59473.43809970 0 3704.43759831 0 43175.25692019 0 1763.92178025 0 20568.51382851 0 510
0.02350000 0.02348930 54759.34666080 0 2732.60473932 0 46524.24383871 0 -157.01031136 0 6859.25093186 0 555
0.02450000 0.02439640 52037.56692970 0 2252.18954350 0 45316.74522696 0 -842.31540663 0 5439.47790171 0 592
0.02550000 0.02547300 54517.55856732 0 -1065.70098613 0 45896.37117947 0 1419.87285092 0 1599.74988302 0 837
0.02650000 0.02652900 56333.96389153 0 -739.21163980 0 48313.80846631 0 7963.05794334 0 -6682.12451659 0 723
0.02750000 0.02749970 53676.73492668 0 1389.62715684 0 38962.59849532 0 -469.66449861 0 -4738.48098099 0 826
0.02850000 0.02848090 56538.26373932 0 -725.72252608 0 38378.20332812 0 9599.76369460 0 -4778.02109811 0 831
0.02950000 0.02946900 55404.85432318 0 -1204.81454209 0 28159.21810790 0 8714.60853975 0 1651.57904636 0 996
0.03050000 0.03053250 59126.17272325 0 -1504.17703892 0 28684.60810734 0 6102.48747288 0 8235.71283792 0 1041
0.03150000 0.03150510 58345.79610597 0 -1141.60581068 0 18716.94940997 0 7450.01244611 0 -1260.84726907 0 1036
0.03250000 0.03246190 57025.05637338 0 2209.15569934 0 27241.19973650 0 -175.69121438 0 17996.46525622 0 1059
0.03350000 0.03345080 54625.03226575 0 2660.88905985 0 16397.33648022 0 -657.72128847 0 3326.88216300 0 1302
0.03450000 0.03451200 54103.85692116 0 1088.61650814 0 29202.34518088 0 1280.68942041 0 19126.54731327 0 1339
0.03550000 0.03553350 52039.23060924 0 382.14164525 0 21570.49256081 0 2942.56109755 0 4711.82883473 0 1365
0.03650000 0.03647120 52830.80933544 0 2096.25840561 0 30378.67752921 0 884.87787492 0 17945.00210238 0 1308
0.03750000 0.03744890 47838.43976510 0 3133.27422907 0 25583.39852865 0 -3696.45193651 0 11619.80339477 0 1579
0.03850000 0.03847530 45875.51972921 0 2933.44413365 0 35351.30476898 0 -613.67038155 0 11938.67530704 0 1662
0.03950000 0.03950240 44412.36902780 0 962.54619979 0 38291.58107995 0 2749.11953157 0 16294.29926057 0 1683
0.04050000 0.04050350 41885.35071512 0 -243.59706769 0 34225.21554283 0 3642.45998977 0 12030.28859383 0 1822
0.04150000 0.04152450 44670.35026881 0 363.87555300 0 33010.72947699 0 6214.89675395 0 19517.29018176 0 1887
0.04250000 0.04250150 43799.35857247 0 -1825.44464972 0 26004.19854086 0 8484.39965589 0 16138.57885542 0 1920
0.04350000 0.04349210 46638.48316728 0 -1353.76931711 0 27894.13850084 0 5738.03074116 0 23074.34795502 0 2005
0.04450000 0.04448520 45552.76589801 0 1060.62121793 0 19454.62491900 0 61.29816182 0 15188.06327696 0 2151
0.04550000 0.04548030 44245.77924964 0 2421.92922160 0 24706.19576201 0 -4372.83749120 0 14466.13726760 0 2274
0.04650000 0.04648670 42452.22179114 0 2065.42487809 0 25378.76594495 0 -4950.96613213 0 7992.92653672 0 2311
0.04750000 0.04749250 40489.30175524 0 919.71310630 0 27885.93101510 0 -664.30280474 0 3560.90641861 0 2568
0.04850000 0.04851840 38518.83970542 0 215.96556874 0 25277.28149288 0 3096.72873513 0 898.13629176 0 2493
0.04950000 0.04949480 39832.59198394 0 -672.38495995 0 20668.33460104 0 4038.08298491 0 -2722.70030044 0 2644
0.05050000 0.05050630 40105.65725280 0 -879.55188215 0 20023.04876260 0 4145.95596643 0 -1742.01666628 0 2829
0.05150000 0.05149060 38777.15368235 0 1508.13659623 0 15028.23912893 0 -1014.31103419 0 -5368.53860603 0 2784
0.05250000 0.05249300 37546.58538094 0 1438.63915615 0 18945.42806711 0 -33.30420255 0 2881.11586645 0 3055
0.05350000 0.05348950 36007.12724453 0 366.48198428 0 14440.40569068 0 1603.40997802 0 -4095.57974989 0 3009
0.05450000 0.05448610 37387.09396882 0 -174.76842679 0 16744.93459258 0 2212.06159294 0 32.56552883 0 3336
0.05550000 0.05550870 35405.54072206 0 975.26447533 0 13788.68695800 0 -318.20644044 0 -57.87076014 0 3349
0.05650000 0.05647670 34447.48312967 0 914.94056425 0 15468.67055975 0 554.04854323 0 417.71665946 0 3324
0.05750000 0.05747970 33969.78527711 0 437.41795260 0 15368.73887524 0 1189.37559594 0 1629.99557710 0 3639
0.05850000 0.05849280 33558.52369427 0 -120.08438936 0 13972.35717946 0 2334.59713683 0 341.93161984 0 3846
0.05950000 0.05951020 33501.40402998 0 -573.67996183 0 13700.06829438 0 2330.30484361 0 6294.27645051 0 3787
0.06050000 0.06049470 34526.78518785 0 -208.48566551 0 9933.22053084 0 3026.57691443 0 -825.03975827 0 3930
0.06150000 0.06148310 33692.83808931 0 -194.50410264 0 8112.28999828 0 1988.26342092 0 5142.10072913 0 4083
0.06250000 0.06249100 33080.04945792 0 661.75182944 0 5740.62608125 0 201.12665634 0 2736.79721176 0 4303
0.06350000 0.06350600 32949.83880575 0 497.37807242 0 6321.46097423 0 162.96628412 0 4304.95936588 0 4470
0.06450000 0.06451750 31938.87620392 0 490.81319295 0 4969.93207891 0 724.79973849 0 1353.31457803 0 4479
0.06550000 0.06550280 30405.29640189 0 309.63516344 0 5945.80213359 0 -609.45905407 0 760.55110273 0 4636
0.06650000 0.06648880 30025.20108247 0 1039.78529534 0 6100.03631836 0 -1743.03705640 0 133.57904869 0 4653
0.06750000 0.06749660 29535.52473721 0 681.94002612 0 6219.43305350 0 -620.74545608 0 -600.94988777 0 5220
0.06850000 0.06852730 28634.25407320 0 -252.07961512 0 7346.13229549 0 1602.55595585 0 1273.73523993 0 5029
0.06950000 0.06949320 29387.90090583 0 95.49243292 0 5759.11510656 0 2325.03652506 0 1344.88526835 0 5040
0.07050000 0.07048030 29648.43312214 0 -138.08540201 0 5940.58927103 0 1870.29745018 0 2395.76508800 0 5475
0.07150000 0.07148790 28134.48473871 0 818.03012180 0 6338.28632000 0 -1807.48800186 0 2740.80113386 0 5509
0.07250000 0.07249820 27896.46765220 0 931.89678615 0 8173.64649980 0 -1657.09137125 0 4766.02042301 0 5916
0.07350000 0.07351270 26598.24304941 0 261.98072664 0 9297.93895204 0 -311.57834115 0 3228.99125873 0 5721
0.07450000 0.07449140 27191.73299811 0 295.86211507 0 9753.68732584 0 -315.80630542 0 1364.45013977 0 6028
0.07550000 0.07549160 26551.32728632 0 334.51826380 0 11039.65615600 0 -499.89910149 0 1926.59636589 0 6183
0.07650000 0.07648840 26981.11116806 0 311.11916559 0 9125.73702823 0 -42.19867703 0 203.43917090 0 6330
0.07750000 0.07749960 25866.88952264 0 578.00885600 0 11395.31756854 0 -727.74001480 0 191.67584742 0 6583
0.07850000 0.07848650 25590.49689470 0 769.48728011 0 11657.62437637 0 -1291.73625257 0 -456.77763688 0 6549
0.07950000 0.07947320 24434.79417269 0 569.36326798 0 12517.85761167 0 1113.75581515 0 1554.17615476 0 6828
0.08050000 0.08048110 23805.03600997 0 265.92031979 0 12644.85181673 0 1168.10268019 0 737.82080371 0 7147
0.08150000 0.08149960 23579.10832813 0 279.34843194 0 11327.21761928 0 1027.41195602 0 2219.60360687 0 7386
0.08250000 0.08250610 23038.63430085 0 189.72601500 0 10683.91710509 0 1646.56582534 0 2991.55091447 0 7227
0.08350000 0.08350160 23022.55206527 0 9.59714617 0 10201.93805050 0 1214.88534892 0 3725.12268062 0 7798
0.08450000 0.08449610 22667.52285096 0 436.36539801 0 8447.01123098 0 1209.39520643 0 5366.57546417 0 7371
0.08550000 0.08548940 22046.08308595 0 247.07970354 0 8399.92909993 0 1693.73668596 0 4289.76442606 0 8256
0.08650000 0.08650700 21240.64036357 0 446.79334138 0 6756.71281607 0 370.15427959 0 4980.84581670 0 8037
0.08750000 0.08749060 20450.61440495 0 566.09136488 0 6765.46377046 0 662.51823115 0 3616.58422729 0 8155
0.08850000 0.08849210 20066.08260675 0 386.98738920 0 6418.25385000 0 95.57406413 0 4927.51934178 0 8718
0.08950000 0.08949900 19225.92443793 0 -19.06698759 0 6048.46225255 0 763.94057252 0 5144.61843084 0 8571
0.09050000 0.09049190 19445.30831356 0 -64.51061611 0 4508.19445876 0 654.42720297 0 2400.76721782 0 8932
0.09150000 0.09150830 19480.91105577 0 -36.43347286 0 4427.56145694 0 -270.45661934 0 2717.45416428 0 9285
0.09250000 0.09250820 19155.16260140 0 338.04637355 0 4063.26000198 0 -122.00649379 0 1107.94291883 0 9204
0.09350000 0.09350330 19056.45094856 0 490.36178124 0 4990.93880593 0 -1326.81770852 0 1910.53631271 0 9349
0.09450000 0.09448040 18836.29068914 0 134.71478725 0 5376.13607594 0 89.73488168 0 77.90734016 0 9564
0.09550000 0.09549270 18361.80928369 0 248.87093184 0 6882.47589827 0 -361.45989030 0 779.91300524 0 10155
0.09650000 0.09649430 18022.19683314 0 377.39904944 0 6136.57072110 0 -159.14093029 0 -276.63663428 0 9913
0.09750000 0.09749140 17727.17099431 0 241.57070601 0 7646.48190885 0 -97.40921358 0 975.03710580 0 10476
0.09850000 0.09850240 17385.45121634 0 488.70586553 0 7376.30035119 0 -87.15518018 0 594.26411425 0 10575
0.09950000 0.09950330 17127.58088729 0 305.41496300 0 7050.94008871 0 229.95267721 0 635.23721401 0 10882
0.10050000 0.10051200 16678.72014680 0 279.90410090 0 7269.80267809 0 90.50205977 0 1462.78469191 0 10875
0.10150000 0.10150300 15843.55301660 0 344.01121926 0 6816.45000283 0 197.66842113 0 -312.11626420 0 11118
0.10250000 0.10250800 15869.83915336 0 205.88810719 0 6784.47408203 0 939.39332616 0 1831.77772318 0 11575
0.10350000 0.10349800 15436.06244072 0 -205.55093480 0 5571.04167991 0 917.43830180 0 -373.50271195 0 11364
0.10450000 0.10450100 15559.17472684 0 136.15220638 0 5264.74718499 0 435.02225406 0 1139.65376002 0 12093
0.10550000 0.10551000 15386.48479036 0 36.61803037 0 4454.82361904 0 434.38118288 0 314.92455527 0 12067
0.10650000 0.10649700 15346.77830529 0 14.59734613 0 4775.86940590 0 -270.28470579 0 886.56484598 0 12054
0.10750000 0.10749900 15387.48299809 0 171.49319633 0 4087.44990253 0 15.12007424 0 -539.39041735 0 12807
0.10850000 0.10850100 14924.98008535 0 305.97395933 0 5387.23836408 0 -531.83398486 0 235.43616498 0 12736
0.10950000 0.10950300 14697.16690003 0 274.70454777 0 5119.06431307 0 -679.69405874 0 321.28202936 0 12933
0.11050000 0.11050200 14591.46779311 0 186.14134014 0 6347.71383741 0 115.03567651 0 -392.99659971 0 13428
0.11150000 0.11150900 14693.72862897 0 -193.05337408 0 5689.71748726 0 245.91734610 0 -267.57512638 0 13453
0.11250000 0.11250000 14704.37617805 0 78.04476009 0 6530.59658389 0 -247.98252697 0 -1111.69285251 0 13668
0.11350000 0.11349100 14902.24313160 0 -17.73637669 0 5791.09102736 0 130.41583932 0 117.51566815 0 13791
0.11450000 0.11448600 14970.34308086 0 -85.72108841 0 6223.47024919 0 260.82280567 0 -386.42950199 0 14205
0.11550000 0.11549300 14895.92114934 0 -3.27804762 0 5524.31446717 0 736.75715792 0 72.45158038 0 14776
0.11650000 0.11649800 14823.93928115 0 257.10281822 0 5650.54337964 0 102.98653288 0 24.02774724 0 14553
0.11750000 0.11747300 14537.01001610 0 363.75687719 0 5147.94578993 0 415.00929829 0 821.06023680 0 14568
0.11850000 0.11849100 13961.15507054 0 151.18410560 0 5581.28994589 0 530.75148404 0 1266.28195558 0 16015
0.11950000 0.11950300 13979.78828142 0 62.17614097 0 5166.20190010 0 -96.74862189 0 1422.41273502 0 15270
0.12050000 0.12050700 13835.49180912 0 113.67811400 0 5545.50974454 0 24.20953196 0 628.82206570 0 15999
0.12150000 0.12150000 13516.73080883 0 181.48192830 0 5547.82780470 0 -477.08340025 0 823.55464700 0 15670
0.12250000 0.12250700 13629.30645785 0 -34.45003410 0 5114.20636881 0 13.97280083 0 1079.80233393 0 16887
0.12350000 0.12352200 13875.08738223 0 -182.54557409 0 5145.78300652 0 476.38576396 0 -0.24558461 0 16407
0.12450000 0.12449800 14182.75718557 0 -44.08573328 0 4658.53563339 0 149.76997799 0 -23.76621682 0 16306
0.12550000 0.12549900 13983.78111232 0 148.74736963 0 4926.80950517 0 -184.94238175 0 -700.13513472 0 17523
0.12650000 0.12650100 13872.86914284 0 152.91987792 0 5175.21904322 0 -558.59371574 0 -440.48355944 0 17154
0.12750000 0.12750600 13695.18816773 0 254.63946338 0 4869.04655147 0 5.20773843 0 -1141.09561562 0 18007
0.12850000 0.12850300 13371.76886472 0 181.07266314 0 5501.82151976 0 63.39839088 0 -563.25867318 0 17496
0.12950000 0.12949900 13130.53533109 0 110.40221807 0 5137.52006480 0 590.27571982 0 -685.55242897 0 18405
0.13050000 0.13049000 12887.97085383 0 272.48630838 0 4734.85415959 0 228.11486587 0 -1034.50588559 0 18100
0.13150000 0.13148800 12663.70685154 0 206.07000282 0 4771.94312218 0 146.61675070 0 54.72086021 0 19059
0.13250000 0.13249300 12225.16092421 0 138.37044577 0 4400.07747090 0 514.07476031 0 66.67240130 0 18957
0.13350000 0.13349100 12137.98411620 0 47.59820444 0 3879.55650693 0 804.16058001 0 106.70008744 0 19468
0.13450000 0.13450700 11962.52138047 0 6.73724777 0 3355.30890078 0 430.26967617 0 335.85918951 0 19953
0.13550000 0.13551000 11800.70081700 0 153.54874879 0 3118.19020122 0 639.25999115 0 839.32965642 0 19956
0.13650000 0.13649900 11569.67118457 0 98.40453760 0 2192.14180323 0 512.48650091 0 1094.98507343 0 19723
0.13750000 0.13749600 11331.65409806 0 153.34356165 0 2450.94379282 0 236.95344072 0 963.90930790 0 20946
0.13850000 0.13851100 11191.12863273 0 148.08189781 0 1853.61628997 0 240.12108657 0 2039.19419731 0 20955
0.13950000 0.13949800 10794.17469395 0 106.51752634 0 2013.31843483 0 361.64844065 0 1306.90901000 0 20506
0.14050000 0.14048300 10827.28191684 0 183.46725256 0 1624.05069554 0 -88.66491391 0 1680.89307990 0 21447
0.14150000 0.14148400 10639.01993984 0 219.90405277 0 2159.79987292 0 -525.30903370 0 1188.54375617 0 21771
0.14250000 0.14249400 10431.64783050 0 224.28840293 0 2461.84643942 0 -381.95087667 0 1486.61967415 0 22470
0.14350000 0.14350900 10303.89942405 0 93.28007187 0 2852.95531740 0 -355.85550849 0 1148.72635912 0 22519
0.14450000 0.14449900 10040.47240533 0 153.55983999 0 3406.33949794 0 -361.36339689 0 1021.93734121 0 22218
0.14550000 0.14550500 10238.41699727 0 21.52923331 0 3592.61615068 0 -38.96226576 0 1018.67874755 0 23559
0.14650000 0.14650700 10391.08732326 0 -101.34359387 0 3827.12841895 0 202.24464899 0 774.33856966 0 23044
0.14750000 0.14750500 10326.50328343 0 -9.86032918 0 3292.29981091 0 313.69343241 0 1429.96584014 0 23649
0.14850000 0.14849900 10438.75728774 0 44.21705305 0 3894.26343408 0 91.35297640 0 1141.80545223 0 23640
0.14950000 0.14949500 10350.43808644 0 109.51614235 0 3416.34375758 0 9.75353205 0 1445.42696869 0 24457
0.15050000 0.15050000 10204.17847229 0 80.68457588 0 3427.85642001 0 470.37544433 0 1486.49767099 0 24591
0.15150000 0.15149900 9998.21494496 0 271.73432523 0 3443.10681582 0 -283.68952642 0 1363.71812077 0 25020
0.15250000 0.15250500 9731.19437843 0 199.87889668 0 3530.94909565 0 -171.41223060 0 1050.23653022 0 25297
0.15350000 0.15350100 9484.27106077 0 133.21969390 0 3708.89625949 0 86.42415939 0 1213.28821656 0 25452
0.15450000 0.15450400 9332.33275378 0 117.72418265 0 3686.95787192 0 -11.58431156 0 1075.76292000 0 26061
0.15550000 0.15549900 9335.41610653 0 16.56004434 0 3374.00865883 0 222.73008976 0 699.46855378 0 26128
0.15650000 0.15649500 9225.97926624 0 -24.45542380 0 3397.28908123 0 155.92670142 0 790.60491910 0 26331
0.15750000 0.15749700 9254.51691599 0 49.76376064 0 3138.03235256 0 -0.07018376 0 452.38441377 0 27345
0.15850000 0.15849900 9079.07636266 0 214.39505525 0 2991.09617539 0 63.33750020 0 498.78443620 0 26980
0.15950000 0.15949700 8741.77088107 0 181.89784819 0 3157.46412961 0 -220.80798532 0 321.83658921 0 27777
0.16050000 0.16050000 8760.38190955 0 132.10170125 0 3163.85265906 0 210.35785956 0 700.57323700 0 28224
0.16150000 0.16150500 8539.27889839 0 110.64766626 0 2926.20158205 0 320.60990282 0 379.76480175 0 28075
0.16250000 0.16249700 8518.99309917 0 -36.56645631 0 2967.54956427 0 158.43663929 0 545.66138010 0 28590
0.16350000 0.16349900 8342.15505503 0 21.55485397 0 2518.10099034 0 449.21344056 0 993.39969146 0 29163
0.16450000 0.16449100 8490.64399977 0 -74.77607344 0 2354.65002091 0 189.96003925 0 908.17826147 0 28996
0.16550000 0.16550500 8506.83714732 0 -36.91937819 0 1883.68452490 0 344.07776645 0 1043.12041826 0 30777
0.16650000 0.16650700 8653.87314526 0 -36.52774803 0 1412.54156973 0 377.08295032 0 798.02382074 0 29211
0.16750000 0.16749900 8529.47428029 0 19.65936841 0 1513.88183625 0 -10.13837440 0 648.63427081 0 30922
0.16850000 0.16850800 8545.86706938 0 111.21475916 0 1298.51297391 0 -248.05018327 0 461.39822952 0 30867
0.16950000 0.16949900 8286.74343508 0 222.26536860 0 1618.57164424 0 -294.56888151 0 31.75021494 0 30852
0.17050000 0.17049200 8187.63249915 0 216.81182706 0 1817.62535587 0 -425.39287687 0 -256.11902905 0 31257
0.17150000 0.17149500 7935.90669321 0 93.64319766 0 1916.60319744 0 -105.43391640 0 -623.57814778 0 32608
0.17250000 0.17250900 7836.00828230 0 55.16728088 0 2111.78608134 0 157.25875417 0 -281.17071560 0 32361
0.17350000 0.17350400 7829.81939440 0 51.77858748 0 1739.92043006 0 52.38272498 0 -471.41690773 0 32508
0.17450000 0.17449800 7876.55769834 0 -15.81039034 0 1876.05378140 0 414.17302204 0 -83.71191809 0 32791
0.17550000 0.17549800 7885.64138864 0 -27.38627259 0 1370.16210620 0 226.18943408 0 -136.61470929 0 33633
0.17650000 0.17650100 7751.01644008 0 29.20600528 0 1421.37016251 0 237.11869956 0 505.28276849 0 33984
0.17750000 0.17750300 7859.43289025 0 40.84544009 0 1176.50980748 0 186.11250303 0 714.01909506 0 34069
0.17850000 0.17849800 7690.12576884 0 63.54568197 0 1382.47333481 0 126.38418922 0 778.43454869 0 34536
