### header ###
fiducial parameters:
Omega_m = 0.31
Omega_nu = 0
Omega_de = 0.69
Omega_k = 0
H_0 = 100
w_de = -1
zeff = 0
beta = 0
fgrowth = 0
b_1 = 2
gamma = 0.55
Lx = 3500 Ly = 3500 Lz = 3500
nx = 700 ny = 700 nz = 700
xoffset = 1379.75464 yoffset = 22.6059522 zoffset = 368.141391
bins = 400 dk = 0.001
kx_ny = 0.628318531 ky_ny = 0.628318531 kz_ny = 0.628318531
############################
A(data) = 3.29784353 (not used)
A(ran) = 3.29465482 (used)
Ngal = 185214
weighted Ngal = 0
Nran = 9399747
weighted Nran = 0
SN(data) = 6715.84885
SN(ran) = 131.046157
SN(data+ran) = 6846.895
############################
13 columns: k_central k_mean P_0(k) sigma^{lin}_{P_0(k)} P^img_1(k) sigma^{lin}_{P_1(k)} P_2(k) sigma^{lin}_{P_2(k)} P^img_3(k) sigma^{lin}_{P_3(k)} P_4(k) sigma^{lin}_{P_4(k)} N_modes
### header ###
0.00050000 0 0 0 0 0 0 0 0 0 0 0 0
0.00150000 0.00179520 29406.86685261 0 -21984.08329501 0 -35611.83698529 0 37543.59075776 0 -53537.20766907 0 3
0.00250000 0.00253879 59540.31801730 0 -41768.00585140 0 -45652.25393464 0 2887.81494941 0 63316.53784226 0 6
0.00350000 0.00331552 93259.33133140 0 -49031.96346870 0 -68270.42095918 0 -9659.14596306 0 -85812.59078840 0 7
0.00450000 0.00420575 134434.17997002 0 -36230.17121516 0 -90009.49971361 0 -29109.95551031 0 -9777.27830175 0 24
0.00550000 0.00557378 154153.21902426 0 1227.34076309 0 -86884.77679738 0 -74014.10821079 0 -15075.93127581 0 45
0.00650000 0.00659388 145463.26621533 0 18167.82424907 0 -34763.47133072 0 -68417.04658284 0 -7671.38164600 0 40
0.00750000 0.00754703 116494.16890627 0 15861.07710778 0 -28521.67842417 0 -25252.88085959 0 -12569.20985354 0 57
0.00850000 0.00846663 97946.47116172 0 4956.19008589 0 -18998.33307655 0 -1638.00342130 0 -25526.94433618 0 75
0.00950000 0.00948925 105789.05652381 0 -9293.59120284 0 -29282.64544679 0 1624.64962017 0 -32527.15329005 0 112
0.01050000 0.01054430 106103.71378123 0 2589.88321699 0 -20265.28050394 0 -12207.74774500 0 -29176.50269199 0 105
0.01150000 0.01145670 96122.52382359 0 2126.20463737 0 -45730.44687313 0 -12817.43084124 0 -19857.01354428 0 144
0.01250000 0.01249090 97595.21295437 0 2653.81287620 0 -12155.73003131 0 -8851.07462700 0 -16953.89274308 0 169
0.01350000 0.01339930 96655.78857286 0 -517.61507038 0 -38605.90560146 0 -12771.40237391 0 -33816.83767119 0 180
0.01450000 0.01448870 87846.82722067 0 8722.66074873 0 -7974.94770647 0 -8104.30433648 0 -9609.73468065 0 267
0.01550000 0.01550050 71653.23602839 0 1812.73413802 0 -21020.81284006 0 -9364.96305520 0 -21528.56783635 0 238
0.01650000 0.01653350 80835.97071773 0 215.25351389 0 1698.36171509 0 4401.56369130 0 13055.78066366 0 315
0.01750000 0.01747870 73453.22638112 0 892.34890519 0 -6822.02887490 0 5752.18310847 0 -4222.74032290 0 297
0.01850000 0.01844180 77578.59708601 0 3494.31487213 0 -2249.56092983 0 -2005.01112831 0 6016.03159267 0 388
0.01950000 0.01947590 70996.30443315 0 4136.19571311 0 13632.85564088 0 -7700.50712918 0 10196.95810308 0 399
0.02050000 0.02045430 68862.69087622 0 -354.81959069 0 -3563.84558580 0 4098.15290758 0 7608.97148077 0 462
0.02150000 0.02154770 69331.73759516 0 -4417.30209977 0 5807.82764356 0 13793.89982057 0 12861.90654101 0 571
0.02250000 0.02255340 71674.86386244 0 -2389.48747053 0 -15214.68214963 0 651.32055871 0 4691.95340979 0 510
0.02350000 0.02348930 71933.95422315 0 2271.19985507 0 -5929.52025647 0 -2615.64806750 0 5443.83674211 0 555
0.02450000 0.02439640 71398.91488237 0 2917.49499244 0 -466.17742629 0 -10371.14535115 0 -433.11345907 0 592
0.02550000 0.02547300 65901.56311498 0 2927.92071757 0 4016.17787094 0 -9774.61641448 0 -3236.11180717 0 837
0.02650000 0.02652900 66430.05864956 0 4219.55714938 0 9535.96712975 0 -6479.46616595 0 -14631.28519016 0 723
0.02750000 0.02749970 58019.38217979 0 4955.23624295 0 19322.86149925 0 -12024.18843551 0 -12977.80954912 0 826
0.02850000 0.02848090 53596.87830865 0 5327.73409246 0 24461.52395734 0 -3092.59171866 0 -15749.38875451 0 831
0.02950000 0.02946900 49576.09759098 0 500.66661232 0 31485.68989661 0 2604.53468815 0 -4821.49859015 0 996
0.03050000 0.03053250 49718.73038374 0 -580.77056404 0 29386.23722629 0 9271.74154485 0 -1559.33356134 0 1041
0.03150000 0.03150510 53349.54461671 0 -1442.08851840 0 21805.51502414 0 13532.92395637 0 643.26502236 0 1036
0.03250000 0.03246190 51913.90008373 0 -2121.33560191 0 18495.01455904 0 6147.75064763 0 10841.57846971 0 1059
0.03350000 0.03345080 55264.43976982 0 552.44475615 0 11498.79843607 0 1853.06173012 0 11591.07719468 0 1302
0.03450000 0.03451200 52180.31063442 0 1938.39739944 0 13443.19617306 0 -111.91461369 0 13065.31909304 0 1339
0.03550000 0.03553350 49536.16928197 0 1449.71926191 0 13406.48431116 0 94.24666968 0 9515.65914814 0 1365
0.03650000 0.03647120 49777.29190362 0 -190.49907142 0 11671.04472468 0 2729.25519784 0 12937.65941616 0 1308
0.03750000 0.03744890 48251.14320355 0 88.48379466 0 9556.19747298 0 4192.74972635 0 5257.30499184 0 1579
0.03850000 0.03847530 49652.84867386 0 -415.94761355 0 8258.64943321 0 489.91147864 0 1408.55983003 0 1662
0.03950000 0.03950240 48123.03987880 0 1421.15942976 0 5601.71993067 0 -3625.40172886 0 -3000.78988152 0 1683
0.04050000 0.04050350 45839.69516307 0 1869.73179914 0 10172.64619936 0 -4246.02074529 0 -572.97123435 0 1822
0.04150000 0.04152450 42312.91635747 0 2706.27423776 0 9422.47091138 0 -5831.64044341 0 -8763.54290068 0 1887
0.04250000 0.04250150 41703.12234926 0 1518.21849426 0 13878.41474131 0 -1443.08672613 0 -11728.49712487 0 1920
0.04350000 0.04349210 38917.01367586 0 -370.15982519 0 14870.52230833 0 1296.92693275 0 -13383.74735742 0 2005
0.04450000 0.04448520 40919.08563699 0 54.74337534 0 13857.11964317 0 611.49761606 0 -9740.41116310 0 2151
0.04550000 0.04548030 40578.69680265 0 -688.85982390 0 12189.89091791 0 2335.32915583 0 -10062.99862633 0 2274
0.04650000 0.04648670 42215.09200039 0 -491.84911075 0 12729.81038535 0 1550.03913830 0 -9127.87762924 0 2311
0.04750000 0.04749250 41482.18570605 0 138.72758231 0 12169.03946765 0 -1012.18374261 0 -7984.81887175 0 2568
0.04850000 0.04851840 40999.82955077 0 1791.66086382 0 13115.78403915 0 -1067.18609740 0 -6301.96265000 0 2493
0.04950000 0.04949480 39673.98786758 0 1415.12581862 0 15872.72286457 0 -452.62509274 0 -4726.93504497 0 2644
0.05050000 0.05050630 38147.28460766 0 642.49307506 0 16146.78634116 0 1410.15696239 0 -3211.50044115 0 2829
0.05150000 0.05149060 37855.03156807 0 340.93563035 0 15425.19306771 0 723.08947592 0 -3427.91187600 0 2784
0.05250000 0.05249300 37151.29512171 0 251.24777535 0 16675.17096377 0 801.08610022 0 -1573.33065189 0 3055
0.05350000 0.05348950 37268.86180936 0 -311.46853830 0 11852.60761872 0 2606.09854692 0 -2558.72804476 0 3009
0.05450000 0.05448610 38553.00059202 0 -622.27160478 0 14546.65935744 0 959.90316756 0 -769.31869392 0 3336
0.05550000 0.05550870 37076.76227821 0 869.81381123 0 10222.65640640 0 -33.50495321 0 -2988.03500503 0 3349
0.05650000 0.05647670 37141.75669233 0 1172.32842623 0 12968.82567959 0 -210.45324385 0 -4421.84949051 0 3324
0.05750000 0.05747970 35043.30222973 0 1344.68562681 0 12767.85319089 0 -2101.71527451 0 -3241.51322009 0 3639
0.05850000 0.05849280 34115.19086910 0 1064.56413844 0 15175.64113638 0 223.78153523 0 -4025.32810842 0 3846
0.05950000 0.05951020 33029.36268787 0 -220.54290572 0 12559.00595235 0 1667.17326927 0 -649.36850804 0 3787
0.06050000 0.06049470 32116.11353115 0 6.10552646 0 12648.84464763 0 4222.06375989 0 -2709.97869754 0 3930
0.06150000 0.06148310 33498.74214272 0 116.74926644 0 8941.03532545 0 2314.10060487 0 1047.44709419 0 4083
0.06250000 0.06249100 31876.43276510 0 286.16619070 0 9564.17204359 0 1508.79097685 0 1749.10394113 0 4303
0.06350000 0.06350600 30285.51147485 0 1051.21921027 0 8390.77886245 0 422.73209872 0 6449.08737751 0 4470
0.06450000 0.06451750 30544.15818768 0 1090.49424779 0 7624.65443325 0 -939.56302148 0 3781.09995162 0 4479
0.06550000 0.06550280 28124.28083752 0 505.58999465 0 10939.43610038 0 -215.10378273 0 2847.37644534 0 4636
0.06650000 0.06648880 28282.55221797 0 529.30962844 0 9123.52988003 0 -147.14912815 0 3533.36697658 0 4653
0.06750000 0.06749660 28188.27704391 0 -108.29599977 0 11810.57198228 0 283.84036670 0 5937.22863835 0 5220
0.06850000 0.06852730 28008.26691744 0 -1.24284626 0 9341.87118316 0 487.86182544 0 2570.48471352 0 5029
0.06950000 0.06949320 28272.01558087 0 201.41613658 0 12147.52254557 0 -235.80328360 0 1623.03030542 0 5040
0.07050000 0.07048030 27865.52321271 0 405.46532331 0 11974.72169712 0 -1131.83446617 0 3423.77485954 0 5475
0.07150000 0.07148790 27557.85340937 0 689.62622561 0 12164.82481281 0 -811.19239888 0 1048.13253016 0 5509
0.07250000 0.07249820 27791.10128119 0 -343.06514016 0 12944.31413433 0 1299.02316897 0 3292.49945246 0 5916
0.07350000 0.07351270 27550.31139545 0 -279.99172136 0 12115.57989836 0 862.31616209 0 -852.01576749 0 5721
0.07450000 0.07449140 28070.04488444 0 250.03661664 0 11262.00138123 0 682.16295918 0 1252.17395306 0 6028
0.07550000 0.07549160 27245.74712725 0 824.27668392 0 10736.88866171 0 3.11511794 0 426.80811360 0 6183
0.07650000 0.07648840 26528.36850864 0 686.02158660 0 10792.00081935 0 -717.88215895 0 -278.21269337 0 6330
0.07750000 0.07749960 25315.21338644 0 562.75069636 0 11521.86812572 0 913.77377033 0 -643.95489481 0 6583
0.07850000 0.07848650 25012.75644566 0 136.74225805 0 9902.28718255 0 579.41632889 0 -673.03823145 0 6549
0.07950000 0.07947320 24143.98298871 0 28.76646114 0 8828.01602854 0 1622.70866071 0 408.17157537 0 6828
0.08050000 0.08048110 24695.77003688 0 195.54445692 0 8718.62355304 0 967.96314038 0 -1119.24595764 0 7147
0.08150000 0.08149960 23811.69072814 0 309.13827782 0 7984.80778056 0 722.47502361 0 1713.34592217 0 7386
0.08250000 0.08250610 23752.46373644 0 272.57281972 0 6483.35917608 0 963.25492728 0 1578.79861199 0 7227
0.08350000 0.08350160 23121.26371811 0 57.29778891 0 7119.77205697 0 614.44787445 0 3224.44386798 0 7798
0.08450000 0.08449610 23008.90989303 0 534.03669658 0 5438.66824433 0 712.25559474 0 1297.67004294 0 7371
0.08550000 0.08548940 21866.96025524 0 674.59321726 0 6462.40790505 0 -708.33042014 0 2091.50028212 0 8256
0.08650000 0.08650700 20978.00081984 0 639.77573180 0 6622.96407207 0 1047.75542947 0 3523.55126728 0 8037
0.08750000 0.08749060 20620.08789432 0 143.22173531 0 5971.89972001 0 1013.60896142 0 2625.04231131 0 8155
0.08850000 0.08849210 20299.33047858 0 -168.24902123 0 4357.91983130 0 977.22096247 0 3185.95741457 0 8718
0.08950000 0.08949900 20324.61840762 0 255.81069377 0 4401.92970080 0 1115.49713307 0 2462.00171617 0 8571
0.09050000 0.09049190 19552.00562820 0 431.23017383 0 4171.34371624 0 -426.53527016 0 3030.66956610 0 8932
0.09150000 0.09150830 18952.52643315 0 636.61363155 0 4067.41920084 0 -757.43669463 0 2233.61178861 0 9285
0.09250000 0.09250820 18339.62688979 0 217.15787241 0 4733.83376947 0 -169.20286416 0 1261.88984159 0 9204
0.09350000 0.09350330 18257.21929647 0 22.60452485 0 4209.79689606 0 210.12605354 0 1501.80352277 0 9349
0.09450000 0.09448040 18382.10617411 0 75.10093460 0 4248.09479912 0 554.38460650 0 598.46989613 0 9564
0.09550000 0.09549270 17933.24543361 0 204.44736071 0 4516.16902936 0 -307.04980543 0 1312.21060214 0 10155
0.09650000 0.09649430 17706.31954405 0 337.26222592 0 4478.05967665 0 -177.58780906 0 313.70674184 0 9913
0.09750000 0.09749140 17370.47810046 0 339.88196664 0 4864.78753184 0 -237.55458360 0 1419.58447980 0 10476
0.09850000 0.09850240 17125.80629578 0 189.47646306 0 5383.25662438 0 -167.60905916 0 542.51369841 0 10575
0.09950000 0.09950330 16701.34618857 0 210.71166874 0 4873.15029434 0 -85.42395525 0 1277.37315253 0 10882
0.10050000 0.10051200 16785.63928538 0 246.55952640 0 5312.18423434 0 417.31959461 0 362.91283710 0 10875
0.10150000 0.10150300 16269.56589138 0 173.51512154 0 4911.89184528 0 -329.21112606 0 157.86433352 0 11118
0.10250000 0.10250800 15799.52096471 0 179.63080753 0 5120.58380706 0 383.26740174 0 594.36060766 0 11575
0.10350000 0.10349800 15838.11833009 0 -0.71071170 0 3748.64710935 0 376.56942791 0 -19.63152951 0 11364
0.10450000 0.10450100 15827.69260496 0 299.67305034 0 4669.54919196 0 381.78339959 0 474.81525047 0 12093
0.10550000 0.10551000 15300.30619007 0 205.82156001 0 3775.70962990 0 284.73209894 0 124.37779170 0 12067
0.10650000 0.10649700 15006.50038291 0 115.50261590 0 4559.59106541 0 361.76711646 0 1932.88507456 0 12054
0.10750000 0.10749900 14855.43828048 0 324.98759826 0 4042.76347002 0 96.31628703 0 -112.58119462 0 12807
0.10850000 0.10850100 14440.73842659 0 103.34976958 0 3685.87093462 0 -98.95987383 0 1224.33504872 0 12736
0.10950000 0.10950300 14468.91006683 0 9.02468513 0 3963.31722628 0 444.86569135 0 1337.30998083 0 12933
0.11050000 0.11050200 14302.65302458 0 117.56557853 0 3867.61128781 0 75.90393726 0 995.22862984 0 13428
0.11150000 0.11150900 14374.85671671 0 -33.44639169 0 3695.24299604 0 621.24123258 0 1905.83364520 0 13453
0.11250000 0.11250000 14450.94232778 0 -157.74011212 0 2870.20212865 0 430.47486331 0 1404.53372554 0 13668
0.11350000 0.11349100 14202.61042811 0 255.98815292 0 2887.32693674 0 -28.48685207 0 1587.06155372 0 13791
0.11450000 0.11448600 14133.40135915 0 578.22402522 0 3644.42313163 0 -745.31734372 0 1251.77466997 0 14205
0.11550000 0.11549300 13410.25531813 0 340.05609843 0 4244.42361293 0 -866.03282219 0 1265.07301511 0 14776
0.11650000 0.11649800 13003.65203800 0 119.37344363 0 5043.69962981 0 -311.04596369 0 1605.26220791 0 14553
0.11750000 0.11747300 13530.26206911 0 -96.98841357 0 4623.86455173 0 299.86603717 0 874.51980609 0 14568
0.11850000 0.11849100 13478.46617936 0 -186.47851253 0 4804.57342361 0 406.66428171 0 863.05372669 0 16015
0.11950000 0.11950300 13714.48685042 0 -84.06927645 0 4525.45236121 0 233.72479329 0 491.96335007 0 15270
0.12050000 0.12050700 14035.57700207 0 -244.74500658 0 4736.59547751 0 244.97126700 0 1057.95489418 0 15999
0.12150000 0.12150000 14185.97363269 0 8.07035418 0 4373.40314224 0 -346.55886720 0 -42.72007420 0 15670
0.12250000 0.12250700 14409.12851528 0 213.90482434 0 5107.42964747 0 -359.68086231 0 651.08542533 0 16887
0.12350000 0.12352200 13614.22243000 0 304.61306946 0 5118.37665886 0 -504.64169731 0 -383.46260681 0 16407
0.12450000 0.12449800 14040.90077660 0 74.98392247 0 5821.25908306 0 796.38454183 0 1067.16502413 0 16306
0.12550000 0.12549900 13781.92132786 0 -122.59321811 0 5317.69655922 0 416.66965047 0 -71.95902033 0 17523
0.12650000 0.12650100 13497.76486205 0 327.16369110 0 4985.20465711 0 321.10124285 0 823.59235707 0 17154
0.12750000 0.12750600 13244.66374769 0 393.32933561 0 5217.82033070 0 -250.54348434 0 1540.47852653 0 18007
0.12850000 0.12850300 12912.48239909 0 47.33944681 0 4878.16351536 0 670.46729200 0 1318.85422911 0 17496
0.12950000 0.12949900 13024.83622418 0 78.61662221 0 5448.53940962 0 253.49263361 0 1447.95576159 0 18405
0.13050000 0.13049000 12570.98444505 0 75.72337257 0 4135.61897087 0 53.83899914 0 1121.45310583 0 18100
0.13150000 0.13148800 12707.51707949 0 42.20899184 0 4811.82706641 0 409.20527493 0 2407.48848317 0 19059
0.13250000 0.13249300 12569.76441339 0 -18.40683954 0 3864.71648541 0 25.26075561 0 820.02764637 0 18957
0.13350000 0.13349100 12558.78412841 0 53.50282496 0 4303.29568633 0 201.96958731 0 1414.99272426 0 19468
0.13450000 0.13450700 12283.50062016 0 246.82127865 0 3564.86597592 0 142.61061036 0 868.03034676 0 19953
0.13550000 0.13551000 12102.27046202 0 147.36207913 0 4108.09062005 0 -71.43806681 0 1116.76152952 0 19956
0.13650000 0.13649900 12044.70714986 0 150.86467913 0 3612.35848125 0 106.92313141 0 532.36636232 0 19723
0.13750000 0.13749600 11722.06423064 0 204.40521416 0 3443.80556123 0 182.60324832 0 668.71266464 0 20946
0.13850000 0.13851100 11550.37250188 0 -46.07815590 0 3182.05331325 0 301.17812577 0 682.30049002 0 20955
0.13950000 0.13949800 11418.49817016 0 138.06321961 0 3063.08913478 0 193.33287224 0 874.82481401 0 20506
0.14050000 0.14048300 11302.70607403 0 119.87365662 0 2819.27135227 0 326.78548128 0 805.40390319 0 21447
0.14150000 0.14148400 11114.82119772 0 147.04154354 0 2487.05673008 0 -186.92659689 0 274.30082821 0 21771
0.14250000 0.14249400 11028.94205975 0 210.48984480 0 2892.55089051 0 -169.60658373 0 408.21704928 0 22470
0.14350000 0.14350900 10510.16241370 0 281.90162547 0 2866.81931359 0 -188.87642931 0 -197.40999624 0 22519
0.14450000 0.14449900 10352.78942020 0 170.50829804 0 3009.68502148 0 47.98473265 0 257.60635856 0 22218
0.14550000 0.14550500 10093.90979223 0 118.51276675 0 3203.92515363 0 6.74038657 0 -10.90505339 0 23559
0.14650000 0.14650700 10002.46287339 0 124.17593191 0 3001.30007658 0 47.39567918 0 -325.00423505 0 23044
0.14750000 0.14750500 9899.09291783 0 -14.06530141 0 3048.07165411 0 -8.26438358 0 -242.50680303 0 23649
0.14850000 0.14849900 10101.57380932 0 -80.17793000 0 2758.58032257 0 174.82055542 0 -374.58188541 0 23640
0.14950000 0.14949500 10220.38271103 0 -151.78746672 0 2553.04935192 0 101.66135667 0 -375.49690916 0 24457
0.15050000 0.15050000 10415.06649106 0 -60.56836106 0 2551.82932026 0 115.76769551 0 -914.68435760 0 24591
0.15150000 0.15149900 10304.83108459 0 296.78157530 0 2543.54419614 0 -553.09248205 0 -1050.19216544 0 25020
0.15250000 0.15250500 10059.33853134 0 240.48044135 0 3015.51899107 0 -386.65908977 0 -1189.85251741 0 25297
0.15350000 0.15350100 9855.17177792 0 83.62174666 0 3053.16251351 0 16.03809261 0 -1403.50224422 0 25452
0.15450000 0.15450400 9685.24354948 0 -12.95673627 0 2905.41667897 0 525.76377277 0 -810.03115056 0 26061
0.15550000 0.15549900 9717.89603329 0 5.74524002 0 2684.76840688 0 696.78670236 0 -796.51319972 0 26128
0.15650000 0.15649500 9895.17772531 0 -9.84770740 0 2474.93405181 0 481.45222273 0 -8.42883276 0 26331
0.15750000 0.15749700 9485.00307977 0 115.15546143 0 1915.27225381 0 355.96974781 0 -344.74102002 0 27345
0.15850000 0.15849900 9489.37301137 0 209.03246152 0 1971.95936141 0 -214.65458926 0 784.37388466 0 26980
0.15950000 0.15949700 9075.69354759 0 182.73079708 0 2178.10034789 0 -255.96264317 0 133.22745774 0 27777
0.16050000 0.16050000 9047.39990418 0 197.63625666 0 2589.59484586 0 -171.85033287 0 481.23039879 0 28224
0.16150000 0.16150500 8800.07730343 0 84.21335110 0 2547.25974711 0 -211.47363397 0 -206.61568971 0 28075
0.16250000 0.16249700 8693.50199196 0 148.71631428 0 2560.42499789 0 -60.69380250 0 -90.27180652 0 28590
0.16350000 0.16349900 8710.78207680 0 126.24333102 0 3074.81252996 0 -369.15274451 0 -180.85527568 0 29163
0.16450000 0.16449100 8653.98405723 0 -13.78192133 0 2775.63858347 0 146.79531897 0 -572.96347051 0 28996
0.16550000 0.16550500 8529.15263558 0 84.26625611 0 2933.34431288 0 282.46173092 0 -242.11195642 0 30777
0.16650000 0.16650700 8358.89167122 0 108.59756942 0 2778.65538904 0 38.87331436 0 -357.17979740 0 29211
0.16750000 0.16749900 8399.27471931 0 18.26941961 0 2481.08966612 0 380.57556824 0 152.29211618 0 30922
0.16850000 0.16850800 8388.60498785 0 54.24194232 0 2336.78210263 0 416.18607429 0 64.35766850 0 30867
0.16950000 0.16949900 8169.88658403 0 22.08057671 0 1967.54506502 0 102.52347541 0 181.58507644 0 30852
0.17050000 0.17049200 8060.81575324 0 187.43790107 0 2186.77366390 0 -176.78702464 0 -46.16167261 0 31257
0.17150000 0.17149500 8009.46351137 0 125.87621240 0 2088.21728782 0 34.08202819 0 61.30392924 0 32608
0.17250000 0.17250900 7766.20028871 0 -45.57372826 0 1875.27739761 0 39.44728380 0 -25.16736773 0 32361
0.17350000 0.17350400 7908.65562231 0 -32.58028012 0 1850.59948440 0 306.28451284 0 4.82899624 0 32508
0.17450000 0.17449800 8019.46777102 0 -64.50440504 0 1591.80858601 0 128.04010493 0 -288.86246068 0 32791
0.17550000 0.17549800 8024.42553605 0 92.48749494 0 1768.23625586 0 -168.00945137 0 -462.76133763 0 33633
0.17650000 0.17650100 7961.26116943 0 133.36831594 0 1740.57481068 0 -277.53058476 0 -180.99724300 0 33984
0.17750000 0.17750300 7721.45840022 0 124.92126035 0 2176.55867151 0 -269.09462036 0 -669.86171265 0 34069
