### header ###
fiducial parameters:
Omega_m = 0.31
Omega_nu = 0
Omega_de = 0.69
Omega_k = 0
H_0 = 100
w_de = -1
zeff = 0
beta = 0
fgrowth = 0
b_1 = 2
gamma = 0.55
Lx = 3500 Ly = 3500 Lz = 3500
nx = 700 ny = 700 nz = 700
xoffset = 1379.75464 yoffset = 22.6059522 zoffset = 368.141391
bins = 400 dk = 0.001
kx_ny = 0.628318531 ky_ny = 0.628318531 kz_ny = 0.628318531
############################
A(data) = 3.32639308 (not used)
A(ran) = 3.3361365 (used)
Ngal = 187593
weighted Ngal = 0
Nran = 9399747
weighted Nran = 0
SN(data) = 6586.69234
SN(ran) = 132.696107
SN(data+ran) = 6719.38845
############################
13 columns: k_central k_mean P_0(k) sigma^{lin}_{P_0(k)} P^img_1(k) sigma^{lin}_{P_1(k)} P_2(k) sigma^{lin}_{P_2(k)} P^img_3(k) sigma^{lin}_{P_3(k)} P_4(k) sigma^{lin}_{P_4(k)} N_modes
### header ###
0.00050000 0 0 0 0 0 0 0 0 0 0 0 0
0.00150000 0.00179520 48707.10231009 0 -43679.35182149 0 -41666.85413524 0 67056.82218911 0 123441.69467463 0 3
0.00250000 0.00253879 54289.19082216 0 -33948.15744306 0 -1980.88777495 0 -70597.57590286 0 -75744.66767062 0 6
0.00350000 0.00331552 89928.20123998 0 -13789.79607769 0 -45110.00531584 0 -4289.11004544 0 -27293.43927413 0 7
0.00450000 0.00420575 107675.00365289 0 1458.62549305 0 -13888.28590659 0 -46509.38163480 0 -2470.22029311 0 24
0.00550000 0.00557378 77551.86730136 0 26256.63418341 0 44596.26107320 0 -35955.44226675 0 29950.89006292 0 45
0.00650000 0.00659388 68762.87010368 0 14122.97563402 0 50400.17352424 0 36665.05704750 0 -3163.58647033 0 40
0.00750000 0.00754703 43671.92071953 0 5591.15001998 0 53679.84046182 0 49384.77444363 0 18682.34487549 0 57
0.00850000 0.00846663 44563.09839432 0 464.78769931 0 55563.45843954 0 34994.39005118 0 26318.41215041 0 75
0.00950000 0.00948925 45258.18370707 0 -1583.54564428 0 37454.75027021 0 31145.30106227 0 40444.93696745 0 112
0.01050000 0.01054430 41258.25443966 0 -1182.85397213 0 3139.42984338 0 16592.76337045 0 20914.55917329 0 105
0.01150000 0.01145670 51696.17988763 0 -3895.99366081 0 19580.39909239 0 -2492.33613983 0 29772.21088008 0 144
0.01250000 0.01249090 45975.00776583 0 -2839.69024585 0 -4448.31308643 0 6938.30898370 0 3473.45233067 0 169
0.01350000 0.01339930 56600.92900208 0 -3853.89147719 0 7020.36165873 0 -8277.79283914 0 5714.27339730 0 180
0.01450000 0.01448870 59044.98516159 0 -102.03335541 0 5881.88356558 0 -13873.97826253 0 -9246.56452778 0 267
0.01550000 0.01550050 56146.18992720 0 1121.89675371 0 2167.84099071 0 5057.39725804 0 -23352.40426251 0 238
0.01650000 0.01653350 59326.59065210 0 -2620.15109346 0 9587.92938745 0 -8512.70439050 0 -12549.46752297 0 315
0.01750000 0.01747870 62492.68373294 0 1919.06544316 0 6897.54883492 0 4375.98739113 0 -18381.55161426 0 297
0.01850000 0.01844180 65349.44333090 0 -4060.43174676 0 -236.36671640 0 6396.43746560 0 -12247.89787795 0 388
0.01950000 0.01947590 64453.71826536 0 2729.80975768 0 7634.76960487 0 -9755.32882299 0 -21346.78311837 0 399
0.02050000 0.02045430 61908.39947771 0 3138.46490924 0 10188.05187193 0 -8600.42466717 0 -17230.17445906 0 462
0.02150000 0.02154770 56847.26448630 0 4235.59502016 0 14553.42498758 0 -5920.44765737 0 -15455.36112341 0 571
0.02250000 0.02255340 55497.02216982 0 3096.83964709 0 21653.89836186 0 -3076.53166548 0 -19874.42672349 0 510
0.02350000 0.02348930 50839.71765929 0 1432.53899783 0 19736.11949755 0 1548.65273868 0 -21772.79599315 0 555
0.02450000 0.02439640 48701.00215177 0 2114.08195910 0 27745.29463780 0 -251.09693507 0 -17917.38502198 0 592
0.02550000 0.02547300 48324.34510341 0 -82.55754631 0 20347.24444939 0 4566.24578358 0 -12919.24802923 0 837
0.02650000 0.02652900 48359.06054985 0 -1783.04300379 0 18093.51322951 0 6223.03769251 0 -9964.57534462 0 723
0.02750000 0.02749970 50533.60062352 0 -1680.10560491 0 10957.85857851 0 8697.62791722 0 -5529.63824170 0 826
0.02850000 0.02848090 52817.83263501 0 -2407.33320641 0 8157.33134908 0 3491.66407606 0 -7937.49273437 0 831
0.02950000 0.02946900 55026.64450725 0 -1987.12102764 0 1100.34101244 0 1634.77588299 0 486.83699885 0 996
0.03050000 0.03053250 55286.62216371 0 777.53837998 0 4835.60659267 0 -7145.72545783 0 -11968.17789092 0 1041
0.03150000 0.03150510 55386.99749610 0 2353.30798608 0 6412.58624836 0 -5523.11661790 0 -12976.36769351 0 1036
0.03250000 0.03246190 52377.73394010 0 3052.94068957 0 12842.94059422 0 -11564.12558609 0 -9954.90382088 0 1059
0.03350000 0.03345080 50664.47674751 0 1868.02375481 0 20470.13491158 0 -5911.80761495 0 -25728.36047276 0 1302
0.03450000 0.03451200 50617.22824851 0 -405.69158373 0 19704.62049821 0 1532.57050311 0 -15797.74637320 0 1339
0.03550000 0.03553350 49646.30486766 0 850.05373475 0 20560.30634277 0 3540.21024510 0 -23881.56526891 0 1365
0.03650000 0.03647120 49811.12005432 0 310.81859416 0 21183.52069929 0 -1438.52824418 0 -12800.01766204 0 1308
0.03750000 0.03744890 48130.13824484 0 1328.59230003 0 21731.64765247 0 1148.09416090 0 -14777.91081381 0 1579
0.03850000 0.03847530 47703.79263415 0 303.02259182 0 22116.95583445 0 3693.94532600 0 -11468.63038037 0 1662
0.03950000 0.03950240 46041.44403555 0 891.71670696 0 17470.63160890 0 1589.55707303 0 -11761.77071571 0 1683
0.04050000 0.04050350 46502.61600466 0 963.63313709 0 21747.50806411 0 469.66560773 0 -7687.82989107 0 1822
0.04150000 0.04152450 43781.16900947 0 223.30461376 0 19105.03039119 0 3480.49524073 0 -3329.72150942 0 1887
0.04250000 0.04250150 44191.76512050 0 1333.26169395 0 17301.60176741 0 4035.88692791 0 -1136.58149847 0 1920
0.04350000 0.04349210 40947.81183708 0 1264.82900878 0 13866.21442467 0 757.14166879 0 -1258.64012088 0 2005
0.04450000 0.04448520 41333.89640285 0 732.09220048 0 16335.33668928 0 1997.83512389 0 3493.10593166 0 2151
0.04550000 0.04548030 39576.82898231 0 545.13343912 0 15062.62183947 0 2199.15143970 0 2101.82618648 0 2274
0.04650000 0.04648670 38045.02377179 0 3.37436358 0 13559.98647693 0 922.62343638 0 2353.20816531 0 2311
0.04750000 0.04749250 37866.23367699 0 1484.47907314 0 14707.48171319 0 -2812.49463093 0 -3659.74007461 0 2568
0.04850000 0.04851840 37721.16082091 0 461.47808614 0 11723.39517427 0 -1408.10509096 0 -2473.82493212 0 2493
0.04950000 0.04949480 37853.25697656 0 -1425.03025750 0 16252.15271217 0 3365.47952838 0 -4856.66877567 0 2644
0.05050000 0.05050630 38448.18878086 0 2.28833575 0 10068.53313361 0 -40.94847731 0 -5544.32298646 0 2829
0.05150000 0.05149060 38207.84254299 0 793.09711106 0 11505.89680212 0 -263.66880681 0 -7017.30048837 0 2784
0.05250000 0.05249300 37218.17503930 0 1982.97291998 0 14100.23868028 0 -1816.61605695 0 -5643.89975266 0 3055
0.05350000 0.05348950 35033.87471232 0 1026.83299554 0 14990.30723537 0 -250.49246484 0 -4218.59221524 0 3009
0.05450000 0.05448610 33670.32295951 0 638.14976233 0 16375.26499829 0 1131.01371760 0 -162.06346069 0 3336
0.05550000 0.05550870 33522.03365631 0 362.70099524 0 14593.57512053 0 1073.58128156 0 -1846.54010632 0 3349
0.05650000 0.05647670 33968.23250953 0 -67.98615358 0 15369.29343509 0 4447.13741956 0 2633.85981289 0 3324
0.05750000 0.05747970 33166.67170609 0 -351.66858164 0 12060.34573756 0 1706.99066632 0 3432.07107485 0 3639
0.05850000 0.05849280 33581.92611983 0 436.04042594 0 12515.08481244 0 2226.50233137 0 5994.80304171 0 3846
0.05950000 0.05951020 33154.58230141 0 -214.42056500 0 10317.30868116 0 1528.14511553 0 6766.75034931 0 3787
0.06050000 0.06049470 33384.05916627 0 -369.74612354 0 9567.22212275 0 2769.30551002 0 7200.89307145 0 3930
0.06150000 0.06148310 33565.51114834 0 -247.28932716 0 8199.69972143 0 1422.86747409 0 7425.66726880 0 4083
0.06250000 0.06249100 33728.10809561 0 425.20765388 0 6008.07920446 0 -284.79642788 0 4811.97125197 0 4303
0.06350000 0.06350600 32201.29392371 0 1128.22982716 0 7860.24254763 0 -2045.41635880 0 4126.35782142 0 4470
0.06450000 0.06451750 31633.20281603 0 517.80140249 0 7154.01058195 0 -349.15975289 0 2659.60248100 0 4479
0.06550000 0.06550280 31164.71065693 0 257.45995476 0 7698.66599049 0 119.96127707 0 1511.15340180 0 4636
0.06650000 0.06648880 30871.68123356 0 285.08701724 0 6958.48387095 0 1220.17584986 0 1192.48113109 0 4653
0.06750000 0.06749660 30284.06961924 0 82.55377530 0 4340.98357356 0 1690.50914765 0 248.44502988 0 5220
0.06850000 0.06852730 29642.22205185 0 456.14432953 0 5790.76938265 0 393.37259128 0 3656.46817151 0 5029
0.06950000 0.06949320 29068.91808160 0 303.39969252 0 4432.55249557 0 1676.41223633 0 2326.62256622 0 5040
0.07050000 0.07048030 28683.60989962 0 279.71998703 0 4396.90538858 0 381.36193411 0 3670.35435009 0 5475
0.07150000 0.07148790 27993.84836141 0 741.42766095 0 4923.62633165 0 -1339.29530509 0 2517.24696817 0 5509
0.07250000 0.07249820 27274.02967947 0 759.63164250 0 5472.46312143 0 -759.22126822 0 3423.86358911 0 5916
0.07350000 0.07351270 26262.51251779 0 564.65394575 0 6024.26126081 0 -567.50327425 0 548.65489416 0 5721
0.07450000 0.07449140 25657.04407638 0 908.54316185 0 9450.03253579 0 -1034.67114443 0 2112.26300280 0 6028
0.07550000 0.07549160 24809.01115772 0 944.94779759 0 8284.51410449 0 -899.65356750 0 1091.90172068 0 6183
0.07650000 0.07648840 23851.95177306 0 329.07470433 0 9972.73846557 0 176.63396612 0 2047.06894714 0 6330
0.07750000 0.07749960 23571.12266633 0 169.80178880 0 10930.84042275 0 -38.79223771 0 1578.17750496 0 6583
0.07850000 0.07848650 23883.78350830 0 -305.80648226 0 10454.68424656 0 -32.89360644 0 1375.57461031 0 6549
0.07950000 0.07947320 23665.17601645 0 434.01295514 0 9727.47882745 0 745.96063315 0 382.43778021 0 6828
0.08050000 0.08048110 23187.92181177 0 205.10506868 0 9699.73974389 0 -161.51888292 0 505.08867254 0 7147
0.08150000 0.08149960 22952.56661253 0 69.66724630 0 9110.81936833 0 1024.81217946 0 189.27016680 0 7386
0.08250000 0.08250610 23266.11475026 0 -159.88847697 0 8714.89691087 0 1082.94557914 0 -230.57267512 0 7227
0.08350000 0.08350160 22990.27668215 0 156.96594657 0 6852.48530172 0 566.81118356 0 242.05760956 0 7798
0.08450000 0.08449610 22462.00297151 0 255.54561417 0 6410.17945862 0 401.26841439 0 -1600.60390519 0 7371
0.08550000 0.08548940 22168.08625238 0 159.54132250 0 6455.93064603 0 -545.63919771 0 -776.30392976 0 8256
0.08650000 0.08650700 22018.24418161 0 528.47446131 0 6399.34335920 0 -517.58401503 0 -2792.71902677 0 8037
0.08750000 0.08749060 21485.64490416 0 289.76195675 0 7051.06209188 0 -44.75375607 0 -1349.80975980 0 8155
0.08850000 0.08849210 21113.09159867 0 -162.12889875 0 6235.11600599 0 405.90231647 0 -2626.32889016 0 8718
0.08950000 0.08949900 21903.56120517 0 -282.69242782 0 5770.30612428 0 1792.98071626 0 -1529.12114086 0 8571
0.09050000 0.09049190 21155.90361889 0 537.40287485 0 6600.23820952 0 -326.54147495 0 -1791.29485432 0 8932
0.09150000 0.09150830 20916.88832465 0 908.21929890 0 5521.76349187 0 -868.97088026 0 -1304.94586814 0 9285
0.09250000 0.09250820 19440.31727494 0 923.17466887 0 8270.98284421 0 -828.34493496 0 -1184.35128372 0 9204
0.09350000 0.09350330 18521.85525565 0 528.29256568 0 8500.84790097 0 -490.02128149 0 -384.53401643 0 9349
0.09450000 0.09448040 18162.05682665 0 229.80072781 0 9022.10088394 0 835.14272957 0 -1469.56141325 0 9564
0.09550000 0.09549270 17812.46229885 0 94.67800633 0 7606.04340477 0 933.76898019 0 478.24797593 0 10155
0.09650000 0.09649430 17819.56066489 0 -266.11219750 0 6831.86676659 0 1935.36950268 0 151.70095538 0 9913
0.09750000 0.09749140 17966.07537658 0 0.19440428 0 5149.43201032 0 1107.36506747 0 993.74462769 0 10476
0.09850000 0.09850240 17389.88769512 0 489.72958301 0 5589.00941897 0 -768.55783781 0 710.39005541 0 10575
0.09950000 0.09950330 16868.04687870 0 696.38409191 0 5601.40937715 0 -652.72914072 0 424.58987421 0 10882
0.10050000 0.10051200 15955.35228184 0 438.56700061 0 5700.25412436 0 -717.16455851 0 -940.41593452 0 10875
0.10150000 0.10150300 15806.50841879 0 68.39253504 0 6255.12452528 0 190.78078783 0 -755.14414422 0 11118
0.10250000 0.10250800 15641.24958426 0 25.27772514 0 5653.03889895 0 143.31933785 0 -1568.79435234 0 11575
0.10350000 0.10349800 15520.46644950 0 138.79745685 0 5616.75959373 0 348.71166853 0 -2248.65145168 0 11364
0.10450000 0.10450100 15145.80581658 0 336.00115683 0 5231.41813816 0 194.94442316 0 -2167.45279882 0 12093
0.10550000 0.10551000 14940.95140895 0 128.96732899 0 5518.30303842 0 -123.37071101 0 -1592.60715219 0 12067
0.10650000 0.10649700 14955.36996498 0 -6.04520144 0 5075.93064814 0 909.82419510 0 -1111.06065429 0 12054
0.10750000 0.10749900 14873.73875544 0 -26.14583313 0 4689.72407921 0 106.04326676 0 -1687.01542061 0 12807
0.10850000 0.10850100 14956.03543680 0 -147.59166691 0 4423.28025492 0 539.61335040 0 -244.31466814 0 12736
0.10950000 0.10950300 14938.06769774 0 -85.70190064 0 4359.74987880 0 295.88318835 0 -941.26552021 0 12933
0.11050000 0.11050200 15447.81910948 0 -3.01344494 0 4135.27514377 0 435.09101948 0 75.83428454 0 13428
0.11150000 0.11150900 15291.10049661 0 -102.59135353 0 4051.28150928 0 -229.72863503 0 -588.43569025 0 13453
0.11250000 0.11250000 15442.60624692 0 232.13764301 0 4815.04351353 0 -187.73625426 0 -377.07407737 0 13668
0.11350000 0.11349100 15155.23333399 0 282.94863447 0 4410.70283758 0 -271.07439901 0 -164.32828310 0 13791
0.11450000 0.11448600 14910.45061734 0 248.20767826 0 5457.29036401 0 -234.45348493 0 182.05312495 0 14205
0.11550000 0.11549300 14425.76531071 0 329.29431003 0 5021.31759437 0 89.78013376 0 -224.37602338 0 14776
0.11650000 0.11649800 14176.76793922 0 233.11810482 0 6016.40869337 0 140.01859763 0 321.74009579 0 14553
0.11750000 0.11747300 14024.15306921 0 143.40252182 0 4757.93494044 0 360.62361405 0 1006.57603344 0 14568
0.11850000 0.11849100 13757.85343048 0 -5.19286514 0 4851.13426840 0 1079.97868396 0 995.00236942 0 16015
0.11950000 0.11950300 14073.50889563 0 -146.49807489 0 4173.82814436 0 836.88959309 0 1481.55099715 0 15270
0.12050000 0.12050700 13639.39944708 0 2.40206489 0 3689.77503595 0 379.33335419 0 1759.56293985 0 15999
0.12150000 0.12150000 13940.96909210 0 292.35840596 0 3729.11551152 0 -42.48815727 0 1754.06170616 0 15670
0.12250000 0.12250700 13356.35210096 0 226.40127594 0 3780.96685726 0 -565.22736064 0 1183.89654465 0 16887
0.12350000 0.12352200 13331.39690782 0 291.11286454 0 4554.66657397 0 -394.24879584 0 1359.55892191 0 16407
0.12450000 0.12449800 12890.52182913 0 67.71974303 0 4434.36036067 0 -85.64067724 0 877.45453681 0 16306
0.12550000 0.12549900 12871.44497038 0 107.46216358 0 4851.16754199 0 169.25721103 0 1059.58419101 0 17523
0.12650000 0.12650100 12993.22631287 0 -75.34094810 0 4616.35581140 0 418.06492305 0 1156.04654911 0 17154
0.12750000 0.12750600 13043.46943505 0 71.87683456 0 4818.64815253 0 -11.33597966 0 801.27686881 0 18007
0.12850000 0.12850300 12636.31159508 0 378.81095881 0 4880.13774841 0 -458.15072706 0 990.58696392 0 17496
0.12950000 0.12949900 12449.75766241 0 208.33482524 0 4983.58534235 0 85.65731403 0 1405.69830122 0 18405
0.13050000 0.13049000 12218.28438210 0 38.70705732 0 4694.94803297 0 235.21988664 0 791.94251745 0 18100
0.13150000 0.13148800 12180.13066460 0 189.63839454 0 4891.91659957 0 135.97031075 0 1375.91843741 0 19059
0.13250000 0.13249300 11927.58411009 0 195.90713906 0 4956.09026512 0 -82.62498079 0 796.39119655 0 18957
0.13350000 0.13349100 11560.79822701 0 200.33918136 0 4701.62493353 0 47.27777976 0 1374.49876420 0 19468
0.13450000 0.13450700 11687.12696025 0 -96.50860839 0 4465.11624981 0 479.21291006 0 694.73150356 0 19953
0.13550000 0.13551000 11768.75816979 0 -152.86664018 0 4391.65925242 0 448.32836304 0 984.85059686 0 19956
0.13650000 0.13649900 11673.48478800 0 103.75615104 0 4036.63003811 0 -1.60058172 0 415.61376852 0 19723
0.13750000 0.13749600 11527.19190026 0 332.42646405 0 4357.72018976 0 -316.19893380 0 662.78441987 0 20946
0.13850000 0.13851100 10997.82016112 0 168.14254574 0 4027.20252070 0 -17.15353429 0 251.90881069 0 20955
0.13950000 0.13949800 11057.94553977 0 67.81812195 0 4451.31880081 0 114.60311983 0 511.03909971 0 20506
0.14050000 0.14048300 10989.25775707 0 -4.74678829 0 3734.32837409 0 400.15374910 0 24.53838595 0 21447
0.14150000 0.14148400 11010.70813197 0 -35.66263467 0 3673.67061798 0 273.03975911 0 -295.56265276 0 21771
0.14250000 0.14249400 10973.23097748 0 114.46115251 0 3089.84110182 0 -26.93097896 0 -153.90255797 0 22470
0.14350000 0.14350900 10515.03144916 0 241.07825687 0 3358.80262781 0 -146.00008015 0 -880.82071508 0 22519
0.14450000 0.14449900 10600.23402411 0 210.38669667 0 3256.03159689 0 25.50875477 0 -488.35538371 0 22218
0.14550000 0.14550500 10088.10909623 0 132.41225477 0 3153.85949061 0 -80.59329533 0 -1247.47128555 0 23559
0.14650000 0.14650700 10143.62053695 0 55.82997990 0 3005.98056170 0 190.59112836 0 -1080.44118687 0 23044
0.14750000 0.14750500 9973.75885569 0 -22.03543554 0 2750.12883049 0 346.52448449 0 -1014.15908479 0 23649
0.14850000 0.14849900 10072.27086698 0 -64.76504816 0 2719.80549804 0 362.68879493 0 -629.88238413 0 23640
0.14950000 0.14949500 10104.57952369 0 -11.70409649 0 2156.82743214 0 457.67491471 0 -751.15796804 0 24457
0.15050000 0.15050000 10075.67586445 0 108.34535560 0 2119.97138468 0 117.13745833 0 -455.08733846 0 24591
0.15150000 0.15149900 9898.48290200 0 137.96118060 0 2121.77924979 0 14.55985788 0 154.18427438 0 25020
0.15250000 0.15250500 9629.02227214 0 166.13392997 0 2298.51747316 0 -53.14901578 0 130.38478396 0 25297
0.15350000 0.15350100 9695.66927461 0 102.08914413 0 2268.47142062 0 320.66868617 0 644.13013573 0 25452
0.15450000 0.15450400 9510.20227924 0 11.04840711 0 2324.92561309 0 368.39410664 0 737.75425652 0 26061
0.15550000 0.15549900 9414.80689429 0 43.02929677 0 1934.90367241 0 26.25940698 0 563.96074594 0 26128
0.15650000 0.15649500 9379.34833764 0 193.38610999 0 2374.68072260 0 -383.59570117 0 566.85443923 0 26331
0.15750000 0.15749700 9220.16747904 0 107.31032510 0 2211.20757078 0 -372.91709675 0 -51.23877893 0 27345
0.15850000 0.15849900 9106.27197758 0 13.32219121 0 2505.53466419 0 52.81982905 0 161.03087025 0 26980
0.15950000 0.15949700 9251.28937768 0 -70.65403010 0 2109.46802117 0 -96.23376853 0 -545.73236376 0 27777
0.16050000 0.16050000 9274.72507683 0 84.13382722 0 2219.75888363 0 288.83584181 0 -485.43950803 0 28224
0.16150000 0.16150500 9059.60022082 0 114.56984624 0 2153.98808572 0 -188.55700284 0 -676.90462271 0 28075
0.16250000 0.16249700 8999.36393020 0 133.47146407 0 1983.99331010 0 47.13581244 0 -710.09392046 0 28590
0.16350000 0.16349900 8889.60544520 0 58.32427918 0 2214.79002739 0 156.24723701 0 -725.42417288 0 29163
0.16450000 0.16449100 8625.04712439 0 231.88365460 0 2168.42882415 0 -324.78462935 0 -527.95428417 0 28996
0.16550000 0.16550500 8574.99255256 0 158.49764087 0 2536.19073256 0 -32.90536311 0 -637.76822516 0 30777
0.16650000 0.16650700 8521.76589841 0 9.75961003 0 2496.58406826 0 60.31781092 0 -268.59551650 0 29211
0.16750000 0.16749900 8387.15204105 0 40.93017683 0 2236.73950615 0 356.29693812 0 -263.60115051 0 30922
0.16850000 0.16850800 8280.61000316 0 228.58402350 0 2648.83292877 0 -5.84876525 0 13.13474999 0 30867
0.16950000 0.16949900 7998.44995280 0 251.01042373 0 2618.11031322 0 -137.26021695 0 295.44286783 0 30852
0.17050000 0.17049200 7780.08646728 0 222.05463586 0 3205.89938669 0 -34.48752235 0 567.79940921 0 31257
0.17150000 0.17149500 7568.22242318 0 65.45225873 0 3135.14864135 0 54.23839314 0 765.99244395 0 32608
0.17250000 0.17250900 7517.29164679 0 66.30849913 0 3191.62501621 0 -18.60448467 0 743.45845912 0 32361
0.17350000 0.17350400 7628.41434902 0 31.19299321 0 3186.26796809 0 289.29279912 0 1256.47733748 0 32508
0.17450000 0.17449800 7511.23585326 0 -27.33946774 0 2997.31833688 0 290.22556878 0 978.11824031 0 32791
0.17550000 0.17549800 7554.52479495 0 62.94232086 0 3060.08342041 0 -29.41252336 0 1058.69245878 0 33633
0.17650000 0.17650100 7524.80038713 0 8.11384277 0 2769.58278994 0 258.07773443 0 1352.32746150 0 33984
0.17750000 0.17750300 7426.12200788 0 -21.55751586 0 2564.82820308 0 265.52769142 0 1209.99413107 0 34069
0.17850000 0.17849800 7588.51931360 0 -2.20132531 0 2583.58341712 0 -73.48361626 0 1184.26255415 0 34536
