### header ###
fiducial parameters:
Omega_m = 0.31
Omega_nu = 0
Omega_de = 0.69
Omega_k = 0
H_0 = 100
w_de = -1
zeff = 0
beta = 0
fgrowth = 0
b_1 = 2
gamma = 0.55
Lx = 3500 Ly = 3500 Lz = 3500
nx = 700 ny = 700 nz = 700
xoffset = 1379.75464 yoffset = 22.6059522 zoffset = 368.141391
bins = 400 dk = 0.001
kx_ny = 0.628318531 ky_ny = 0.628318531 kz_ny = 0.628318531
############################
A(data) = 3.36745443 (not used)
A(ran) = 3.3776573 (used)
Ngal = 189983
weighted Ngal = 0
Nran = 9399747
weighted Nran = 0
SN(data) = 6557.33599
SN(ran) = 134.347612
SN(data+ran) = 6691.6836
############################
13 columns: k_central k_mean P_0(k) sigma^{lin}_{P_0(k)} P^img_1(k) sigma^{lin}_{P_1(k)} P_2(k) sigma^{lin}_{P_2(k)} P^img_3(k) sigma^{lin}_{P_3(k)} P_4(k) sigma^{lin}_{P_4(k)} N_modes
### header ###
0.00050000 0 0 0 0 0 0 0 0 0 0 0 0
0.00150000 0.00179520 97777.77405614 0 -60358.07196829 0 -38717.59395473 0 58819.27930369 0 296810.41241169 0 3
0.00250000 0.00253879 113389.74288046 0 -42882.11658485 0 -22176.07191418 0 -55552.92180244 0 -147256.71276186 0 6
0.00350000 0.00331552 157252.09945159 0 -15948.36482776 0 -9007.99288142 0 -36929.36027077 0 73354.51472828 0 7
0.00450000 0.00420575 164356.01109693 0 10645.05355098 0 9452.21750159 0 -57580.83625245 0 -626.17903346 0 24
0.00550000 0.00557378 144487.24088389 0 23363.27363552 0 78002.83536928 0 -820.43469329 0 88669.12856241 0 45
0.00650000 0.00659388 108219.69233501 0 -2511.57936653 0 -9134.68762416 0 98267.33948944 0 -36568.45272208 0 40
0.00750000 0.00754703 140249.29452997 0 -18265.20495827 0 74377.56673478 0 73021.66790786 0 111854.72122282 0 57
0.00850000 0.00846663 140344.67882372 0 -10833.57062551 0 -19178.34320302 0 40995.39307199 0 -9558.46007716 0 75
0.00950000 0.00948925 162903.06429671 0 3367.53139981 0 27989.19005869 0 198.95943646 0 67879.78900266 0 112
0.01050000 0.01054430 137543.04247460 0 18317.66631984 0 14246.97521590 0 -45093.14669648 0 54079.23446393 0 105
0.01150000 0.01145670 125117.57453351 0 23234.61575092 0 48115.05421699 0 -29873.58442019 0 11500.90576349 0 144
0.01250000 0.01249090 99017.32622707 0 19396.61795896 0 86638.55222513 0 -8796.42829964 0 29571.34930335 0 169
0.01350000 0.01339930 88938.42282432 0 7725.68414625 0 79828.77912286 0 7331.79137783 0 -16841.42800603 0 180
0.01450000 0.01448870 80290.17291591 0 3162.12243233 0 97453.80019328 0 37000.89849109 0 41429.39160857 0 267
0.01550000 0.01550050 67545.16759074 0 -1129.11712292 0 33374.96438477 0 29275.87981665 0 -28137.25753795 0 238
0.01650000 0.01653350 78289.43189842 0 -3313.56163546 0 60049.29304525 0 27871.29063513 0 54693.24312698 0 315
0.01750000 0.01747870 74615.69473326 0 456.17427576 0 18633.54360892 0 12962.28187339 0 949.87007080 0 297
0.01850000 0.01844180 80898.96871640 0 -2307.46806909 0 31387.86553953 0 14978.99421448 0 47163.65134277 0 388
0.01950000 0.01947590 76605.56637774 0 -1922.03788395 0 9322.02903181 0 -2584.50398647 0 159.89734992 0 399
0.02050000 0.02045430 78459.68177157 0 5541.67219039 0 7269.65849253 0 -9501.50678083 0 -2835.29813186 0 462
0.02150000 0.02154770 68590.73472705 0 5701.60725038 0 22389.91019135 0 -14682.97016793 0 -3841.25860387 0 571
0.02250000 0.02255340 63357.90800687 0 1251.87449074 0 14281.35792644 0 -567.15279243 0 -19007.31694608 0 510
0.02350000 0.02348930 68970.94095843 0 -4302.99622402 0 21063.51394831 0 12225.82639603 0 -9827.62124470 0 555
0.02450000 0.02439640 73256.91219513 0 -4144.41429005 0 12325.09260871 0 14326.16636211 0 -15766.69102175 0 592
0.02550000 0.02547300 74826.09473937 0 203.81294424 0 8968.47494670 0 5349.96085114 0 5845.17170368 0 837
0.02650000 0.02652900 74981.14967270 0 920.05582428 0 4851.93283458 0 -1606.87043146 0 6644.40335577 0 723
0.02750000 0.02749970 72918.96342412 0 1453.33499211 0 10694.42046860 0 2224.72773986 0 27382.72340956 0 826
0.02850000 0.02848090 74984.36611982 0 -647.84568670 0 14551.42857213 0 5884.63418242 0 17869.69287510 0 831
0.02950000 0.02946900 72206.46493217 0 1768.21407347 0 15462.45948946 0 1120.51035409 0 31003.77738921 0 996
0.03050000 0.03053250 72502.37806674 0 3661.30393338 0 23581.32656752 0 -2553.69264134 0 24303.14166491 0 1041
0.03150000 0.03150510 66641.56777536 0 2924.09425463 0 27479.43864695 0 -3699.39110370 0 26542.45432876 0 1036
0.03250000 0.03246190 64742.64394586 0 3337.35225292 0 31915.36286639 0 718.00305300 0 33453.04641129 0 1059
0.03350000 0.03345080 59526.34310914 0 1801.39893474 0 30030.85759292 0 3037.23555470 0 18218.17828321 0 1302
0.03450000 0.03451200 59469.11253289 0 1710.17383984 0 31851.92121984 0 5412.89230263 0 26193.19253686 0 1339
0.03550000 0.03553350 56674.24181391 0 422.83968333 0 24446.32901752 0 3653.09644764 0 12220.28079755 0 1365
0.03650000 0.03647120 55711.41500683 0 2076.89317574 0 23821.45098145 0 1987.05448046 0 19321.30873168 0 1308
0.03750000 0.03744890 51918.00382660 0 707.37768632 0 18865.90418499 0 3272.41329479 0 10982.08175265 0 1579
0.03850000 0.03847530 50654.60558223 0 2133.77992488 0 17911.39577562 0 1867.77974847 0 8688.58859171 0 1662
0.03950000 0.03950240 47388.46990491 0 1952.15048366 0 10423.62889511 0 -1668.39330094 0 1410.75588703 0 1683
0.04050000 0.04050350 44353.36386003 0 1203.72760479 0 12609.91454634 0 901.56014425 0 233.58060773 0 1822
0.04150000 0.04152450 43929.68013661 0 1103.26797931 0 13935.75622953 0 -97.00959776 0 5190.49162142 0 1887
0.04250000 0.04250150 42811.46566029 0 -1044.88391858 0 9669.82678572 0 5944.59319313 0 2106.15175329 0 1920
0.04350000 0.04349210 42624.91172762 0 -868.96755290 0 6426.64988609 0 5394.13708859 0 4417.00263745 0 2005
0.04450000 0.04448520 43911.37966165 0 438.61358363 0 6953.01591086 0 -620.96173442 0 1323.16870473 0 2151
0.04550000 0.04548030 43655.28392411 0 1683.96534145 0 8953.94547869 0 -1698.02897918 0 9804.62919343 0 2274
0.04650000 0.04648670 40418.76174265 0 1529.32078240 0 13312.76369695 0 -2164.18089572 0 8413.92619048 0 2311
0.04750000 0.04749250 39716.57806386 0 833.45575851 0 12596.82693394 0 -2336.71555545 0 4126.32454783 0 2568
0.04850000 0.04851840 40271.58155915 0 -429.14724704 0 14964.90839436 0 1533.93472033 0 2605.39980152 0 2493
0.04950000 0.04949480 40380.16437727 0 386.24649724 0 17335.42991810 0 1113.11252572 0 6097.95117333 0 2644
0.05050000 0.05050630 39010.73429007 0 945.76521881 0 13720.14336086 0 394.32532510 0 4611.10967524 0 2829
0.05150000 0.05149060 38828.94957209 0 1343.13285923 0 15802.07194001 0 -854.35268268 0 2984.97383468 0 2784
0.05250000 0.05249300 36767.20697139 0 526.37822509 0 16255.03642338 0 -496.08705710 0 3029.63808479 0 3055
0.05350000 0.05348950 36857.71113849 0 1372.66871671 0 18809.33908055 0 -685.69439629 0 1050.43617177 0 3009
0.05450000 0.05448610 33968.56524544 0 1231.63305631 0 18395.30469847 0 -195.26939523 0 3373.91992926 0 3336
0.05550000 0.05550870 33920.09671478 0 473.35343072 0 17471.74072860 0 762.63846600 0 3103.05071739 0 3349
0.05650000 0.05647670 32262.40641890 0 31.16748346 0 17429.03962035 0 3378.53386719 0 2788.54873672 0 3324
0.05750000 0.05747970 33923.86772174 0 -273.34033055 0 17165.18004495 0 2086.98616496 0 2734.98934666 0 3639
0.05850000 0.05849280 33052.76511343 0 297.38826377 0 14923.20549383 0 -834.17668631 0 813.76112009 0 3846
0.05950000 0.05951020 33046.55404314 0 1081.32848263 0 17115.04783474 0 -1109.64098108 0 2284.87530091 0 3787
0.06050000 0.06049470 31603.81114411 0 551.31456318 0 17815.01327414 0 -680.95512783 0 -83.37574391 0 3930
0.06150000 0.06148310 30654.40468535 0 532.08353680 0 18088.07854301 0 -805.84533283 0 850.54729301 0 4083
0.06250000 0.06249100 31215.50833896 0 210.80150744 0 17171.05837933 0 1570.14747837 0 -651.84517232 0 4303
0.06350000 0.06350600 30120.91811214 0 135.74515945 0 17679.36793547 0 3152.38436141 0 1845.79699612 0 4470
0.06450000 0.06451750 30806.46499551 0 114.86598119 0 17179.15495310 0 896.48813989 0 2382.50001645 0 4479
0.06550000 0.06550280 30329.87626264 0 -63.08018444 0 13971.91353158 0 1253.73781183 0 1831.31189291 0 4636
0.06650000 0.06648880 30344.84937852 0 -118.36525383 0 14473.56836955 0 1470.98108645 0 -469.30958031 0 4653
0.06750000 0.06749660 30117.25801714 0 219.19199793 0 12264.75649731 0 -1153.90594810 0 -2202.73389631 0 5220
0.06850000 0.06852730 30170.27393856 0 573.61452377 0 12913.03695894 0 -569.41872396 0 -2401.52141921 0 5029
0.06950000 0.06949320 29191.14307197 0 355.72241412 0 11914.27467375 0 1013.06438365 0 -3485.33100260 0 5040
0.07050000 0.07048030 28534.43330066 0 -129.48528789 0 9783.40064247 0 2042.37737083 0 -4518.50927192 0 5475
0.07150000 0.07148790 28086.34894395 0 679.40679674 0 8429.60914297 0 790.10581524 0 -4915.21920436 0 5509
0.07250000 0.07249820 27373.07406821 0 626.00490167 0 8862.55401584 0 1985.94536076 0 -266.66897559 0 5916
0.07350000 0.07351270 26412.46550053 0 -77.70792044 0 5921.61223305 0 1862.61125070 0 -1604.67437447 0 5721
0.07450000 0.07449140 26031.59379733 0 239.03193103 0 7708.04914311 0 1361.82152609 0 660.17577035 0 6028
0.07550000 0.07549160 26075.84767315 0 900.37005882 0 6624.83848436 0 -1150.62295380 0 248.32857231 0 6183
0.07650000 0.07648840 24538.38595219 0 922.99277324 0 7521.25120410 0 -1094.55251675 0 1441.51177616 0 6330
0.07750000 0.07749960 23955.43264059 0 569.65385734 0 9154.60741388 0 -484.21836725 0 2347.44074289 0 6583
0.07850000 0.07848650 23063.47858201 0 23.22141723 0 9132.95739744 0 -49.57299206 0 -480.52388954 0 6549
0.07950000 0.07947320 23492.48607997 0 216.00216969 0 9665.29048617 0 552.37266337 0 2383.97514564 0 6828
0.08050000 0.08048110 23205.66772689 0 56.41382051 0 9081.66061155 0 -533.50210089 0 -2205.12959485 0 7147
0.08150000 0.08149960 23393.55260319 0 338.98468881 0 9663.05006438 0 -517.26126119 0 196.05908845 0 7386
0.08250000 0.08250610 22677.61584018 0 515.27371870 0 9202.33283435 0 -97.20702106 0 -3155.55644374 0 7227
0.08350000 0.08350160 22452.57545410 0 248.78109315 0 9662.52877813 0 -460.66066493 0 -1498.70907883 0 7798
0.08450000 0.08449610 21488.63952733 0 472.86874541 0 9984.81677905 0 296.47434914 0 -2578.48146652 0 7371
0.08550000 0.08548940 21167.77119962 0 527.14240856 0 10092.62321338 0 651.81300785 0 -2827.81157392 0 8256
0.08650000 0.08650700 20354.56463938 0 297.03667283 0 9363.63211157 0 598.48098733 0 -331.21863270 0 8037
0.08750000 0.08749060 20284.35736270 0 124.56523293 0 8289.94879099 0 1248.05911899 0 -2553.63718536 0 8155
0.08850000 0.08849210 19816.30885148 0 -164.58448975 0 7962.01537083 0 1148.49344399 0 720.09818010 0 8718
0.08950000 0.08949900 19881.19235363 0 301.84914319 0 8364.18217217 0 -311.05816401 0 -1735.82777838 0 8571
0.09050000 0.09049190 19533.26150536 0 514.92434600 0 7659.74698040 0 -409.08659912 0 342.30761141 0 8932
0.09150000 0.09150830 19233.57736382 0 118.98746998 0 8267.87730907 0 530.10708550 0 -382.85702746 0 9285
0.09250000 0.09250820 19063.43840264 0 -242.88723109 0 6876.81938782 0 265.64969459 0 -1395.20602890 0 9204
0.09350000 0.09350330 19317.31590078 0 32.70439062 0 8191.35914132 0 418.90230842 0 78.38415072 0 9349
0.09450000 0.09448040 19267.51642648 0 286.32479482 0 6814.67541132 0 30.34640215 0 -1881.72138304 0 9564
0.09550000 0.09549270 18950.53001770 0 421.36011766 0 7517.85729784 0 178.11464091 0 41.00692792 0 10155
0.09650000 0.09649430 18060.23963867 0 310.32947237 0 6875.65481214 0 281.60105404 0 -1293.12265219 0 9913
0.09750000 0.09749140 17762.44100061 0 44.28515300 0 7472.90467661 0 1043.94227596 0 1156.76747691 0 10476
0.09850000 0.09850240 17984.15402760 0 -162.50045385 0 5541.86074074 0 1370.37283894 0 -474.98716403 0 10575
0.09950000 0.09950330 17974.39377429 0 71.35000270 0 5530.38135190 0 82.34315347 0 25.98179432 0 10882
0.10050000 0.10051200 17664.06208368 0 641.64127113 0 5170.03945425 0 -1342.05701313 0 -878.21095644 0 10875
0.10150000 0.10150300 16833.55325620 0 397.87339900 0 6295.95122125 0 2.82066884 0 -1040.15463220 0 11118
0.10250000 0.10250800 16427.94818380 0 -22.51745896 0 5842.27690128 0 -31.07797750 0 -1035.43421878 0 11575
0.10350000 0.10349800 16654.43042548 0 -91.45312991 0 4804.92834191 0 825.28265548 0 -2793.38449859 0 11364
0.10450000 0.10450100 16567.58635338 0 239.46892419 0 4712.86031604 0 629.87129293 0 -1787.82330967 0 12093
0.10550000 0.10551000 15996.50062251 0 488.40085761 0 4690.88865489 0 -357.18090652 0 -1957.55189657 0 12067
0.10650000 0.10649700 15097.11546198 0 587.96764174 0 4919.31185604 0 -356.40452273 0 -1769.77793224 0 12054
0.10750000 0.10749900 14713.24913560 0 311.33211658 0 4711.09681573 0 169.83838975 0 -1947.61418411 0 12807
0.10850000 0.10850100 14197.73030145 0 218.26477386 0 5035.55869125 0 538.88909524 0 -1343.54323352 0 12736
0.10950000 0.10950300 14123.08654599 0 -38.62098963 0 4071.76695004 0 708.83285136 0 -604.88393532 0 12933
0.11050000 0.11050200 14055.65206854 0 -256.38410866 0 4088.41483666 0 1003.78770652 0 -322.31905627 0 13428
0.11150000 0.11150900 14946.71883136 0 -355.37193230 0 2470.41993466 0 815.98712332 0 141.71222341 0 13453
0.11250000 0.11250000 15274.68552512 0 -311.28442443 0 2726.29384825 0 173.73805460 0 -652.16238056 0 13668
0.11350000 0.11349100 14924.64734944 0 364.59869904 0 2538.97462299 0 -995.28075847 0 -374.91462132 0 13791
0.11450000 0.11448600 15263.48341620 0 394.88210319 0 4195.24524567 0 -1184.44001330 0 -109.76147962 0 14205
0.11550000 0.11549300 14376.07674838 0 219.40605803 0 4240.98534188 0 -133.23078510 0 -799.10632156 0 14776
0.11650000 0.11649800 14576.05102935 0 185.52577871 0 5308.18031224 0 -218.68623935 0 -670.40185394 0 14553
0.11750000 0.11747300 14202.94316402 0 317.89699605 0 5147.76833078 0 -198.06215862 0 -1162.43507855 0 14568
0.11850000 0.11849100 13965.03698948 0 252.94251024 0 5842.66509317 0 74.32310896 0 203.43695266 0 16015
0.11950000 0.11950300 13890.61505795 0 -18.53549743 0 5267.33143388 0 269.80112960 0 -360.62915965 0 15270
0.12050000 0.12050700 13772.60472242 0 -29.63301636 0 5348.39699237 0 613.51954127 0 480.76235028 0 15999
0.12150000 0.12150000 13907.91732519 0 54.91905990 0 4861.89272944 0 -64.14981947 0 -493.67139440 0 15670
0.12250000 0.12250700 13656.25806644 0 51.74509207 0 4582.63857267 0 325.25933258 0 -487.42926876 0 16887
0.12350000 0.12352200 13688.53344956 0 175.07010735 0 5079.03618329 0 -224.44478880 0 -478.71935180 0 16407
0.12450000 0.12449800 13278.38098641 0 78.03777264 0 4106.95931796 0 -111.59407809 0 -1038.32458470 0 16306
0.12550000 0.12549900 13400.93871269 0 79.70200674 0 4538.24051129 0 726.00202424 0 -588.25379462 0 17523
0.12650000 0.12650100 13271.94809218 0 59.23209365 0 3734.22855332 0 322.25916381 0 -644.02033288 0 17154
0.12750000 0.12750600 13092.04887768 0 -18.56522184 0 3774.02376797 0 584.72235751 0 -241.74372868 0 18007
0.12850000 0.12850300 13094.82167692 0 247.23608941 0 3628.44071682 0 -94.80666422 0 -127.63194888 0 17496
0.12950000 0.12949900 12492.90241854 0 268.91937945 0 3706.42292257 0 -416.82270899 0 231.04516011 0 18405
0.13050000 0.13049000 12830.85118955 0 119.96682267 0 4274.75803659 0 -56.68766216 0 175.61357600 0 18100
0.13150000 0.13148800 12433.34269093 0 82.68842243 0 4599.20882091 0 120.37054224 0 629.68939730 0 19059
0.13250000 0.13249300 12402.17642750 0 159.93838735 0 4110.16467388 0 407.08352895 0 373.60918744 0 18957
0.13350000 0.13349100 12044.59623789 0 120.29512210 0 4624.03091968 0 100.98523730 0 946.81666428 0 19468
0.13450000 0.13450700 12112.36345125 0 256.60260523 0 4501.97229727 0 147.93882137 0 1435.23415869 0 19953
0.13550000 0.13551000 11720.62237503 0 118.05913680 0 4757.31383341 0 331.47483935 0 1779.79328308 0 19956
0.13650000 0.13649900 11586.08615605 0 87.72349311 0 4377.00778125 0 292.88856517 0 2236.58422940 0 19723
0.13750000 0.13749600 11533.62479449 0 55.82521069 0 4325.94391050 0 284.24519539 0 1772.39545472 0 20946
0.13850000 0.13851100 11498.02205228 0 65.20880695 0 4196.48745972 0 -41.24172856 0 1977.18331517 0 20955
0.13950000 0.13949800 11293.94402844 0 172.57902451 0 4173.51759084 0 173.30993439 0 2092.70922258 0 20506
0.14050000 0.14048300 11141.10733449 0 30.34351843 0 4076.02596967 0 117.46575776 0 2070.31609595 0 21447
0.14150000 0.14148400 11192.90322424 0 -11.42737113 0 3537.63708741 0 477.28415091 0 1730.70364539 0 21771
0.14250000 0.14249400 11038.66903948 0 224.01555948 0 3913.20719847 0 -89.44861788 0 1618.07254038 0 22470
0.14350000 0.14350900 10745.61743371 0 251.80898991 0 3412.38420027 0 -27.97854251 0 1751.16690376 0 22519
0.14450000 0.14449900 10348.81877169 0 122.75958606 0 3780.62303015 0 188.89417523 0 2187.78296282 0 22218
0.14550000 0.14550500 10447.64133650 0 -5.45077983 0 3235.93434802 0 290.00929044 0 1879.46987006 0 23559
0.14650000 0.14650700 10524.55878733 0 -50.88663342 0 3046.06414747 0 657.11903647 0 1965.00518092 0 23044
0.14750000 0.14750500 10333.10254561 0 100.29414482 0 2855.43974552 0 150.07387679 0 2115.37962915 0 23649
0.14850000 0.14849900 10047.91459848 0 286.18504574 0 2864.78962454 0 -437.66195894 0 2266.68573791 0 23640
0.14950000 0.14949500 9897.98379814 0 236.21698524 0 3319.27360189 0 -491.62174121 0 1483.52523020 0 24457
0.15050000 0.15050000 9674.66254759 0 214.79988394 0 3331.87320162 0 -267.19248008 0 1223.21483783 0 24591
0.15150000 0.15149900 9373.88037755 0 61.13123931 0 3853.56983248 0 -124.91238739 0 869.04186392 0 25020
0.15250000 0.15250500 9682.98094530 0 -200.99023462 0 3490.13349088 0 377.53214380 0 1139.19902095 0 25297
0.15350000 0.15350100 9726.84662923 0 -141.92073791 0 3022.15152685 0 513.69655049 0 -37.38576303 0 25452
0.15450000 0.15450400 9902.20954418 0 34.66531424 0 2789.19202615 0 -1.93145431 0 217.72352345 0 26061
0.15550000 0.15549900 9648.03258371 0 212.94876317 0 2436.14813609 0 -89.19329853 0 -24.82176603 0 26128
0.15650000 0.15649500 9435.25906146 0 196.50717281 0 2748.79788686 0 -196.42509795 0 176.64283908 0 26331
0.15750000 0.15749700 9215.26516999 0 220.73145607 0 2672.87864375 0 -102.79221511 0 -586.25294269 0 27345
0.15850000 0.15849900 9006.19610752 0 118.86768505 0 3062.47911895 0 220.07485721 0 -62.62322712 0 26980
0.15950000 0.15949700 8773.79116666 0 121.58391919 0 2582.18592630 0 54.54173738 0 -386.88756843 0 27777
0.16050000 0.16050000 8723.80314202 0 45.99197730 0 2633.44943860 0 296.95681621 0 273.38469534 0 28224
0.16150000 0.16150500 8618.73623333 0 -39.17987504 0 2560.82428098 0 231.84039893 0 -146.56462207 0 28075
0.16250000 0.16249700 8793.24512611 0 63.41813321 0 2540.06156029 0 136.82876939 0 123.69568308 0 28590
0.16350000 0.16349900 8697.55027884 0 64.69861189 0 2477.07465283 0 -106.80567564 0 432.41360454 0 29163
0.16450000 0.16449100 8664.36541757 0 -12.06988417 0 2374.76945217 0 -43.92535457 0 156.32598451 0 28996
0.16550000 0.16550500 8713.44396407 0 -60.83865353 0 2499.95579213 0 151.54124214 0 168.47195428 0 30777
0.16650000 0.16650700 8893.39863455 0 -3.97146926 0 2186.82911989 0 189.19585578 0 86.51311079 0 29211
0.16750000 0.16749900 8740.68394377 0 106.12345611 0 2368.54729069 0 -190.65989378 0 -102.54343956 0 30922
0.16850000 0.16850800 8634.06426751 0 254.61728098 0 2609.13753489 0 -195.39805312 0 36.92470197 0 30867
0.16950000 0.16949900 8286.93198542 0 102.92320214 0 2424.13636979 0 21.93395108 0 -69.41170513 0 30852
0.17050000 0.17049200 8326.21700502 0 97.11119312 0 2677.62567604 0 14.37940411 0 -100.26674956 0 31257
0.17150000 0.17149500 8160.37033705 0 119.20485744 0 2308.39972964 0 176.01507733 0 -223.26468545 0 32608
0.17250000 0.17250900 7965.84183377 0 100.07176632 0 2886.48400577 0 96.58092299 0 148.28708496 0 32361
0.17350000 0.17350400 7840.55567305 0 104.21943033 0 2338.25723182 0 116.42096701 0 685.68441421 0 32508
0.17450000 0.17449800 7946.22150637 0 -34.18484359 0 2504.22590295 0 404.07005074 0 868.88991452 0 32791
0.17550000 0.17549800 7843.94957931 0 -36.23494043 0 2055.76444555 0 275.46984036 0 682.45576678 0 33633
0.17650000 0.17650100 7863.53663312 0 97.07503582 0 2262.47108307 0 171.30797334 0 1242.26951419 0 33984
0.17750000 0.17750300 7708.75897971 0 153.77611833 0 2096.96824221 0 -222.47721046 0 1055.50263054 0 34069
