### header ###
fiducial parameters:
Omega_m = 0.31
Omega_nu = 0
Omega_de = 0.69
Omega_k = 0
H_0 = 100
w_de = -1
zeff = 0
beta = 0
fgrowth = 0
b_1 = 2
gamma = 0.55
Lx = 3500 Ly = 3500 Lz = 3500
nx = 700 ny = 700 nz = 700
xoffset = 1379.75464 yoffset = 22.6059522 zoffset = 368.141391
bins = 400 dk = 0.001
kx_ny = 0.628318531 ky_ny = 0.628318531 kz_ny = 0.628318531
############################
A(data) = 3.32757214 (not used)
A(ran) = 3.3257123 (used)
Ngal = 186616
weighted Ngal = 0
Nran = 9399747
weighted Nran = 0
SN(data) = 6623.27472
SN(ran) = 132.28148
SN(data+ran) = 6755.5562
############################
13 columns: k_central k_mean P_0(k) sigma^{lin}_{P_0(k)} P^img_1(k) sigma^{lin}_{P_1(k)} P_2(k) sigma^{lin}_{P_2(k)} P^img_3(k) sigma^{lin}_{P_3(k)} P_4(k) sigma^{lin}_{P_4(k)} N_modes
### header ###
0.00050000 0 0 0 0 0 0 0 0 0 0 0 0
0.00150000 0.00179520 11112.38113439 0 -19455.06856688 0 -20448.06342965 0 13573.18500130 0 25553.00864901 0 3
0.00250000 0.00253879 21963.01002081 0 -17404.19533918 0 -15742.29038846 0 -24980.48106254 0 -20485.21893943 0 6
0.00350000 0.00331552 35269.67355944 0 -12873.10864992 0 -23046.17631477 0 -3974.57479118 0 1992.57789654 0 7
0.00450000 0.00420575 48311.36840298 0 -9691.08861027 0 -16284.98265514 0 -37732.03019391 0 -8911.12236728 0 24
0.00550000 0.00557378 56336.62577880 0 501.71362131 0 -3247.81301995 0 -41546.62556032 0 -3005.22636030 0 45
0.00650000 0.00659388 66311.60466616 0 3138.70891557 0 19455.17947885 0 -15974.87278846 0 -19796.34469697 0 40
0.00750000 0.00754703 56186.11823621 0 2900.78055864 0 11024.99359364 0 498.37184367 0 -12005.00066479 0 57
0.00850000 0.00846663 73214.76564673 0 -4291.80520630 0 26305.76818589 0 9871.43147264 0 -16121.72023606 0 75
0.00950000 0.00948925 66077.02585070 0 -379.27124348 0 19801.11391166 0 4316.13929240 0 -3088.41033741 0 112
0.01050000 0.01054430 72846.75973199 0 -1133.36505135 0 9339.90804130 0 14453.82603898 0 -6757.44483507 0 105
0.01150000 0.01145670 74959.07819078 0 -6685.87334116 0 18417.15435646 0 13135.08272184 0 -3473.41905708 0 144
0.01250000 0.01249090 78690.82231597 0 -1170.42074036 0 2965.18713932 0 -8491.95276101 0 -16444.47406725 0 169
0.01350000 0.01339930 80654.62964763 0 2218.19502486 0 -1723.21708745 0 -14620.41581715 0 -8139.69634594 0 180
0.01450000 0.01448870 79854.28887584 0 2288.32466316 0 12244.23778296 0 -5602.50740565 0 -22056.50881108 0 267
0.01550000 0.01550050 82665.90730222 0 -30.46041965 0 10724.97671619 0 -15851.87141431 0 -33043.55941996 0 238
0.01650000 0.01653350 75372.66892498 0 1353.08166290 0 19244.33582486 0 7916.51928095 0 -25901.71588106 0 315
0.01750000 0.01747870 74466.07448643 0 3293.71948412 0 9528.15892710 0 -6435.98867392 0 -32701.06325820 0 297
0.01850000 0.01844180 66766.45465300 0 5650.05536697 0 19085.50988456 0 -2919.42486071 0 -14438.85292310 0 388
0.01950000 0.01947590 63907.69863960 0 5640.40602562 0 23795.71940453 0 -2851.93492728 0 -28280.66671449 0 399
0.02050000 0.02045430 58215.47454183 0 3497.91951114 0 30420.26951777 0 -3865.73687553 0 -17825.99355912 0 462
0.02150000 0.02154770 54078.45808014 0 1680.17215210 0 28344.10836103 0 4399.53400225 0 -9213.32421053 0 571
0.02250000 0.02255340 50477.92281484 0 -1812.98923555 0 28866.72556123 0 10558.00983733 0 -2984.00890054 0 510
0.02350000 0.02348930 60286.42283600 0 -4148.75094806 0 12819.20543276 0 13217.71213911 0 3790.78256655 0 555
0.02450000 0.02439640 59883.03600300 0 -2838.73640291 0 16500.81734775 0 7320.26762421 0 -2503.39406318 0 592
0.02550000 0.02547300 62920.24937530 0 1836.60239385 0 9025.00677754 0 -1634.21023194 0 7538.06545868 0 837
0.02650000 0.02652900 61300.15823707 0 1604.66328327 0 18061.90331821 0 -4960.26055517 0 5985.39770670 0 723
0.02750000 0.02749970 56078.75544976 0 5376.29135270 0 19617.00004232 0 -4966.66017581 0 2678.08041512 0 826
0.02850000 0.02848090 55050.15784478 0 1960.79052608 0 28664.42212889 0 -1472.70022198 0 3306.11944231 0 831
0.02950000 0.02946900 48423.61131609 0 3125.38838804 0 33377.07171219 0 3337.92899516 0 14740.75530404 0 996
0.03050000 0.03053250 48432.04062577 0 832.48527878 0 29378.69521236 0 7180.88455216 0 8756.65526738 0 1041
0.03150000 0.03150510 45819.73100856 0 -1127.34253141 0 25366.67654028 0 6532.70391131 0 10590.93960107 0 1036
0.03250000 0.03246190 46731.64922164 0 1815.00783339 0 25626.54328478 0 5341.25426154 0 18286.38914444 0 1059
0.03350000 0.03345080 45519.04865929 0 -175.90971096 0 17528.19492106 0 4860.60615059 0 10278.52276543 0 1302
0.03450000 0.03451200 45403.47838709 0 226.18167025 0 18287.83100005 0 -785.20239707 0 10657.02095249 0 1339
0.03550000 0.03553350 44109.13570323 0 1834.92762311 0 17049.38794881 0 -2878.26542884 0 6783.99716056 0 1365
0.03650000 0.03647120 41370.05370490 0 1530.28571654 0 18637.42552785 0 -683.33197134 0 2828.64341369 0 1308
0.03750000 0.03744890 42097.96896061 0 -692.71956044 0 15047.42689965 0 2153.42243468 0 1331.79765595 0 1579
0.03850000 0.03847530 43054.80652134 0 -2268.58233259 0 12671.47068941 0 5807.04016857 0 -72.57280717 0 1662
0.03950000 0.03950240 44843.04020530 0 -994.04187177 0 5444.03638366 0 4727.50069601 0 955.02193178 0 1683
0.04050000 0.04050350 44384.19738755 0 565.31276285 0 9703.66602761 0 194.91558605 0 -1839.91866174 0 1822
0.04150000 0.04152450 44805.44104764 0 1370.29520056 0 2517.10278261 0 -2344.21320458 0 -2066.63381856 0 1887
0.04250000 0.04250150 41782.31349547 0 1453.20189775 0 10404.74058670 0 -2705.15402687 0 -2894.05929329 0 1920
0.04350000 0.04349210 39912.55951393 0 2264.64495768 0 7937.47055198 0 -3183.45080406 0 -1099.07772511 0 2005
0.04450000 0.04448520 38353.13722301 0 70.12886192 0 10743.95375417 0 3339.95868420 0 -2203.05554102 0 2151
0.04550000 0.04548030 38778.15189007 0 -783.07177814 0 9202.61011427 0 2897.88575624 0 -2162.02920351 0 2274
0.04650000 0.04648670 39462.25691784 0 166.63525207 0 6606.33836785 0 2445.26509998 0 135.82057959 0 2311
0.04750000 0.04749250 37305.46275929 0 1116.58407037 0 9904.71615469 0 -1322.49214171 0 1289.01890932 0 2568
0.04850000 0.04851840 37640.41690712 0 957.58510740 0 8466.30991367 0 -1096.00879091 0 6077.79846847 0 2493
0.04950000 0.04949480 37195.77082147 0 -168.50966435 0 10337.67211876 0 1858.60732860 0 -643.02212515 0 2644
0.05050000 0.05050630 38107.46721061 0 -271.00785183 0 8510.53051590 0 688.74225721 0 5595.26485405 0 2829
0.05150000 0.05149060 36726.94592647 0 -219.40162155 0 12642.18992946 0 490.90746813 0 4140.77637745 0 2784
0.05250000 0.05249300 37907.27110570 0 1239.97363642 0 10617.74702409 0 -3626.66612531 0 2523.02548178 0 3055
0.05350000 0.05348950 37710.51327183 0 365.33182716 0 12943.09410267 0 -459.10678824 0 1127.22052824 0 3009
0.05450000 0.05448610 36890.20834554 0 -75.59959481 0 14654.02214390 0 -238.77239702 0 1173.48191071 0 3336
0.05550000 0.05550870 38265.40585515 0 171.93018949 0 14400.81011757 0 -1249.88916649 0 -1593.20607682 0 3349
0.05650000 0.05647670 37178.02490635 0 542.12883387 0 15742.29038846 0 -620.28960789 0 -2334.89659915 0 3324
0.05750000 0.05747970 36882.77724359 0 285.17907417 0 15887.91780439 0 457.55069330 0 -2152.23567661 0 3639
0.05850000 0.05849280 37554.23830683 0 270.30023347 0 14821.49921782 0 1047.23747057 0 -3313.91655377 0 3846
0.05950000 0.05951020 35764.23003136 0 603.94007446 0 17182.81504809 0 895.75944825 0 -864.67193232 0 3787
0.06050000 0.06049470 35811.58944233 0 631.26323815 0 15477.43260534 0 1481.98355383 0 154.64455905 0 3930
0.06150000 0.06148310 34730.53047579 0 393.54894131 0 14573.05640618 0 3229.26853866 0 3559.43128941 0 4083
0.06250000 0.06249100 33698.05095188 0 8.39289728 0 12347.71865049 0 2042.72119794 0 3940.58027254 0 4303
0.06350000 0.06350600 33799.64631592 0 172.46811254 0 12068.77504724 0 2410.11709685 0 6119.50136900 0 4470
0.06450000 0.06451750 33280.57829875 0 748.04577817 0 12861.35198116 0 -1248.83550278 0 3586.18325645 0 4479
0.06550000 0.06550280 31871.55263844 0 1310.87965851 0 12344.50220337 0 -2658.46008772 0 3543.80379291 0 4636
0.06650000 0.06648880 31674.24024473 0 490.53924039 0 14467.02456335 0 -652.20009063 0 3084.02931462 0 4653
0.06750000 0.06749660 30687.45645225 0 600.44523831 0 15345.44736165 0 -620.25744341 0 -965.21806914 0 5220
0.06850000 0.06852730 30683.35270938 0 454.98197209 0 15990.06772828 0 -408.77715472 0 1223.52539134 0 5029
0.06950000 0.06949320 30007.78790326 0 28.07315042 0 16166.30684779 0 1006.85996808 0 -2235.64147766 0 5040
0.07050000 0.07048030 29299.28224221 0 782.76344286 0 16119.50199667 0 280.42982364 0 -739.04194449 0 5475
0.07150000 0.07148790 29424.94550363 0 577.05944954 0 15573.03872303 0 -208.87829389 0 -1449.56398515 0 5509
0.07250000 0.07249820 27771.80259850 0 363.74578599 0 15707.35311807 0 1524.68466208 0 1270.56315760 0 5916
0.07350000 0.07351270 28211.67946947 0 11.77352738 0 15002.84028792 0 673.86452562 0 -1187.31263331 0 5721
0.07450000 0.07449140 27225.22841289 0 362.31613071 0 13904.47905414 0 2160.94226621 0 -44.78214953 0 6028
0.07550000 0.07549160 26546.66898360 0 627.54103245 0 12081.41901176 0 1399.90869641 0 732.06336337 0 6183
0.07650000 0.07648840 25432.33642621 0 594.32289759 0 12336.73836551 0 487.15975268 0 1739.43241739 0 6330
0.07750000 0.07749960 25047.13915620 0 924.86163992 0 11390.43744189 0 981.00638799 0 1968.43236078 0 6583
0.07850000 0.07848650 23467.19815093 0 291.71400741 0 11116.70670120 0 1182.88724572 0 2200.54893051 0 6549
0.07950000 0.07947320 22713.66223027 0 199.60938060 0 8285.04648194 0 1459.72352155 0 3160.78039750 0 6828
0.08050000 0.08048110 23332.10737210 0 -156.13632504 0 9536.79896952 0 1342.84448811 0 3368.60724592 0 7147
0.08150000 0.08149960 22550.06707528 0 256.36747186 0 7943.57071030 0 1437.56331005 0 4572.70086021 0 7386
0.08250000 0.08250610 22940.36629589 0 49.36991224 0 8078.17347647 0 555.42717901 0 5031.44385718 0 7227
0.08350000 0.08350160 22208.45820927 0 24.25400766 0 7064.71535532 0 -99.15984811 0 4471.56023524 0 7798
0.08450000 0.08449610 22651.66243932 0 214.62131567 0 7341.28544242 0 382.13166318 0 6279.23678745 0 7371
0.08550000 0.08548940 22231.74972286 0 -30.85593173 0 7338.08008650 0 395.77050806 0 3961.89755307 0 8256
0.08650000 0.08650700 22534.87213546 0 318.10329231 0 7689.08319632 0 25.07298165 0 4906.24642603 0 8037
0.08750000 0.08749060 21670.75698122 0 543.63945490 0 7414.96426375 0 -911.70637122 0 2957.76712856 0 8155
0.08850000 0.08849210 21256.05712733 0 908.58419928 0 8643.62487928 0 -906.56671056 0 3305.01032262 0 8718
0.08950000 0.08949900 20195.07322726 0 345.28559779 0 8151.19791717 0 -256.01588092 0 1432.91609853 0 8571
0.09050000 0.09049190 19758.08006750 0 130.34818301 0 7960.90625113 0 1105.51394669 0 1672.79650612 0 8932
0.09150000 0.09150830 19314.43218957 0 131.74123735 0 7432.93200281 0 527.93099266 0 -225.72249469 0 9285
0.09250000 0.09250820 19172.90851651 0 332.44420997 0 6316.72503313 0 -227.40835663 0 -763.85517030 0 9204
0.09350000 0.09350330 18563.00359633 0 372.14293120 0 6212.77833533 0 217.16896361 0 -137.93899821 0 9349
0.09450000 0.09448040 18141.87084821 0 375.26843050 0 6294.34299769 0 -15.09567361 0 -981.30141383 0 9564
0.09550000 0.09549270 17524.31300213 0 106.03029006 0 5608.36355764 0 476.06190101 0 -287.63577430 0 10155
0.09650000 0.09649430 18034.61897372 0 -142.12481593 0 6301.43027254 0 1009.39763394 0 89.27903348 0 9913
0.09750000 0.09749140 17829.43183018 0 -273.98029261 0 4561.60966326 0 1207.15478465 0 1714.69904820 0 10476
0.09850000 0.09850240 18273.74517992 0 -98.71387108 0 4526.79439604 0 607.63787953 0 1066.59715484 0 10575
0.09950000 0.09950330 18426.13822599 0 130.13190467 0 5094.97423330 0 -16.35064254 0 2434.65082450 0 10882
0.10050000 0.10051200 18147.08371077 0 336.55682580 0 5351.18088281 0 -472.62806643 0 1821.62927797 0 10875
0.10150000 0.10150300 17875.12756160 0 445.46128863 0 5526.39961219 0 -661.52445990 0 2043.33121377 0 11118
0.10250000 0.10250800 17068.46480756 0 181.86013812 0 6481.88404689 0 305.32845167 0 2967.19464597 0 11575
0.10350000 0.10349800 17085.76707480 0 282.80444891 0 6248.44762472 0 218.18713549 0 1482.26083375 0 11364
0.10450000 0.10450100 16905.20238848 0 170.20107189 0 6167.53734298 0 575.50335461 0 2088.77184767 0 12093
0.10550000 0.10551000 16444.36315528 0 88.33251074 0 5088.19751197 0 412.32966511 0 830.29254914 0 12067
0.10650000 0.10649700 16164.42134431 0 357.76097612 0 5537.12479964 0 -483.07264660 0 2227.50053910 0 12054
0.10750000 0.10749900 16151.11190797 0 218.36903112 0 5640.30620485 0 -448.22188755 0 663.95675939 0 12807
0.10850000 0.10850100 15577.69702575 0 165.82337645 0 5468.17082822 0 -126.06254451 0 13.47591520 0 12736
0.10950000 0.10950300 15480.87087639 0 130.94156205 0 5941.33238122 0 -588.91150260 0 -837.47299005 0 12933
0.11050000 0.11050200 15396.91051549 0 130.80514033 0 5516.17352861 0 -202.20361156 0 -1570.30275513 0 13428
0.11150000 0.11150900 15517.91547420 0 85.72142115 0 6774.03726570 0 -487.61005527 0 -1518.40704461 0 13453
0.11250000 0.11250000 15223.11145931 0 37.51896830 0 6064.99922720 0 45.46769642 0 -2458.46362435 0 13668
0.11350000 0.11349100 15270.13813437 0 33.48188352 0 6346.24979941 0 343.62968209 0 -1555.20763608 0 13791
0.11450000 0.11448600 15064.39643098 0 -76.24709889 0 5693.76577414 0 534.79533445 0 -2467.01493719 0 14205
0.11550000 0.11549300 15463.67952112 0 202.35667008 0 6489.47042560 0 6.12032212 0 -1913.10947040 0 14776
0.11650000 0.11649800 15011.38050957 0 407.36413623 0 5836.95312674 0 -536.90598923 0 -2321.88662513 0 14553
0.11750000 0.11747300 14543.44291033 0 406.58331597 0 6390.28185129 0 33.13750186 0 -738.42194658 0 14568
0.11850000 0.11849100 14059.31216354 0 160.05151756 0 6465.72417294 0 -59.51436462 0 -1866.47098723 0 16015
0.11950000 0.11950300 13907.58458928 0 235.79108328 0 6246.93922194 0 562.59541960 0 -1984.92497064 0 15270
0.12050000 0.12050700 13392.39849104 0 173.75801875 0 6203.27317955 0 680.95734607 0 -923.56396988 0 15999
0.12150000 0.12150000 13437.20692671 0 -93.31512005 0 5572.26171157 0 630.60220281 0 -969.64123848 0 15670
0.12250000 0.12250700 13370.77065699 0 30.34285296 0 5474.21553055 0 548.45857997 0 -36.97738515 0 16887
0.12350000 0.12352200 13492.99564736 0 143.45797781 0 4775.30375486 0 322.55086229 0 -312.60427687 0 16407
0.12450000 0.12449800 13156.93237983 0 115.93960906 0 4837.60300812 0 72.57613453 0 1226.07636664 0 16306
0.12550000 0.12549900 13180.33480539 0 -2.23352306 0 4880.25975158 0 101.70660875 0 94.71749099 0 17523
0.12650000 0.12650100 13284.48114473 0 67.74503096 0 4733.64521912 0 16.01901575 0 406.94932547 0 17154
0.12750000 0.12750600 12904.27491335 0 244.80933552 0 5095.65079632 0 -359.14848486 0 285.46522705 0 18007
0.12850000 0.12850300 12902.72214578 0 174.54105725 0 5116.54661137 0 -10.53548362 0 403.81273497 0 17496
0.12950000 0.12949900 12708.18255130 0 -66.12915448 0 5299.60681700 0 471.23723034 0 507.72172270 0 18405
0.13050000 0.13049000 12802.12498946 0 32.57440179 0 5029.18125301 0 341.93938367 0 499.81702663 0 18100
0.13150000 0.13148800 12739.68155064 0 111.81257467 0 4594.66143016 0 458.98367595 0 1098.96015842 0 19059
0.13250000 0.13249300 12448.09398287 0 214.03902783 0 4878.51843366 0 -72.31260769 0 644.54494649 0 18957
0.13350000 0.13349100 12296.69914452 0 201.16547553 0 4868.69163316 0 246.20904457 0 1500.32839358 0 19468
0.13450000 0.13450700 12028.40309035 0 147.10254512 0 4857.89989853 0 29.11372652 0 1483.74705414 0 19953
0.13550000 0.13551000 11659.95352773 0 382.55423778 0 5259.92251432 0 -247.20170670 0 1131.16899436 0 19956
0.13650000 0.13649900 11333.53960154 0 278.86263751 0 4948.22660648 0 -303.53833248 0 825.93259962 0 19723
0.13750000 0.13749600 10966.29897939 0 154.33289641 0 5387.95929189 0 191.57380841 0 746.49522884 0 20946
0.13850000 0.13851100 11171.05356625 0 -151.98489002 0 4622.50033450 0 801.80259154 0 1261.00254583 0 20955
0.13950000 0.13949800 11140.99642252 0 -333.16291953 0 3643.22528236 0 951.77221108 0 708.89828942 0 20506
0.14050000 0.14048300 11560.35457913 0 -33.09180613 0 3244.05310419 0 396.12431725 0 832.98660088 0 21447
0.14150000 0.14148400 11195.45419954 0 224.14865384 0 2894.36984681 0 -165.05697474 0 496.69152733 0 21771
0.14250000 0.14249400 11034.06619274 0 289.22181546 0 3041.79403664 0 -338.04304619 0 659.50808029 0 22470
0.14350000 0.14350900 10873.21056340 0 -48.51910652 0 2819.12716671 0 279.66453105 0 493.45844342 0 22519
0.14450000 0.14449900 10806.63010812 0 -46.50993619 0 2826.40299191 0 386.02023683 0 78.31516348 0 22218
0.14550000 0.14550500 10959.96590593 0 -59.28178222 0 2161.64101162 0 161.44568102 0 -74.28706257 0 23559
0.14650000 0.14650700 10810.26802072 0 84.03145547 0 2383.26530904 0 -58.19040844 0 -232.94064567 0 23044
0.14750000 0.14750500 10962.47251644 0 147.73474335 0 2188.77007935 0 -162.45054346 0 -374.79927287 0 23649
0.14850000 0.14849900 10529.27254604 0 194.94109580 0 2363.42315770 0 -62.90904727 0 -602.07675338 0 23640
0.14950000 0.14949500 10428.42029219 0 231.32133091 0 2322.36354659 0 -228.56073199 0 -586.91508715 0 24457
0.15050000 0.15050000 10114.69469531 0 271.50473745 0 2867.78424772 0 -103.02080468 0 -685.17421915 0 24591
0.15150000 0.15149900 9683.42459318 0 259.98874766 0 2797.45496787 0 -111.26466955 0 -645.65184795 0 25020
0.15250000 0.15250500 9579.36698341 0 218.79826044 0 3300.50729666 0 -85.90187492 0 -535.38760437 0 25297
0.15350000 0.15350100 9282.20054357 0 134.41865229 0 3041.28384158 0 250.15972893 0 -311.91773177 0 25452
0.15450000 0.15450400 9019.72736779 0 80.14665283 0 3344.14006545 0 293.43536118 0 206.01121948 0 26061
0.15550000 0.15549900 9062.61702639 0 52.71446268 0 2657.99425744 0 335.01182206 0 515.65081940 0 26128
0.15650000 0.15649500 8945.48289542 0 8.35382299 0 2513.45377882 0 587.67927062 0 526.36380653 0 26331
0.15750000 0.15749700 8968.63022345 0 55.35882586 0 2424.65765605 0 102.54221953 0 787.61695064 0 27345
0.15850000 0.15849900 8630.13798379 0 151.90725164 0 2269.30326039 0 -28.86350911 0 1212.80020389 0 26980
0.15950000 0.15949700 8624.89184763 0 119.23702191 0 2338.96706843 0 -39.60056414 0 500.17970877 0 27777
0.16050000 0.16050000 8642.10538530 0 10.19000392 0 2258.50043457 0 -212.29105519 0 680.33956640 0 28224
0.16150000 0.16150500 8593.42612189 0 58.28889827 0 2207.83584691 0 -18.46695383 0 108.53179862 0 28075
0.16250000 0.16249700 8483.76745766 0 10.30368869 0 2365.15338442 0 -188.79546357 0 -132.33239815 0 28590
0.16350000 0.16349900 8646.55295527 0 -85.39689273 0 1973.76722651 0 251.60269365 0 -155.59729287 0 29163
0.16450000 0.16449100 8728.92727501 0 -1.17419175 0 2639.95997121 0 32.61510648 0 -279.18206398 0 28996
0.16550000 0.16550500 8530.27284647 0 136.72118478 0 1924.77740959 0 -239.82938809 0 -561.11918129 0 30777
0.16650000 0.16650700 8501.75737911 0 221.12297532 0 2930.89315836 0 -397.08259666 0 -745.86081237 0 29211
0.16750000 0.16749900 8272.31378785 0 157.01696608 0 2517.04732663 0 -231.98125713 0 -585.23698905 0 30922
0.16850000 0.16850800 8180.36776515 0 56.63819542 0 3206.98632399 0 109.13970712 0 -515.60312725 0 30867
0.16950000 0.16949900 8306.19739452 0 -76.23378946 0 2819.38226424 0 249.97117858 0 -258.86853677 0 30852
0.17050000 0.17049200 8388.72699102 0 -58.37197133 0 2721.25844484 0 262.04061910 0 -663.36559859 0 31257
0.17150000 0.17149500 8297.06933944 0 118.86324857 0 2899.82671570 0 -46.24086376 0 -460.78932281 0 32608
0.17250000 0.17250900 8172.88120721 0 230.73460659 0 2812.10643904 0 -341.34600464 0 -0.50036160 0 32361
0.17350000 0.17350400 7992.82671595 0 81.58451560 0 3265.62548225 0 111.99225206 0 32.38751512 0 32508
0.17450000 0.17449800 7991.49577232 0 -18.89618315 0 2908.46675813 0 434.38894672 0 235.77222825 0 32791
0.17550000 0.17549800 7960.75097437 0 -54.28863626 0 2825.84843206 0 492.05762525 0 -62.28627656 0 33633
0.17650000 0.17650100 8154.64727942 0 4.01460292 0 2219.14886779 0 287.95409165 0 952.36115363 0 33984
0.17750000 0.17750300 7908.52252795 0 50.07109771 0 2084.76792557 0 10.74221244 0 485.66798669 0 34069
0.17850000 0.17849800 7952.96495412 0 72.28698702 0 2093.26378243 0 264.47291859 0 836.89957516 0 34536
