### header ###
fiducial parameters:
Omega_m = 0.31
Omega_nu = 0
Omega_de = 0.69
Omega_k = 0
H_0 = 100
w_de = -1
zeff = 0
beta = 0
fgrowth = 0
b_1 = 2
gamma = 0.55
Lx = 3500 Ly = 3500 Lz = 3500
nx = 700 ny = 700 nz = 700
xoffset = 1379.75464 yoffset = 22.6059522 zoffset = 368.141391
bins = 400 dk = 0.001
kx_ny = 0.628318531 ky_ny = 0.628318531 kz_ny = 0.628318531
############################
A(data) = 3.34240763 (not used)
A(ran) = 3.34335326 (used)
Ngal = 187773
weighted Ngal = 0
Nran = 9399747
weighted Nran = 0
SN(data) = 6619.24822
SN(ran) = 132.983156
SN(data+ran) = 6752.23138
############################
13 columns: k_central k_mean P_0(k) sigma^{lin}_{P_0(k)} P^img_1(k) sigma^{lin}_{P_1(k)} P_2(k) sigma^{lin}_{P_2(k)} P^img_3(k) sigma^{lin}_{P_3(k)} P_4(k) sigma^{lin}_{P_4(k)} N_modes
### header ###
0.00050000 0 0 0 0 0 0 0 0 0 0 0 0
0.00150000 0.00179520 56630.32067399 0 -56934.55220628 0 -74626.23137036 0 78882.25637530 0 45012.18095876 0 3
0.00250000 0.00253879 87402.62478290 0 -47014.47474382 0 -26810.97220688 0 -90817.16067538 0 -1630.46140737 0 6
0.00350000 0.00331552 115200.93534210 0 -20328.38941458 0 -74344.73679181 0 -27767.36611972 0 -13951.06208132 0 7
0.00450000 0.00420575 123152.21443428 0 3243.59836511 0 -39672.43510001 0 -77187.52148161 0 -9927.93002990 0 24
0.00550000 0.00557378 105224.62551112 0 16092.99403596 0 -11264.77418046 0 -46562.17573227 0 372.45237560 0 45
0.00650000 0.00659388 86877.67843134 0 2914.89965236 0 5481.10316386 0 18288.38555989 0 5244.35047380 0 40
0.00750000 0.00754703 80399.42120585 0 -2864.73416856 0 1985.14679458 0 5042.93433722 0 904.10446483 0 57
0.00850000 0.00846663 93792.26334477 0 -9208.97646132 0 -16324.57822824 0 21320.82971751 0 -26463.48500649 0 75
0.00950000 0.00948925 95939.85180985 0 -2260.00883735 0 -16837.65699907 0 -4251.44434060 0 -28628.48665078 0 112
0.01050000 0.01054430 90168.43656587 0 4886.50409546 0 3597.54064213 0 -40490.18905100 0 2470.74157937 0 105
0.01150000 0.01145670 86731.49645556 0 12161.60836570 0 5085.08088562 0 -32290.79988309 0 -29165.74423095 0 144
0.01250000 0.01249090 76025.60768932 0 10229.04493585 0 37348.71842738 0 -19036.37588208 0 -7335.68438796 0 169
0.01350000 0.01339930 66217.55131603 0 9876.82179436 0 41151.66803699 0 -6707.60099598 0 -47056.39946829 0 180
0.01450000 0.01448870 64697.05912640 0 2867.32950865 0 57087.05616432 0 1204.49289738 0 -17036.07851247 0 267
0.01550000 0.01550050 63251.65434011 0 939.75157182 0 54603.73716761 0 13685.98247426 0 -30274.64210184 0 238
0.01650000 0.01653350 61763.99209345 0 813.59253390 0 55316.56839547 0 10699.54460159 0 4829.56189033 0 315
0.01750000 0.01747870 60346.31529952 0 -1326.35187825 0 40988.84926579 0 17141.66670742 0 -11091.19694822 0 297
0.01850000 0.01844180 69860.12221777 0 -5490.73032281 0 43073.88338009 0 22679.94499154 0 20144.83010509 0 388
0.01950000 0.01947590 75845.04300300 0 -6792.69265897 0 25984.78894620 0 16522.11244589 0 6516.74367890 0 399
0.02050000 0.02045430 79514.67642529 0 -1089.56480548 0 15882.59402985 0 1863.25454012 0 7471.35190903 0 462
0.02150000 0.02154770 78737.62716710 0 3275.74065387 0 16373.37949481 0 -7702.57009181 0 10583.09812483 0 571
0.02250000 0.02255340 75059.23169922 0 4019.99324269 0 25969.81583032 0 -6495.43748956 0 7176.31497901 0 510
0.02350000 0.02348930 72433.05808582 0 4302.78549128 0 25087.51111309 0 2218.86049667 0 5342.49647560 0 555
0.02450000 0.02439640 67289.18276517 0 2099.33066716 0 25875.54065626 0 1787.44620898 0 2486.44671425 0 592
0.02550000 0.02547300 65154.01644067 0 839.07455889 0 27895.69126841 0 7608.48346810 0 8425.39448813 0 837
0.02650000 0.02652900 63006.87162346 0 1303.24891501 0 22763.68352850 0 2484.62775795 0 3071.58499164 0 723
0.02750000 0.02749970 60178.72731364 0 845.06047788 0 24314.56559777 0 5741.15845870 0 9153.45392940 0 826
0.02850000 0.02848090 60608.73301932 0 569.98992061 0 16893.22389578 0 629.65390547 0 3263.45160765 0 831
0.02950000 0.02946900 60364.06121464 0 1391.25756279 0 18649.73675647 0 2657.53951837 0 10469.91245997 0 996
0.03050000 0.03053250 56537.82009144 0 497.17621264 0 14766.15414505 0 2540.90449126 0 7847.26584720 0 1041
0.03150000 0.03150510 54855.06369046 0 985.75785677 0 12050.36366030 0 2962.00396580 0 2939.53320078 0 1036
0.03250000 0.03246190 56081.30642505 0 375.85182746 0 7151.31542109 0 5610.99217132 0 6655.72746786 0 1059
0.03350000 0.03345080 52802.08313534 0 19.49654964 0 7482.07709648 0 3200.61997694 0 1709.15344972 0 1302
0.03450000 0.03451200 51928.98411158 0 727.81432582 0 2205.99470821 0 -504.07715538 0 1615.83211860 0 1339
0.03550000 0.03553350 52170.88311702 0 573.85187538 0 -82.34781177 0 -544.51676857 0 -4209.81907846 0 1365
0.03650000 0.03647120 48023.10819429 0 1800.53382138 0 718.00638036 0 -4361.63538228 0 -5368.81588595 0 1308
0.03750000 0.03744890 48054.38536969 0 2731.76180835 0 5972.24354712 0 -5910.03302344 0 -6522.73292525 0 1579
0.03850000 0.03847530 43176.14421595 0 2004.47875086 0 6033.97714933 0 -1005.00995643 0 -7912.22698773 0 1662
0.03950000 0.03950240 42288.29390024 0 925.14557456 0 6399.67609511 0 767.05276238 0 -8589.00073431 0 1683
0.04050000 0.04050350 41801.94491406 0 514.37311351 0 6152.44222394 0 3385.72096281 0 -5363.76939134 0 1822
0.04150000 0.04152450 40674.41383231 0 -843.17386528 0 6602.20135138 0 1851.97479282 0 2043.23139300 0 1887
0.04250000 0.04250150 40607.31209077 0 305.30737839 0 5142.08963794 0 406.86946885 0 -1807.13308356 0 1920
0.04350000 0.04349210 43275.74316454 0 -1188.34411462 0 6056.93592702 0 -354.95601241 0 4117.48486386 0 2005
0.04450000 0.04448520 43245.35328491 0 -79.55027917 0 7537.48871644 0 -1445.20514475 0 -1013.64112589 0 2151
0.04550000 0.04548030 43173.70415262 0 946.09795472 0 5863.23926351 0 -480.98861069 0 3273.34495533 0 2274
0.04650000 0.04648670 42960.86408318 0 1663.01407042 0 13454.95284183 0 -7161.76332862 0 -3689.70848877 0 2311
0.04750000 0.04749250 40438.06042534 0 2074.38656523 0 13367.77603381 0 -2859.48803240 0 -6390.27076010 0 2568
0.04850000 0.04851840 38224.03569054 0 1631.85889819 0 20456.49273933 0 1021.21863165 0 -2741.81043278 0 2493
0.04950000 0.04949480 37728.48101089 0 -21.63382330 0 13786.57963058 0 2325.22507541 0 -5020.28611305 0 2644
0.05050000 0.05050630 37114.02869996 0 -496.28558953 0 15792.31168670 0 6720.75515556 0 -1640.86495011 0 2829
0.05150000 0.05149060 37879.21037742 0 429.75282639 0 9934.28528575 0 787.11008294 0 -882.59087011 0 2784
0.05250000 0.05249300 35442.80714380 0 211.30504778 0 9854.33993815 0 552.51130333 0 -1406.35268184 0 3055
0.05350000 0.05348950 36262.44659827 0 955.61752906 0 10165.10418544 0 -567.28588679 0 1125.33502476 0 3009
0.05450000 0.05448610 35456.89296393 0 -317.92361492 0 8394.23931590 0 -16.65199036 0 -1341.81300680 0 3336
0.05550000 0.05550870 35472.42063965 0 9.41658149 0 9889.66540043 0 776.50800778 0 -783.39785933 0 3349
0.05650000 0.05647670 35164.41810040 0 461.61007139 0 9092.17506626 0 -604.74640448 0 -3077.10840772 0 3324
0.05750000 0.05747970 35294.07419273 0 183.89093628 0 11554.58715672 0 -187.62756053 0 -1878.50493592 0 3639
0.05850000 0.05849280 35026.55452233 0 588.51776511 0 10344.13828658 0 -610.76448795 0 -2860.89661442 0 3846
0.05950000 0.05951020 34338.23483973 0 908.17493411 0 14006.40715409 0 232.41492293 0 845.49636192 0 3787
0.06050000 0.06049470 33438.40603132 0 443.40054424 0 12638.41892250 0 232.33950279 0 1204.55944456 0 3930
0.06150000 0.06148310 32980.11777342 0 -103.69869863 0 13610.67324698 0 2476.32045143 0 3844.14231507 0 4083
0.06250000 0.06249100 32786.57638667 0 488.25999941 0 12407.94384992 0 2345.78815455 0 4127.54457949 0 4303
0.06350000 0.06350600 32412.91396149 0 627.62532555 0 12299.13920785 0 -228.55296815 0 4002.13641560 0 4470
0.06450000 0.06451750 31018.30685722 0 748.68241288 0 10955.89543665 0 349.37048563 0 4942.85846716 0 4479
0.06550000 0.06550280 31126.11329155 0 -149.73337704 0 11343.74350273 0 -16.36849937 0 3508.01250036 0 4636
0.06650000 0.06648880 30400.74901114 0 223.50758266 0 10409.63180456 0 1148.91490947 0 2406.15753954 0 4653
0.06750000 0.06749660 30418.93857413 0 376.19121809 0 8481.85977179 0 -16.33389483 0 1451.10566152 0 5220
0.06850000 0.06852730 29510.56954407 0 216.69093302 0 9632.70454953 0 1323.84526774 0 1789.62008358 0 5029
0.06950000 0.06949320 29245.15720110 0 382.05291568 0 6491.24501711 0 -337.82454961 0 -2640.39252789 0 5040
0.07050000 0.07048030 28995.82709371 0 473.58080025 0 9162.64853167 0 186.99979879 0 -247.62539043 0 5475
0.07150000 0.07148790 27884.48915950 0 607.13212095 0 8154.60291464 0 -77.68429619 0 -694.98660109 0 5509
0.07250000 0.07249820 27119.64021795 0 497.73631809 0 7940.99755261 0 -272.81793517 0 385.83612296 0 5916
0.07350000 0.07351270 26920.44232076 0 245.22081893 0 8721.81781776 0 1053.47183237 0 -872.05312389 0 5721
0.07450000 0.07449140 26382.85200468 0 224.63999387 0 7895.91183702 0 668.29896300 0 145.76272853 0 6028
0.07550000 0.07549160 25789.14023204 0 412.75334883 0 7110.96564660 0 880.16300710 0 1242.96825959 0 6183
0.07650000 0.07648840 25865.89131492 0 93.23903444 0 7974.09368430 0 -339.59803200 0 1527.90110919 0 6330
0.07750000 0.07749960 25372.55487466 0 160.99537842 0 5949.56204936 0 759.00720812 0 345.20463206 0 6583
0.07850000 0.07848650 24957.30046092 0 395.54092029 0 9096.86664257 0 -110.17706677 0 600.19679549 0 6549
0.07950000 0.07947320 24898.62802906 0 347.35965162 0 6622.72006574 0 -587.26113249 0 2199.19580448 0 6828
0.08050000 0.08048110 24529.40208266 0 -157.55045265 0 6721.57590414 0 1671.59865685 0 -909.96505330 0 7147
0.08150000 0.08149960 24890.53145529 0 86.69988654 0 7584.75939783 0 -622.10412771 0 943.87416973 0 7386
0.08250000 0.08250610 24198.66258966 0 661.13072241 0 5708.22869496 0 434.36898256 0 -2277.10037185 0 7227
0.08350000 0.08350160 23702.99699805 0 699.41975251 0 8446.58976549 0 -552.66879833 0 1264.18571936 0 7798
0.08450000 0.08449610 21857.53273783 0 860.08239503 0 7110.03398605 0 -566.13572967 0 17.59141474 0 7371
0.08550000 0.08548940 22385.69553651 0 137.18701505 0 8315.59163834 0 1078.07321632 0 347.63804067 0 8256
0.08650000 0.08650700 21328.92629128 0 116.53742457 0 8563.73498766 0 20.48155884 0 522.78245903 0 8037
0.08750000 0.08749060 21341.23751989 0 623.57703866 0 8046.69665953 0 768.37816042 0 1556.70494767 0 8155
0.08850000 0.08849210 20396.48936384 0 393.41141047 0 7757.00568644 0 739.50333828 0 2863.34776894 0 8718
0.08950000 0.08949900 20357.67017452 0 195.39916224 0 6306.89823264 0 718.76834559 0 2111.44225423 0 8571
0.09050000 0.09049190 19757.08185978 0 154.53697444 0 8352.90242487 0 739.94365880 0 3843.32156650 0 8932
0.09150000 0.09150830 19432.88617298 0 391.30408305 0 6263.77565890 0 696.41292902 0 3374.21939157 0 9285
0.09250000 0.09250820 18785.93665499 0 577.42545904 0 7008.83790510 0 -340.20472047 0 4131.50413680 0 9204
0.09350000 0.09350330 18013.32387558 0 517.20802345 0 6663.91277120 0 -275.04504752 0 3533.88826284 0 9349
0.09450000 0.09448040 17930.69445831 0 -110.95522515 0 6864.64125357 0 905.75483494 0 3369.39472090 0 9564
0.09550000 0.09549270 17948.10763752 0 -132.77271867 0 6864.13105851 0 504.25905101 0 3327.68072918 0 10155
0.09650000 0.09649430 18072.99451516 0 196.21658345 0 5923.75283406 0 -561.43084392 0 1952.00629810 0 9913
0.09750000 0.09749140 17489.26481977 0 321.14117116 0 6077.42136778 0 -261.86648731 0 2158.02528141 0 10476
0.09850000 0.09850240 17100.51836674 0 617.78410649 0 7071.81372137 0 -1120.82090760 0 333.16624689 0 10575
0.09950000 0.09950330 16914.96264180 0 359.47456605 0 7937.34854881 0 -370.01785787 0 1739.07749909 0 10882
0.10050000 0.10051200 16122.27479591 0 117.72640089 0 7998.03957851 0 419.77740386 0 89.30498688 0 10875
0.10150000 0.10150300 16322.80363673 0 -34.57492098 0 7542.18029275 0 175.00910577 0 229.54341204 0 11118
0.10250000 0.10250800 16268.12403577 0 96.40446205 0 7376.57763111 0 536.28931868 0 679.29033917 0 11575
0.10350000 0.10349800 16272.33869062 0 165.76348399 0 8047.19576339 0 -114.69628588 0 355.33089487 0 11364
0.10450000 0.10450100 15975.53826028 0 219.24745391 0 7365.59734613 0 228.97776100 0 793.09378370 0 12093
0.10550000 0.10551000 15632.04389079 0 265.44894392 0 8067.86975450 0 -99.32022682 0 847.23324336 0 12067
0.10650000 0.10649700 15828.46898875 0 -39.57239250 0 7445.36523458 0 403.60976607 0 1697.80715524 0 12054
0.10750000 0.10749900 15933.28079991 0 -188.93743089 0 7304.77322207 0 1396.23751022 0 1917.73449953 0 12807
0.10850000 0.10850100 15837.56377024 0 -137.91237933 0 5690.20549992 0 904.88750334 0 1191.83784166 0 12736
0.10950000 0.10950300 15973.32002089 0 72.86927486 0 6244.22187868 0 346.13740172 0 1943.38843807 0 12933
0.11050000 0.11050200 15615.73983128 0 187.72627219 0 5438.70151792 0 -33.47578337 0 1410.51188069 0 13428
0.11150000 0.11150900 15348.88563271 0 438.01909548 0 5008.11907000 0 -551.60182519 0 1942.85606062 0 13453
0.11250000 0.11250000 15044.65410042 0 73.93524980 0 5651.84104968 0 257.49988307 0 596.15849069 0 13668
0.11350000 0.11349100 14966.57207390 0 -117.03209196 0 4758.84441859 0 922.21860769 0 777.19677111 0 13791
0.11450000 0.11448600 15108.65030681 0 -82.92033936 0 4166.36376881 0 573.08325543 0 173.38091805 0 14205
0.11550000 0.11549300 15062.06727963 0 -3.39850911 0 3311.64285839 0 424.05416940 0 708.30269215 0 14776
0.11650000 0.11649800 14970.67581677 0 123.33743742 0 3194.60854819 0 167.35507075 0 403.87151831 0 14553
0.11750000 0.11747300 14597.01339159 0 388.87289268 0 3697.11740833 0 -440.19740656 0 483.03937301 0 14568
0.11850000 0.11849100 14291.00726778 0 359.37030880 0 3978.62307807 0 -230.24104833 0 259.99540238 0 16015
0.11950000 0.11950300 13933.20525424 0 148.47563531 0 3987.22984690 0 -98.01889668 0 555.94513791 0 15270
0.12050000 0.12050700 13800.22180283 0 -42.55991731 0 4371.19599405 0 534.58016523 0 705.28145010 0 15999
0.12150000 0.12150000 14102.01327179 0 76.71803111 0 4232.63367058 0 33.86197884 0 682.22506988 0 15670
0.12250000 0.12250700 13520.61272776 0 206.33840979 0 3865.54832518 0 137.15706882 0 726.98914077 0 16887
0.12350000 0.12352200 13861.00156210 0 12.36701733 0 3793.17826510 0 547.77092576 0 1358.46089342 0 16407
0.12450000 0.12449800 13270.06258870 0 62.58130240 0 3406.66114265 0 140.07183538 0 1198.35946547 0 16306
0.12550000 0.12549900 13520.27999185 0 27.54066205 0 3436.69610398 0 419.55114344 0 1125.55684870 0 17523
0.12650000 0.12650100 13332.39511555 0 47.10098608 0 3196.59387245 0 98.78274741 0 868.53721446 0 17154
0.12750000 0.12750600 13318.53111936 0 240.22312558 0 3096.38490802 0 -371.55287953 0 742.19849914 0 18007
0.12850000 0.12850300 13001.43379861 0 237.41261628 0 4088.48138384 0 -651.76309747 0 167.89188468 0 17496
0.12950000 0.12949900 12683.22735817 0 356.06735035 0 4119.01544904 0 -938.01912686 0 -502.79723125 0 18405
0.13050000 0.13049000 12418.59139899 0 181.42869056 0 4963.89846777 0 -459.25984675 0 -720.36658707 0 18100
0.13150000 0.13148800 12436.55913804 0 64.21603391 0 4680.54056813 0 -224.11538025 0 -814.99113383 0 19059
0.13250000 0.13249300 12167.04305220 0 49.72372142 0 5601.29846519 0 239.07296846 0 -1183.55271754 0 18957
0.13350000 0.13349100 12523.51412212 0 99.89929821 0 5212.54092095 0 82.18876401 0 -1124.39227302 0 19468
0.13450000 0.13450700 12238.91400842 0 -45.21980817 0 4917.10470784 0 717.27768872 0 -378.24198041 0 19953
0.13550000 0.13551000 12324.31622493 0 -81.79347375 0 4783.72197334 0 451.72670579 0 -139.15792075 0 19956
0.13650000 0.13649900 12354.70610456 0 200.45452980 0 4249.73629627 0 -31.57996507 0 117.74747416 0 19723
0.13750000 0.13749600 12123.89829607 0 275.35005544 0 4613.64955934 0 234.30042641 0 233.22790767 0 20946
0.13850000 0.13851100 11522.86633345 0 266.69781270 0 4469.28653986 0 -47.81792105 0 650.76378062 0 20955
0.13950000 0.13949800 11543.38504780 0 132.51983938 0 4466.45828464 0 490.96957883 0 615.14551074 0 20506
0.14050000 0.14048300 11147.20749281 0 84.50127857 0 3988.79370567 0 219.44931370 0 763.68325675 0 21447
0.14150000 0.14148400 11246.69552944 0 120.28735826 0 3922.14670321 0 377.65636521 0 395.98234992 0 21771
0.14250000 0.14249400 10819.72881172 0 121.18685434 0 4068.22885821 0 -242.23950519 0 570.98036449 0 22470
0.14350000 0.14350900 10885.54397441 0 142.25680118 0 3533.58880052 0 107.57363011 0 362.13201684 0 22519
0.14450000 0.14449900 10542.33797604 0 82.66313450 0 4134.37675681 0 -36.19578850 0 373.63136983 0 22218
0.14550000 0.14550500 10562.80123441 0 140.07849010 0 3552.13328182 0 210.77488856 0 153.09290060 0 23559
0.14650000 0.14650700 10277.32491616 0 106.41238179 0 4015.11311603 0 29.08577670 0 -212.27109103 0 23044
0.14750000 0.14750500 10182.83900936 0 228.40767347 0 3672.76113983 0 -127.21491988 0 673.42420511 0 23649
0.14850000 0.14849900 10136.89927160 0 71.95990762 0 4225.42439256 0 87.33995952 0 394.01920806 0 23640
0.14950000 0.14949500 9892.38274368 0 113.68920520 0 4033.93487725 0 189.53302817 0 935.90070824 0 24457
0.15050000 0.15050000 9851.36749737 0 41.84841703 0 3871.88139864 0 111.84141179 0 529.84089677 0 24591
0.15150000 0.15149900 9867.19463541 0 17.14022485 0 4021.23545674 0 311.89554938 0 1393.88617647 0 25020
0.15250000 0.15250500 9860.62864682 0 -88.97868387 0 3289.85974758 0 668.55960612 0 1423.78804344 0 25297
0.15350000 0.15350100 9875.47975953 0 -114.64526637 0 3017.93687201 0 708.67535637 0 1545.09246446 0 25452
0.15450000 0.15450400 10163.46268829 0 47.68116659 0 2369.61204559 0 328.78189673 0 1555.93965508 0 26061
0.15550000 0.15549900 9694.18305422 0 228.78366505 0 2433.56388720 0 -210.55750110 0 1372.09197446 0 26128
0.15650000 0.15649500 9583.96983014 0 287.40285916 0 2645.78284960 0 -367.47575553 0 1741.30682967 0 26331
0.15750000 0.15749700 9115.04511437 0 226.30589165 0 2836.62907549 0 -318.34951689 0 500.89398186 0 27345
0.15850000 0.15849900 8957.12865222 0 252.25929251 0 2982.48940656 0 -167.48483776 0 1262.18930390 0 26980
0.15950000 0.15949700 8627.20990780 0 176.06720595 0 3285.92237267 0 -200.81610282 0 328.70647660 0 27777
0.16050000 0.16050000 8545.74506621 0 65.42663806 0 3355.20908000 0 1.31069111 0 535.81794281 0 28224
0.16150000 0.16150500 8484.68802701 0 12.99211719 0 3377.76857460 0 178.99860931 0 346.16069323 0 28075
0.16250000 0.16249700 8581.81363869 0 4.69889650 0 3419.79311983 0 96.17742525 0 312.59873127 0 28590
0.16350000 0.16349900 8540.94257793 0 -0.77263718 0 3542.26211654 0 -163.84359780 0 519.64365030 0 29163
0.16450000 0.16449100 8614.27757215 0 -36.59174424 0 3330.12079251 0 231.84372629 0 485.14448219 0 28996
0.16550000 0.16550500 8752.80662204 0 -53.11330212 0 3146.39511506 0 259.33991264 0 630.23841155 0 30777
0.16650000 0.16650700 8845.73976127 0 -81.21273868 0 2985.71694487 0 154.48151845 0 367.50015616 0 29211
0.16750000 0.16749900 8920.52770229 0 -43.66448962 0 2620.57255894 0 247.67751905 0 652.85668948 0 30922
0.16850000 0.16850800 9057.91435889 0 -45.06652782 0 2544.47585668 0 298.72142565 0 406.92492483 0 30867
0.16950000 0.16949900 8962.70752428 0 123.29750911 0 2393.64666938 0 -40.82370134 0 695.61103548 0 30852
0.17050000 0.17049200 8728.29507678 0 120.17866453 0 2198.57469746 0 257.11280029 0 293.61171121 0 31257
0.17150000 0.17149500 8712.50121233 0 36.41384144 0 2344.54594049 0 -7.11342789 0 454.26104429 0 32608
0.17250000 0.17250900 8456.27238043 0 156.77295974 0 2014.80465522 0 93.65706165 0 707.49192565 0 32361
0.17350000 0.17350400 8355.42012658 0 201.97069643 0 2052.76982237 0 88.49788048 0 326.02129781 0 32508
0.17450000 0.17449800 8248.94463588 0 85.14645350 0 2025.80712259 0 -118.16672141 0 631.30760293 0 32791
0.17550000 0.17549800 7980.18275143 0 114.69295852 0 1772.73928183 0 216.20846595 0 393.84507627 0 33633
0.17650000 0.17650100 7947.84082113 0 58.85088921 0 2109.47911237 0 97.27290277 0 872.17845442 0 33984
0.17750000 0.17750300 8024.64735999 0 -73.27576723 0 1590.13381527 0 283.18154960 0 514.41082358 0 34069
0.17850000 0.17849800 7850.97030698 0 22.36306949 0 1716.21854218 0 54.48572683 0 654.38838378 0 34536
