### header ###
fiducial parameters:
Omega_m = 0.31
Omega_nu = 0
Omega_de = 0.69
Omega_k = 0
H_0 = 100
w_de = -1
zeff = 0
beta = 0
fgrowth = 0
b_1 = 2
gamma = 0.55
Lx = 3500 Ly = 3500 Lz = 3500
nx = 700 ny = 700 nz = 700
xoffset = 1379.75464 yoffset = 22.6059522 zoffset = 368.141391
bins = 400 dk = 0.001
kx_ny = 0.628318531 ky_ny = 0.628318531 kz_ny = 0.628318531
############################
A(data) = 3.30298882 (not used)
A(ran) = 3.30384689 (used)
Ngal = 185328
weighted Ngal = 0
Nran = 9399747
weighted Nran = 0
SN(data) = 6631.39428
SN(ran) = 131.411775
SN(data+ran) = 6762.80606
############################
13 columns: k_central k_mean P_0(k) sigma^{lin}_{P_0(k)} P^img_1(k) sigma^{lin}_{P_1(k)} P_2(k) sigma^{lin}_{P_2(k)} P^img_3(k) sigma^{lin}_{P_3(k)} P_4(k) sigma^{lin}_{P_4(k)} N_modes
### header ###
0.00050000 0 0 0 0 0 0 0 0 0 0 0 0
0.00150000 0.00179520 16325.02187612 0 -22682.71779078 0 -12247.12149417 0 -7283.94395420 0 51408.91788668 0 3
0.00250000 0.00253879 35135.69190030 0 -29704.99822658 0 -37872.66657122 0 -7361.65997122 0 -10673.79084227 0 6
0.00350000 0.00331552 58686.40676425 0 -26825.94532276 0 -44563.43113023 0 -32683.53916702 0 -27535.56010350 0 7
0.00450000 0.00420575 83437.18913800 0 -20113.10928182 0 -63718.70464360 0 -25443.31671119 0 -10253.30138357 0 24
0.00550000 0.00557378 92098.41574683 0 -3633.90867692 0 -55295.16238536 0 -40855.42216650 0 -6283.95054615 0 45
0.00650000 0.00659388 96262.05108120 0 5136.05602680 0 -10994.80335555 0 -61935.35108630 0 -46176.09116650 0 40
0.00750000 0.00754703 73893.43598799 0 14837.13780552 0 -9052.59058435 0 -47535.87191236 0 -41299.40278034 0 57
0.00850000 0.00846663 72194.15370355 0 7867.66255839 0 12571.87174081 0 -33280.57829875 0 -46257.94419998 0 75
0.00950000 0.00948925 69130.98693039 0 -8665.81836437 0 -5999.77189794 0 -674.03643918 0 -49490.14081463 0 112
0.01050000 0.01054430 85438.37380337 0 -8079.68187925 0 32031.48769844 0 -16684.70939315 0 -60069.92267157 0 105
0.01150000 0.01145670 97351.65026939 0 292.30184085 0 16097.98507459 0 -26478.67994631 0 -65910.43607254 0 144
0.01250000 0.01249090 96975.54778088 0 1744.93365108 0 34810.16526987 0 -7481.26743911 0 -36751.01382384 0 169
0.01350000 0.01339930 86005.57761530 0 4983.26369764 0 22476.86517542 0 -13120.44234187 0 -34918.96991194 0 180
0.01450000 0.01448870 91358.96564630 0 8786.20221605 0 70049.00530180 0 1294.56450780 0 -21265.26282080 0 267
0.01550000 0.01550050 86591.63646204 0 6931.01097611 0 79886.89699487 0 15259.82332121 0 -8824.18956560 0 238
0.01650000 0.01653350 78464.45098626 0 7364.95405671 0 85238.51043436 0 9726.29206938 0 17843.96129818 0 315
0.01750000 0.01747870 73623.47625427 0 2923.26241486 0 88181.78136851 0 25474.03932674 0 24626.22823202 0 297
0.01850000 0.01844180 70121.43081787 0 -722.48944216 0 73344.19991511 0 21384.04954011 0 44343.60360672 0 388
0.01950000 0.01947590 77680.19245005 0 -1456.56253042 0 81012.32074921 0 19612.67447551 0 49492.69178993 0 399
0.02050000 0.02045430 75671.90941864 0 861.99008090 0 61639.88159959 0 21458.02782376 0 45484.55503678 0 462
0.02150000 0.02154770 78897.22949118 0 3053.25124309 0 65102.22055092 0 7725.32922795 0 56597.37981905 0 571
0.02250000 0.02255340 69442.87138858 0 289.97934421 0 55167.83544440 0 3061.84692072 0 37288.71505189 0 510
0.02350000 0.02348930 73240.71904759 0 3484.42152445 0 66945.79930765 0 12927.89916285 0 44804.33192795 0 555
0.02450000 0.02439640 67994.25015517 0 2366.92797593 0 45125.64390354 0 5585.31605038 0 26436.97704578 0 592
0.02550000 0.02547300 65526.79157010 0 651.50356346 0 48913.95313317 0 12273.29671896 0 44717.82059175 0 837
0.02650000 0.02652900 63674.67259172 0 1425.58481735 0 43141.76150541 0 10190.72485039 0 32323.62982605 0 723
0.02750000 0.02749970 61883.00063670 0 1310.60237858 0 28921.18333825 0 14519.70774886 0 36597.40074611 0 826
0.02850000 0.02848090 58592.35341413 0 2625.13104089 0 28330.90983666 0 5287.43977394 0 29043.74106452 0 831
0.02950000 0.02946900 54178.83341253 0 2098.79828971 0 18948.97725013 0 1072.50876282 0 26236.44820496 0 996
0.03050000 0.03053250 49228.49947862 0 2415.47414497 0 20521.15441754 0 158.55087861 0 24075.55030354 0 1041
0.03150000 0.03150510 45904.57866521 0 2135.33269246 0 12286.49524333 0 2165.26783302 0 10193.46437604 0 1036
0.03250000 0.03246190 43662.04955425 0 78.08003010 0 13476.02611603 0 2368.25891957 0 10001.64212482 0 1059
0.03350000 0.03345080 46760.37542174 0 -2414.34284289 0 4554.23401729 0 5571.67387814 0 -1238.35432166 0 1302
0.03450000 0.03451200 45518.82683535 0 -1304.39130829 0 6661.41725189 0 170.65692008 0 1308.30650082 0 1339
0.03550000 0.03553350 49789.82495617 0 -710.91355991 0 -1816.77133371 0 -1792.31524444 0 -3836.18992686 0 1365
0.03650000 0.03647120 46832.24637796 0 446.17777995 0 4941.20587881 0 -2626.67271726 0 -559.70061720 0 1308
0.03750000 0.03744890 51196.85420103 0 503.35955494 0 4769.28123492 0 -3338.82738211 0 -3874.89820421 0 1579
0.03850000 0.03847530 48410.30187975 0 469.78095618 0 9620.83696880 0 -712.10031798 0 -3979.42164425 0 1662
0.03950000 0.03950240 49822.10033929 0 1296.54983205 0 13592.48368399 0 78.81038542 0 4657.57069925 0 1683
0.04050000 0.04050350 48366.49165181 0 11.15064576 0 14118.20641933 0 1329.12467749 0 5036.16870708 0 1822
0.04150000 0.04152450 49805.13080796 0 801.36670750 0 18642.41656648 0 2979.69442493 0 12619.12023981 0 1887
0.04250000 0.04250150 47682.05388813 0 1036.15958306 0 15629.38200353 0 868.23442478 0 11649.74962654 0 1920
0.04350000 0.04349210 46028.35642315 0 1036.86720142 0 18933.11683849 0 3225.27570776 0 18731.03523010 0 2005
0.04450000 0.04448520 46043.32953903 0 346.89160311 0 15485.52917911 0 3626.44430137 0 17862.81633299 0 2151
0.04550000 0.04548030 44698.18917315 0 388.98491377 0 17144.99406650 0 3240.45955638 0 20664.89632999 0 2274
0.04650000 0.04648670 43486.80864247 0 802.19411079 0 11485.04535185 0 2562.78742284 0 19679.33256917 0 2311
0.04750000 0.04749250 41675.61618082 0 1634.04386399 0 13810.86935190 0 -601.55324888 0 19017.74267121 0 2568
0.04850000 0.04851840 40693.71251500 0 1051.20922820 0 11098.96078609 0 -1017.94229207 0 12294.36999317 0 2493
0.04950000 0.04949480 38838.04435359 0 194.41315483 0 13423.56475446 0 1632.01417495 0 11635.55289444 0 2644
0.05050000 0.05050630 37911.81849644 0 1532.03812565 0 10066.51453577 0 -895.69511931 0 8828.98096268 0 2829
0.05150000 0.05149060 37485.36197379 0 1004.04391317 0 17269.43729626 0 -2970.64400822 0 7537.99891150 0 2784
0.05250000 0.05249300 34753.71107741 0 1951.29646149 0 11717.40592792 0 -501.08364133 0 4942.52573125 0 3055
0.05350000 0.05348950 33387.27561339 0 177.99707422 0 14782.56911653 0 1949.06713091 0 3319.11832513 0 3009
0.05450000 0.05448610 33451.27181978 0 -549.98694691 0 11914.49649769 0 1899.46729816 0 2999.44784669 0 3336
0.05550000 0.05550870 33131.73443570 0 225.98757430 0 9947.28416857 0 3273.91060637 0 3524.20564790 0 3349
0.05650000 0.05647670 32366.77458218 0 1094.27080035 0 10947.12229987 0 -1669.06986395 0 3501.13595825 0 3324
0.05750000 0.05747970 31516.41251216 0 580.38459039 0 9335.99284877 0 -596.86721817 0 1259.72705818 0 3639
0.05850000 0.05849280 31315.44002346 0 -613.20676951 0 9689.73548424 0 998.82328677 0 302.27504515 0 3846
0.05950000 0.05951020 30918.70790862 0 -45.13252045 0 6962.67634340 0 1782.88772703 0 -1374.87586490 0 3787
0.06050000 0.06049470 31916.80472199 0 284.28401458 0 7461.25891981 0 -667.99062772 0 -1487.09659562 0 3930
0.06150000 0.06148310 31259.09674296 0 -32.82717017 0 5584.56184899 0 579.27214333 0 -3313.20671716 0 4083
0.06250000 0.06249100 30468.29440055 0 1263.96389542 0 8876.41801203 0 -1983.90458052 0 -3397.61072594 0 4303
0.06350000 0.06350600 29895.43407818 0 453.88727095 0 6364.63900395 0 -822.79711824 0 -3321.84675958 0 4470
0.06450000 0.06451750 28722.87273681 0 -65.26625935 0 8105.62418891 0 1449.75253550 0 -2959.68590563 0 4479
0.06550000 0.06550280 29784.07846082 0 249.17593976 0 9036.75235511 0 -511.49272966 0 -3879.68960129 0 4636
0.06650000 0.06648880 28858.62898746 0 703.69540894 0 8217.39018056 0 -868.53055974 0 -5170.77147325 0 4653
0.06750000 0.06749660 28324.69876637 0 363.69698473 0 9720.73537971 0 -1023.13740872 0 -3836.05683250 0 5220
0.06850000 0.06852730 28109.64045754 0 58.99263471 0 10221.79129304 0 -678.40415253 0 -1895.57428803 0 5029
0.06950000 0.06949320 28039.10044495 0 212.78904993 0 11162.95699248 0 681.34553797 0 -4467.10157406 0 5040
0.07050000 0.07048030 28798.40378803 0 -500.50800820 0 10999.66129981 0 856.02079870 0 -1836.14765478 0 5475
0.07150000 0.07148790 28701.02307882 0 356.10727866 0 11370.36237541 0 219.70552035 0 -4146.65471184 0 5509
0.07250000 0.07249820 28748.82613767 0 654.41389354 0 11496.69110865 0 -889.91882394 0 -1681.71382847 0 5916
0.07350000 0.07351270 27367.41755777 0 945.39477283 0 12307.34669360 0 -1427.25958809 0 -4225.05838306 0 5721
0.07450000 0.07449140 26704.05306830 0 1106.28811224 0 15233.75900838 0 -1198.35946547 0 -1767.42659849 0 6028
0.07550000 0.07549160 25386.64069479 0 543.28786395 0 14507.95108009 0 -9.94625269 0 -3386.46407300 0 6183
0.07650000 0.07648840 25038.15528667 0 105.67049163 0 15440.72074344 0 1321.11683329 0 -2169.67103821 0 6330
0.07750000 0.07749960 25056.23393770 0 -107.84525353 0 13813.19850326 0 1664.31174046 0 -3092.10370600 0 6583
0.07850000 0.07848650 25354.91987151 0 -369.63742981 0 11448.99896177 0 2305.57147441 0 -2963.51236858 0 6549
0.07950000 0.07947320 24803.24373531 0 -0.37915479 0 11074.10541373 0 1433.10464888 0 -1645.80053275 0 6828
0.08050000 0.08048110 25185.11364624 0 36.61592305 0 8803.57103047 0 1040.80235810 0 -1553.05594387 0 7147
0.08150000 0.08149960 24955.63678138 0 197.51092613 0 8127.29638775 0 1691.39644341 0 -576.42725131 0 7386
0.08250000 0.08250610 23693.23674473 0 662.46166604 0 6019.00403345 0 533.43888106 0 -1184.71729322 0 7227
0.08350000 0.08350160 23139.00963323 0 646.44265029 0 7119.20640593 0 335.56305455 0 359.55331355 0 7798
0.08450000 0.08449610 22316.04281967 0 602.38730689 0 5604.91419539 0 230.65585909 0 -211.58343682 0 7371
0.08550000 0.08548940 21314.06408737 0 241.46201228 0 5690.03913197 0 378.14992347 0 -346.95482293 0 8256
0.08650000 0.08650700 20613.87682403 0 379.34000890 0 5082.86264623 0 499.82035399 0 -954.37420588 0 8037
0.08750000 0.08749060 20636.50286580 0 321.02249535 0 5436.84928803 0 -364.50664210 0 -1220.87459527 0 8155
0.08850000 0.08849210 19929.88270823 0 118.95641463 0 4870.94314614 0 -206.59794379 0 -3078.84972564 0 8718
0.08950000 0.08949900 19261.85991604 0 842.06585470 0 5505.13778764 0 -1909.02790993 0 -3683.56396566 0 8571
0.09050000 0.09049190 18563.33633224 0 788.41773506 0 6243.52313328 0 -1695.76637500 0 -5578.30641391 0 8932
0.09150000 0.09150830 18416.71070858 0 -290.39304586 0 5426.30155974 0 807.46686582 0 -4717.23024764 0 9285
0.09250000 0.09250820 18442.44228550 0 -397.58613700 0 5396.86552304 0 1454.11137590 0 -6434.44699754 0 9204
0.09350000 0.09350330 18626.11250697 0 236.06281761 0 4716.79769096 0 447.12607729 0 -5761.86572340 0 9349
0.09450000 0.09448040 18395.63743438 0 157.93531718 0 3977.84669428 0 775.24693869 0 -4921.04208276 0 9564
0.09550000 0.09549270 17812.46229885 0 118.13344782 0 3411.16416861 0 674.25826312 0 -3177.67229045 0 10155
0.09650000 0.09649430 18131.99968292 0 30.34784400 0 3666.32824560 0 708.30158303 0 -2924.94827679 0 9913
0.09750000 0.09749140 17704.98860042 0 -51.65059507 0 2744.79396476 0 958.01544584 0 -1565.41153727 0 10476
0.09850000 0.09850240 17779.52144391 0 477.76550886 0 2860.59715210 0 -324.80570263 0 -1227.04130078 0 10575
0.09950000 0.09950330 17252.24594099 0 322.49429718 0 3123.18123985 0 -543.53408852 0 -608.75919954 0 10882
0.10050000 0.10051200 16822.68388319 0 231.35238626 0 3728.90477878 0 68.07321948 0 -1336.28959072 0 10875
0.10150000 0.10150300 16352.63895652 0 534.59014731 0 4313.76577625 0 -490.88750397 0 -1071.29982235 0 11118
0.10250000 0.10250800 16222.20648041 0 374.11938250 0 4596.20310654 0 -318.72550846 0 -689.55746019 0 11575
0.10350000 0.10349800 15358.31315011 0 194.46639257 0 4583.11549414 0 193.04450112 0 -2055.33188887 0 11364
0.10450000 0.10450100 15549.19264959 0 -10.62120748 0 4349.35742726 0 834.30423508 0 -474.95389043 0 12093
0.10550000 0.10551000 15354.87487906 0 -8.70023435 0 3728.46113090 0 347.81439070 0 -1373.84438358 0 12067
0.10650000 0.10649700 15274.46370118 0 179.00193667 0 3622.73984159 0 474.66995579 0 -417.05895148 0 12054
0.10750000 0.10749900 14951.15531014 0 125.38043590 0 2994.29044011 0 237.94277549 0 -511.26646924 0 12807
0.10850000 0.10850100 14858.32199169 0 21.36475086 0 2685.09005159 0 624.59188318 0 418.39765896 0 12736
0.10950000 0.10950300 14708.25809698 0 245.16425382 0 2840.48881203 0 -26.32307045 0 -454.13016816 0 12933
0.11050000 0.11050200 14481.77585529 0 3.22685066 0 2904.21882970 0 139.73688123 0 952.95120531 0 13428
0.11150000 0.11150900 14562.63068105 0 -104.57889602 0 3207.13050955 0 208.48677463 0 1006.25549785 0 13453
0.11250000 0.11250000 14795.87855287 0 138.79967509 0 2703.45707374 0 -150.48314195 0 854.16080497 0 13668
0.11350000 0.11349100 14810.85166875 0 86.94256193 0 3626.86576686 0 17.72384364 0 1184.46219569 0 13791
0.11450000 0.11448600 14582.81665949 0 67.01955577 0 3267.72171848 0 -70.76028376 0 1541.98692932 0 14205
0.11550000 0.11549300 14378.96045958 0 285.89667461 0 4178.22025835 0 -368.85771867 0 1987.49812833 0 14776
0.11650000 0.11649800 14487.32145377 0 142.20023607 0 3889.01729792 0 -11.05031480 0 892.40657941 0 14553
0.11750000 0.11747300 14029.58775572 0 270.21483125 0 5121.84820351 0 -589.53926435 0 1181.72267005 0 14568
0.11850000 0.11849100 13790.23972557 0 379.53299573 0 4924.16980030 0 -349.98050146 0 680.32403873 0 16015
0.11950000 0.11950300 13318.64203133 0 339.01019856 0 5489.62120311 0 -101.81275151 0 539.30501513 0 15270
0.12050000 0.12050700 12909.04412804 0 152.48177564 0 5453.09789156 0 359.94261456 0 823.55575612 0 15999
0.12150000 0.12150000 13149.61218984 0 -252.25485603 0 5094.07584635 0 619.81823202 0 429.09511841 0 15670
0.12250000 0.12250700 13124.10243686 0 -123.39289341 0 4235.19573707 0 559.59303259 0 702.88907892 0 16887
0.12350000 0.12352200 13396.39132194 0 38.47258941 0 3901.78326561 0 -19.13209291 0 540.42744426 0 16407
0.12450000 0.12449800 13128.53891564 0 145.30022562 0 3905.28808385 0 -65.75271925 0 575.41573415 0 16306
0.12550000 0.12549900 13146.28483076 0 181.71817080 0 3746.76160587 0 133.33947883 0 402.67034168 0 17523
0.12650000 0.12650100 12702.74786480 0 5.16849778 0 4061.92905835 0 38.15881945 0 664.10538143 0 17154
0.12750000 0.12750600 12845.49156952 0 144.76008433 0 3775.04415808 0 513.28617621 0 1216.40484290 0 18007
0.12850000 0.12850300 12935.44117677 0 -12.65472298 0 3922.53489510 0 306.51520974 0 950.98362697 0 17496
0.12950000 0.12949900 12455.85782073 0 241.89567808 0 3200.50906497 0 48.54051253 0 1342.37865784 0 18405
0.13050000 0.13049000 12350.60236169 0 248.19658707 0 4562.27513508 0 -196.38073317 0 1435.30070587 0 18100
0.13150000 0.13148800 12114.69260260 0 165.52945973 0 3598.50557626 0 -327.60068426 0 1545.50283875 0 19059
0.13250000 0.13249300 12057.12929044 0 29.80027161 0 4532.04053219 0 171.79709513 0 1024.07905134 0 18957
0.13350000 0.13349100 12054.13466727 0 9.49766923 0 4039.16992221 0 -37.09883376 0 1133.70887846 0 19468
0.13450000 0.13450700 12042.82164638 0 5.42473770 0 4060.35410838 0 254.68050080 0 995.97174004 0 19953
0.13550000 0.13551000 11994.90767556 0 78.65932332 0 4098.84056179 0 -89.19762410 0 819.19358836 0 19956
0.13650000 0.13649900 11937.56618734 0 161.19945645 0 4046.58993297 0 -128.64235692 0 611.30462924 0 19723
0.13750000 0.13749600 11764.43260298 0 97.20025543 0 4554.89948911 0 129.82911500 0 324.38645538 0 20946
0.13850000 0.13851100 11575.88225486 0 128.83756199 0 3703.31738742 0 59.69736937 0 765.11845764 0 20955
0.13950000 0.13949800 11774.52559220 0 -145.93131473 0 3764.89571288 0 568.82423581 0 666.04745001 0 20506
0.14050000 0.14048300 11781.95669416 0 -149.37291314 0 2786.69650683 0 874.44549507 0 339.34404359 0 21447
0.14150000 0.14148400 11862.14604809 0 -38.38851814 0 2504.65845964 0 380.26945121 0 777.29991924 0 21771
0.14250000 0.14249400 11714.30039277 0 211.01224018 0 2288.55757830 0 99.10594489 0 747.64649508 0 22470
0.14350000 0.14350900 11252.24112791 0 393.46908470 0 2268.51578541 0 -269.20109585 0 318.16873037 0 22519
0.14450000 0.14449900 10989.16902750 0 279.97064809 0 2429.81506263 0 -306.26011221 0 570.83728805 0 22218
0.14550000 0.14550500 10573.12713877 0 173.62270615 0 2463.75412529 0 136.76222221 0 408.54867607 0 23559
0.14650000 0.14650700 10489.89879687 0 7.09293136 0 2571.31655329 0 113.72913351 0 267.91008052 0 23044
0.14750000 0.14750500 10381.69307944 0 -47.38880264 0 2265.46570625 0 419.63654566 0 479.30163964 0 23649
0.14850000 0.14849900 10498.30592416 0 112.08763636 0 2273.19627052 0 160.80571895 0 591.95936352 0 23640
0.14950000 0.14949500 10500.04724208 0 96.43263369 0 2021.12663748 0 -188.56920315 0 596.38918758 0 24457
0.15050000 0.15050000 10137.72002017 0 173.53397657 0 2284.76438894 0 30.50544991 0 532.42070918 0 24591
0.15150000 0.15149900 10078.68157882 0 195.18732037 0 2787.80562653 0 -643.20512990 0 594.45044636 0 25020
0.15250000 0.15250500 9969.54420085 0 92.72384834 0 2351.18956746 0 81.69520575 0 158.49874999 0 25297
0.15350000 0.15350100 9869.65688113 0 -6.78674778 0 2728.86700594 0 59.62660753 0 76.53036806 0 25452
0.15450000 0.15450400 9736.75106810 0 106.01853339 0 2488.25457935 0 85.00126973 0 136.64021904 0 26061
0.15550000 0.15549900 9744.20435245 0 139.34758022 0 2524.20114866 0 139.80010105 0 -420.37411025 0 26128
0.15650000 0.15649500 9511.55540527 0 113.22559317 0 2413.05626404 0 -141.22310162 0 -347.54709285 0 26331
0.15750000 0.15749700 9370.59738325 0 97.39590415 0 2186.17473927 0 178.08358556 0 -376.43633354 0 27345
0.15850000 0.15849900 9022.73308217 0 146.05553613 0 2263.08109891 0 63.36068081 0 -294.28272863 0 26980
0.15950000 0.15949700 9183.15615483 0 48.45411211 0 1979.46810174 0 173.47186587 0 -812.85496930 0 27777
0.16050000 0.16050000 8897.84620453 0 116.59177144 0 2226.12523067 0 -27.59190338 0 -436.65598737 0 28224
0.16150000 0.16150500 8739.24208817 0 173.32213471 0 1993.22118596 0 -152.53612251 0 -416.07294408 0 28075
0.16250000 0.16249700 8713.95415913 0 -7.11166439 0 2254.30796212 0 244.52983736 0 -387.00402599 0 28590
0.16350000 0.16349900 8710.37170251 0 63.58039742 0 2056.92902123 0 81.84704423 0 -283.00298133 0 29163
0.16450000 0.16449100 8557.92320046 0 120.30399506 0 2108.54745183 0 -90.46124417 0 -536.15067872 0 28996
0.16550000 0.16550500 8369.98286817 0 165.90766955 0 2133.08117948 0 -71.30818889 0 49.06279700 0 30777
0.16650000 0.16650700 8323.68821211 0 43.33840843 0 2577.26143486 0 -105.66339326 0 -365.89636908 0 29211
0.16750000 0.16749900 8390.16884662 0 -56.43422831 0 2155.40775893 0 334.97743935 0 -238.40527840 0 30922
0.16850000 0.16850800 8424.96193145 0 -63.28692435 0 2177.17977854 0 118.98303350 0 -548.42974286 0 30867
0.16950000 0.16949900 8504.91837025 0 -8.86049105 0 1912.04471549 0 -188.78215414 0 -311.22896844 0 30852
0.17050000 0.17049200 8539.30108078 0 167.95843187 0 2093.69633911 0 -256.78560998 0 -749.20259001 0 31257
0.17150000 0.17149500 8342.83161804 0 109.59877176 0 2199.77254673 0 -96.84633534 0 -870.24525879 0 32608
0.17250000 0.17250900 8226.62914762 0 35.24105827 0 2083.00442525 0 294.10083300 0 -287.36847645 0 32361
0.17350000 0.17350400 8285.90050411 0 14.08071817 0 2045.29435563 0 475.62601697 0 -634.77138374 0 32508
0.17450000 0.17449800 8232.78476192 0 -31.97991363 0 1570.71312941 0 325.70630782 0 -347.09900849 0 32791
0.17550000 0.17549800 8064.13202113 0 115.00351204 0 1368.47624426 0 123.23207105 0 -291.22044915 0 33633
0.17650000 0.17650100 8035.56109779 0 163.04281338 0 1272.74812340 0 -49.67625110 0 -32.71714549 0 33984
0.17750000 0.17750300 7842.48554132 0 126.54833894 0 1270.60752239 0 -58.95803018 0 -278.42342611 0 34069
