### header ###
fiducial parameters:
Omega_m = 0.31
Omega_nu = 0
Omega_de = 0.69
Omega_k = 0
H_0 = 100
w_de = -1
zeff = 0
beta = 0
fgrowth = 0
b_1 = 2
gamma = 0.55
Lx = 3500 Ly = 3500 Lz = 3500
nx = 700 ny = 700 nz = 700
xoffset = 1379.75464 yoffset = 22.6059522 zoffset = 368.141391
bins = 400 dk = 0.001
kx_ny = 0.628318531 ky_ny = 0.628318531 kz_ny = 0.628318531
############################
A(data) = 3.39293207 (not used)
A(ran) = 3.3908978 (used)
Ngal = 190609
weighted Ngal = 0
Nran = 9399747
weighted Nran = 0
SN(data) = 6665.86409
SN(ran) = 134.874258
SN(data+ran) = 6800.73835
############################
13 columns: k_central k_mean P_0(k) sigma^{lin}_{P_0(k)} P^img_1(k) sigma^{lin}_{P_1(k)} P_2(k) sigma^{lin}_{P_2(k)} P^img_3(k) sigma^{lin}_{P_3(k)} P_4(k) sigma^{lin}_{P_4(k)} N_modes
### header ###
0.00050000 0 0 0 0 0 0 0 0 0 0 0 0
0.00150000 0.00179520 86646.53788694 0 -69147.40190188 0 -132456.61955415 0 153267.03238810 0 -21157.01273858 0 3
0.00250000 0.00253879 136014.67553514 0 -50293.69803353 0 -16301.17580268 0 -127704.04166183 0 9463.12014819 0 6
0.00350000 0.00331552 135870.48997481 0 9000.38432032 0 -46560.17931682 0 -97124.05890801 0 33963.24147091 0 7
0.00450000 0.00420575 117863.93172937 0 36356.94359627 0 -4560.78891468 0 -88294.02428162 0 28984.51407282 0 24
0.00550000 0.00557378 65211.35792889 0 14881.61350528 0 21585.02202881 0 -2681.88469567 0 1971.12752164 0 45
0.00650000 0.00659388 62716.39317539 0 -7431.98925106 0 -1408.47110045 0 58911.11441442 0 -15127.39442965 0 40
0.00750000 0.00754703 58818.28109597 0 -12019.86286870 0 -15047.09416375 0 17200.00640336 0 -20063.86436737 0 57
0.00850000 0.00846663 75922.57046967 0 -8736.63565689 0 -38461.38730523 0 -15987.29492905 0 -32252.86798952 0 75
0.00950000 0.00948925 77085.14973378 0 -9856.91309584 0 -37632.98580517 0 -11903.62712468 0 -34812.82715714 0 112
0.01050000 0.01054430 85057.28027622 0 8605.30479382 0 -42335.54239924 0 -52723.89019686 0 -41618.82925245 0 105
0.01150000 0.01145670 77394.26139273 0 6965.80406094 0 -26568.85137750 0 -26783.90968632 0 -38920.78468282 0 144
0.01250000 0.01249090 66364.17693969 0 4166.68541352 0 -12708.73711115 0 -6677.00038360 0 -37193.88531799 0 169
0.01350000 0.01339930 66876.47932673 0 -800.44835639 0 -20963.80408774 0 -732.53030276 0 -7890.62133607 0 180
0.01450000 0.01448870 65699.25968264 0 -3952.86931876 0 -16279.88070454 0 16399.77654355 0 -25363.12735726 0 267
0.01550000 0.01550050 67369.81576699 0 3514.12374988 0 -15352.87846361 0 -12254.33077218 0 -18324.09921407 0 238
0.01650000 0.01653350 60054.06225994 0 5877.94619066 0 -9193.54860637 0 -9964.61970940 0 -2999.09292839 0 315
0.01750000 0.01747870 60523.55262676 0 5072.63656265 0 9673.19850959 0 -15725.32085713 0 -5805.04375312 0 297
0.01850000 0.01844180 53786.64868844 0 2231.53773479 0 19447.08290507 0 -8093.66787860 0 6621.07856859 0 388
0.01950000 0.01947590 58988.86370503 0 -324.84119446 0 28049.08252221 0 6182.11117577 0 -3330.48680201 0 399
0.02050000 0.02045430 58440.62583988 0 -2903.38698992 0 30033.29765624 0 -1997.03655771 0 8642.01665572 0 462
0.02150000 0.02154770 67748.35831883 0 -1871.79476177 0 40271.47064718 0 5207.86043584 0 25954.17724263 0 571
0.02250000 0.02255340 68085.86344196 0 1462.93996867 0 32922.55446126 0 3192.24612324 0 19284.15322191 0 510
0.02350000 0.02348930 70552.43473128 0 2716.96615162 0 62303.68973695 0 3357.62696094 0 37137.20930158 0 555
0.02450000 0.02439640 64698.94462988 0 5040.38336192 0 51709.37841200 0 -1367.53349252 0 19664.91401314 0 592
0.02550000 0.02547300 66173.74108809 0 3913.70630233 0 69987.78189464 0 9280.40376967 0 44172.02278993 0 837
0.02650000 0.02652900 57111.12406170 0 351.72292850 0 60127.37507177 0 4354.47046905 0 26576.50430339 0 723
0.02750000 0.02749970 66007.37313387 0 -1440.90176033 0 67578.33026961 0 10999.84985016 0 44695.74910983 0 826
0.02850000 0.02848090 60335.88957439 0 -622.71636178 0 50891.51354904 0 11956.53213412 0 15859.85707611 0 831
0.02950000 0.02946900 63962.82188843 0 168.92336600 0 51349.35815906 0 7271.84345833 0 35867.04542707 0 996
0.03050000 0.03053250 59423.97136131 0 1010.09748847 0 38914.68452450 0 3240.68138032 0 16315.15071084 0 1041
0.03150000 0.03150510 62963.28321946 0 2840.72172717 0 45171.67237087 0 382.08064367 0 19066.76576172 0 1036
0.03250000 0.03246190 55072.22932670 0 2585.87929489 0 36587.97322871 0 1435.77762734 0 5400.07087895 0 1059
0.03350000 0.03345080 53261.70233688 0 2246.89904256 0 37440.99718599 0 43.56988171 0 4205.02768137 0 1302
0.03450000 0.03451200 50133.20841369 0 722.05244901 0 31325.42210071 0 3418.45108500 0 -83.32627717 0 1339
0.03550000 0.03553350 50300.24183973 0 893.33269436 0 32571.29625391 0 4521.80335741 0 -3739.87397256 0 1365
0.03650000 0.03647120 47971.97777636 0 776.01555864 0 27548.64771590 0 1321.64921074 0 2252.12299632 0 1308
0.03750000 0.03744890 46699.59566246 0 1276.51913036 0 26508.51526610 0 3284.29196672 0 -413.53638733 0 1579
0.03850000 0.03847530 46711.24141926 0 1222.16117412 0 27618.41134471 0 256.08464634 0 -1704.02931673 0 1662
0.03950000 0.03950240 43467.39904781 0 1523.24280647 0 22060.05799411 0 2105.98538533 0 297.79087422 0 1683
0.04050000 0.04050350 41886.01618693 0 548.93439232 0 27626.72974242 0 77.59013193 0 -3062.63439571 0 1822
0.04150000 0.04152450 42140.33733295 0 841.94939713 0 24266.65162696 0 3077.55205560 0 -1341.38045011 0 1887
0.04250000 0.04250150 40891.35764462 0 533.23480304 0 22129.15615109 0 -581.13990090 0 -7721.28094107 0 1920
0.04350000 0.04349210 39459.26229466 0 1349.95394536 0 21859.64006525 0 557.61103569 0 -2925.42519826 0 2005
0.04450000 0.04448520 38688.86775464 0 943.88415181 0 21806.62414384 0 135.43238770 0 -10229.41094535 0 2151
0.04550000 0.04548030 36036.85165235 0 829.65924180 0 20124.64412664 0 1945.00775283 0 -5754.70081018 0 2274
0.04650000 0.04648670 36406.63215860 0 -80.06413432 0 18338.18503419 0 3218.68753677 0 -6127.24302447 0 2311
0.04750000 0.04749250 36345.51966342 0 -1205.65747306 0 13431.55041627 0 5392.12958194 0 -4688.41531797 0 2568
0.04850000 0.04851840 36788.16933362 0 -330.23262530 0 10985.46456772 0 3666.84953185 0 -1162.82327045 0 2493
0.04950000 0.04949480 37891.96525391 0 294.31600222 0 8925.38564655 0 1998.00149184 0 49.79614694 0 2644
0.05050000 0.05050630 35799.27821372 0 602.24755781 0 10004.59238321 0 298.08257270 0 3677.33071297 0 2829
0.05150000 0.05149060 35664.52017080 0 1015.25045857 0 10990.46669754 0 636.44726360 0 8042.48200469 0 2784
0.05250000 0.05249300 35730.40188067 0 89.03081249 0 10339.97908772 0 709.76894838 0 6503.54515453 0 3055
0.05350000 0.05348950 34947.03064022 0 -200.35470903 0 13286.81029609 0 1717.56057701 0 7687.56370234 0 3009
0.05450000 0.05448610 35989.82497729 0 156.26276468 0 11975.05443303 0 36.07589267 0 10294.90446332 0 3336
0.05550000 0.05550870 35474.97161495 0 533.56421159 0 16110.18539123 0 -609.43021695 0 9051.54801184 0 3349
0.05650000 0.05647670 36430.81096795 0 -287.01688551 0 12679.67817515 0 -929.10624099 0 6704.69510238 0 3324
0.05750000 0.05747970 35950.67305206 0 -267.12038730 0 15494.51304864 0 1159.29626982 0 7656.43071251 0 3639
0.05850000 0.05849280 36640.54550224 0 -90.87128572 0 12554.45856160 0 14.83037218 0 2715.54647841 0 3846
0.05950000 0.05951020 36967.51398827 0 311.00159891 0 15255.83049031 0 -1178.60604370 0 4061.58523124 0 3787
0.06050000 0.06049470 35740.60578186 0 360.90089398 0 12132.10578181 0 1721.07648644 0 1287.00031148 0 3930
0.06150000 0.06148310 35314.48199511 0 608.60614102 0 11184.91756244 0 563.20543543 0 -492.93272069 0 4083
0.06250000 0.06249100 34850.31540283 0 178.15346010 0 11625.90355310 0 763.11649659 0 -1610.66362082 0 4303
0.06350000 0.06350600 33413.45083818 0 922.60679958 0 11441.56785982 0 290.10134738 0 -737.07658439 0 4470
0.06450000 0.06451750 32857.56004714 0 1116.96117106 0 10836.75379903 0 13.26396243 0 -596.78403419 0 4479
0.06550000 0.06550280 31356.69927611 0 292.11994522 0 10378.22153480 0 1110.33972649 0 -131.95529745 0 4636
0.06650000 0.06648880 31480.80976996 0 -160.44525505 0 10189.33845077 0 1831.36734889 0 -609.28492227 0 4653
0.06750000 0.06749660 31051.80227200 0 616.74929782 0 10091.84682960 0 -819.40653934 0 -173.85340304 0 5220
0.06850000 0.06852730 30475.39276660 0 948.87740867 0 12235.36482540 0 -2173.90787544 0 1177.89620710 0 5029
0.06950000 0.06949320 29802.60075972 0 536.02645731 0 10939.71338030 0 -916.64528122 0 -184.29576497 0 5040
0.07050000 0.07048030 29671.39189982 0 137.72604722 0 14424.32345510 0 256.99634273 0 673.69039383 0 5475
0.07150000 0.07148790 30151.08616783 0 -11.38544640 0 13854.67957984 0 480.56492697 0 243.80003660 0 5509
0.07250000 0.07249820 29633.90365414 0 -69.99665485 0 13817.96771794 0 1524.35192617 0 606.07069340 0 5916
0.07350000 0.07351270 30108.93961943 0 347.82991837 0 11734.93001910 0 982.63790306 0 225.92657272 0 5721
0.07450000 0.07449140 28672.62961464 0 526.00888823 0 12429.90441987 0 142.79139687 0 287.47162458 0 6028
0.07550000 0.07549160 28565.15591621 0 545.54492253 0 12623.44580662 0 1124.95792406 0 3102.81780225 0 6183
0.07650000 0.07648840 28020.46723408 0 79.19724637 0 11347.18177379 0 1293.23356416 0 1518.95051326 0 6330
0.07750000 0.07749960 27231.10674728 0 397.88670844 0 11025.95852777 0 1306.68718606 0 2764.28119780 0 6583
0.07850000 0.07848650 26754.40710244 0 380.70755349 0 9474.72154020 0 1822.57202971 0 3861.03420802 0 6549
0.07950000 0.07947320 26607.22691894 0 195.80953652 0 8784.93781960 0 685.23078426 0 4706.30541865 0 6828
0.08050000 0.08048110 25699.30153676 0 702.78814903 0 9453.48189804 0 83.95226432 0 3762.71074708 0 7147
0.08150000 0.08149960 24879.99481819 0 879.40769659 0 9816.67423331 0 -370.69220264 0 5212.88474806 0 7386
0.08250000 0.08250610 23849.51170973 0 160.73362617 0 8371.92382764 0 178.39413907 0 2215.94351188 0 7227
0.08350000 0.08350160 23725.95577573 0 694.70044821 0 10241.07888454 0 -270.65626089 0 2590.41559444 0 7798
0.08450000 0.08449610 22957.55765116 0 647.69817378 0 9934.18546498 0 -1085.64961296 0 2324.87015710 0 7371
0.08550000 0.08548940 22048.19041337 0 549.97252835 0 10904.92029548 0 151.62220788 0 852.63909275 0 8256
0.08650000 0.08650700 21302.75106648 0 220.90558786 0 10655.35727295 0 418.26456459 0 1279.68012149 0 8037
0.08750000 0.08749060 21192.28274488 0 195.60767674 0 9445.58496582 0 207.42091061 0 1127.35362261 0 8155
0.08850000 0.08849210 21453.81316892 0 -58.26216848 0 10721.71590429 0 1362.93064579 0 884.44420912 0 8718
0.08950000 0.08949900 20624.08072522 0 196.67686812 0 7968.94736892 0 387.94345038 0 892.20028315 0 8571
0.09050000 0.09049190 20691.40429070 0 604.61109188 0 9094.10493453 0 -587.51179354 0 623.57592954 0 8932
0.09150000 0.09150830 19730.90663498 0 548.00716825 0 8638.65602305 0 15.77611854 0 -189.18920106 0 9285
0.09250000 0.09250820 18753.10671202 0 642.16033915 0 8895.78324190 0 212.64930085 0 181.64607802 0 9204
0.09350000 0.09350330 18145.30911926 0 554.22932974 0 9077.15758559 0 -336.68326544 0 -447.37341098 0 9349
0.09450000 0.09448040 17493.03582674 0 520.39008785 0 9139.70084518 0 358.13031298 0 -307.67202158 0 9564
0.09550000 0.09549270 16631.13891189 0 297.23409614 0 9158.11223212 0 491.79698212 0 695.47572288 0 10155
0.09650000 0.09649430 16386.02345933 0 51.53280656 0 9013.02828484 0 1035.62387824 0 -103.16532297 0 9913
0.09750000 0.09749140 16839.87523846 0 -55.98459119 0 8249.92066121 0 429.53765717 0 787.90310353 0 10476
0.09850000 0.09850240 16703.78625190 0 88.22792075 0 8203.45963719 0 507.15607165 0 925.60918660 0 10575
0.09950000 0.09950330 16356.96452333 0 80.18447381 0 8037.97897873 0 -147.90443866 0 1033.79604899 0 10882
0.10050000 0.10051200 16679.38561862 0 -107.25686553 0 7182.70350846 0 447.49097767 0 1254.56965160 0 10875
0.10150000 0.10150300 16776.32267994 0 -330.17716931 0 7279.81802894 0 1101.28820066 0 1056.65944238 0 11118
0.10250000 0.10250800 17372.47451591 0 -165.52169590 0 6703.47507072 0 526.30169583 0 1842.55836661 0 11575
0.10350000 0.10349800 17475.62264753 0 45.08394100 0 6385.16880950 0 -80.83796713 0 -40.37972073 0 11364
0.10450000 0.10450100 16974.07872153 0 615.04236261 0 7086.13245663 0 -824.82680729 0 672.35057724 0 12093
0.10550000 0.10551000 16345.54059047 0 339.55810369 0 6711.31654696 0 -1121.69711216 0 -1308.00703850 0 12067
0.10650000 0.10649700 16347.09335805 0 48.37636282 0 7808.51320506 0 283.68952642 0 53.41897551 0 12054
0.10750000 0.10749900 16105.85982442 0 -171.79376777 0 6876.32028396 0 1082.28232557 0 -1623.06357901 0 12807
0.10850000 0.10850100 16338.88587230 0 96.21613353 0 6312.75438463 0 284.13317430 0 -991.23801718 0 12736
0.10950000 0.10950300 16154.66109099 0 147.42418984 0 5328.57702343 0 729.02881189 0 -1904.93525825 0 12933
0.11050000 0.11050200 15660.10461907 0 163.61622826 0 5760.47932379 0 362.06879702 0 -823.03003338 0 13428
0.11150000 0.11150900 15480.75996442 0 487.18082595 0 5634.06186097 0 -456.86969381 0 -866.40992288 0 13453
0.11250000 0.11250000 14920.65451854 0 306.43868048 0 5649.21243600 0 -232.07996878 0 -879.12598019 0 13668
0.11350000 0.11349100 14625.29594380 0 106.38498654 0 5770.32830668 0 674.92484405 0 -199.01932892 0 13791
0.11450000 0.11448600 14477.56120045 0 195.95483120 0 5264.56972584 0 267.41430402 0 -731.97019732 0 14205
0.11550000 0.11549300 14269.82308161 0 279.68893168 0 6092.52757802 0 395.11280008 0 -1.98508025 0 14776
0.11650000 0.11649800 13890.06049811 0 323.10098566 0 5667.30217822 0 -7.32721071 0 500.74979630 0 14553
0.11750000 0.11747300 13337.05341827 0 221.06308285 0 5873.43207351 0 -159.69438102 0 1043.38771611 0 14568
0.11850000 0.11849100 13601.57846548 0 -224.97272978 0 5463.80089662 0 699.17463706 0 709.06133002 0 16015
0.11950000 0.11950300 13604.35126472 0 -64.76771005 0 5308.32449780 0 304.67296193 0 338.72959128 0 15270
0.12050000 0.12050700 13694.18996000 0 168.72261534 0 4793.99242172 0 381.71685241 0 786.06418307 0 15999
0.12150000 0.12150000 13573.62864917 0 72.19914474 0 4882.92163885 0 220.48412237 0 655.43982925 0 15670
0.12250000 0.12250700 13239.11814922 0 70.72235187 0 4524.52070066 0 373.98185166 0 1583.82292421 0 16887
0.12350000 0.12352200 13371.87977669 0 9.43633491 0 4157.76809118 0 849.44260979 0 774.64468669 0 16407
0.12450000 0.12449800 13045.24402656 0 64.60677678 0 4008.35857709 0 349.80082407 0 1915.58280732 0 16306
0.12550000 0.12549900 12860.79742131 0 253.55030783 0 3561.68280239 0 -13.72324890 0 1584.87658792 0 17523
0.12650000 0.12650100 12764.52583180 0 115.62018259 0 3944.16272915 0 -56.74167629 0 2108.58072542 0 17154
0.12750000 0.12750600 12656.71939746 0 -8.03165700 0 3320.33835680 0 355.59153800 0 1849.66782386 0 18007
0.12850000 0.12850300 12637.64253871 0 -3.00004677 0 3452.30141809 0 203.97709396 0 1549.15184255 0 17496
0.12950000 0.12949900 12538.48723800 0 144.64362676 0 3437.06211348 0 -187.28262431 0 996.32776746 0 18405
0.13050000 0.13049000 12489.90779536 0 186.91106921 0 3250.94073749 0 -44.51906634 0 1024.64913886 0 18100
0.13150000 0.13148800 12019.75195673 0 243.76121741 0 3697.09522593 0 -188.02462538 0 1332.71822530 0 19059
0.13250000 0.13249300 11887.10124123 0 37.67502144 0 2875.30407925 0 337.39421116 0 479.82292590 0 18957
0.13350000 0.13349100 12036.61057609 0 35.67494590 0 3335.45565824 0 246.95104565 0 509.19463365 0 19468
0.13450000 0.13450700 11640.65484504 0 72.50038165 0 2654.53380400 0 -47.36007644 0 46.96633895 0 19953
0.13550000 0.13551000 11845.28742873 0 63.04513625 0 2787.59489378 0 -109.87616260 0 231.26476581 0 19956
0.13650000 0.13649900 11765.98537055 0 132.99232437 0 2451.34307591 0 -14.71391461 0 -146.63782397 0 19723
0.13750000 0.13749600 11459.53559887 0 125.30279752 0 2230.77244220 0 163.36334897 0 -238.43633375 0 20946
0.13850000 0.13851100 11410.51250836 0 -7.52686335 0 2794.94835736 0 514.03483200 0 301.29014686 0 20955
0.13950000 0.13949800 11362.04397770 0 112.32276973 0 1938.09793713 0 303.32870886 0 -49.81400377 0 20506
0.14050000 0.14048300 11111.71566258 0 324.10362986 0 2675.37416306 0 -255.15409491 0 701.45498715 0 21447
0.14150000 0.14148400 10497.13025728 0 278.52657424 0 2446.61822601 0 -152.47844829 0 425.22207244 0 21771
0.14250000 0.14249400 10633.03069349 0 23.15143177 0 2811.89570630 0 276.49244872 0 1617.77307806 0 22470
0.14350000 0.14350900 10494.03581333 0 -115.45936023 0 2650.34133155 0 320.39584272 0 514.97092902 0 22519
0.14450000 0.14449900 10730.02321080 0 -9.03499995 0 2041.94481415 0 324.02820972 0 1139.05483539 0 22218
0.14550000 0.14550500 10632.81996075 0 167.01568013 0 2381.73472386 0 -264.57717584 0 1014.81679277 0 23559
0.14650000 0.14650700 10430.47216362 0 110.05905644 0 2170.42523960 0 -149.43391472 0 1273.77960472 0 23044
0.14750000 0.14750500 10322.62136450 0 98.05139388 0 2620.02909029 0 220.94995264 0 1259.59396382 0 23649
0.14850000 0.14849900 10383.33457659 0 -23.54838571 0 1954.70145896 0 365.73998321 0 1014.71475376 0 23640
0.14950000 0.14949500 10115.62635585 0 187.78061905 0 2539.97283072 0 -98.16241677 0 1333.79407140 0 24457
0.15050000 0.15050000 9970.07657830 0 399.31303637 0 2500.78763190 0 -313.53150093 0 1556.38330296 0 24591
0.15150000 0.15149900 9648.75351152 0 128.25971063 0 2706.93970958 0 -62.95929039 0 1438.05132272 0 25020
0.15250000 0.15250500 9490.48213106 0 -7.15599591 0 3192.17957606 0 -10.89596970 0 1565.66663480 0 25297
0.15350000 0.15350100 9580.65356225 0 -53.77267378 0 2762.67297424 0 221.71302699 0 1196.06358770 0 25452
0.15450000 0.15450400 9578.69042039 0 28.61062982 0 2876.05828064 0 158.78157551 0 1295.03033807 0 26061
0.15550000 0.15549900 9604.98764836 0 112.80190944 0 2721.42481279 0 -373.94081423 0 768.11529905 0 26128
0.15650000 0.15649500 9310.47200459 0 334.30198546 0 3453.34399060 0 -127.53434635 0 983.25901009 0 26331
0.15750000 0.15749700 9151.72370267 0 131.48059422 0 3056.22368387 0 -194.28449694 0 832.24681804 0 27345
0.15850000 0.15849900 8882.44053197 0 14.58082024 0 3346.96832067 0 283.34459020 0 1023.89161011 0 26980
0.15950000 0.15949700 8987.44089348 0 60.03864550 0 3071.28552933 0 35.60196582 0 538.56079581 0 27777
0.16050000 0.16050000 8927.71479791 0 59.03966139 0 3222.69145887 0 -62.28871662 0 570.39142194 0 28224
0.16150000 0.16150500 8865.08280874 0 44.60646497 0 2797.98734533 0 109.95036271 0 99.89918730 0 28075
0.16250000 0.16249700 8720.30941498 0 112.78749089 0 3068.59036847 0 -173.96431501 0 476.98025212 0 28590
0.16350000 0.16349900 8849.13366753 0 -115.87306188 0 2686.56518078 0 659.45040607 0 730.86107762 0 29163
0.16450000 0.16449100 8870.06275617 0 -62.39763218 0 2780.86253724 0 360.45946434 0 495.77428535 0 28996
0.16550000 0.16550500 8957.01774025 0 123.61582647 0 2190.20084376 0 74.23116294 0 692.63083086 0 30777
0.16650000 0.16650700 8739.89646879 0 126.03259828 0 2547.49266225 0 -132.32685255 0 771.51364180 0 29211
0.16750000 0.16749900 8643.31432577 0 99.11581606 0 2432.61004426 0 88.86089536 0 1582.58071015 0 30922
0.16850000 0.16850800 8664.33214398 0 -26.45849397 0 2505.30174906 0 312.99801436 0 1375.87407262 0 30867
0.16950000 0.16949900 8617.37201610 0 70.70416231 0 2526.64121199 0 -48.77564591 0 1425.22989904 0 30852
0.17050000 0.17049200 8555.46095474 0 134.10920790 0 2484.33938683 0 29.46309922 0 990.70231237 0 31257
0.17150000 0.17149500 8472.11060967 0 81.60137422 0 2678.30223906 0 -280.68713941 0 1470.82580970 0 32608
0.17250000 0.17250900 8253.80258014 0 124.42770208 0 2860.13132183 0 -183.94417403 0 1165.34097215 0 32361
0.17350000 0.17350400 8422.43313854 0 -37.38720488 0 2591.92399722 0 259.42198750 0 1136.04912101 0 32508
0.17450000 0.17449800 8225.97476700 0 -1.24500904 0 2685.15659877 0 246.84124280 0 740.33739629 0 32791
0.17550000 0.17549800 8328.66815954 0 133.34835179 0 2481.22276048 0 -46.14071025 0 805.25195379 0 33633
0.17650000 0.17650100 7989.59917764 0 181.42647232 0 2575.32047539 0 -64.69195718 0 1066.92434515 0 33984
0.17750000 0.17750300 8010.62808705 0 84.95091570 0 2608.41660709 0 222.18440287 0 1109.33042756 0 34069
0.17850000 0.17849800 7692.62128815 0 75.58406714 0 2462.13481054 0 297.13649360 0 1013.68216332 0 34536
