### header ###
fiducial parameters:
Omega_m = 0.31
Omega_nu = 0
Omega_de = 0.69
Omega_k = 0
H_0 = 100
w_de = -1
zeff = 0
beta = 0
fgrowth = 0
b_1 = 2
gamma = 0.55
Lx = 3500 Ly = 3500 Lz = 3500
nx = 700 ny = 700 nz = 700
xoffset = 1379.75464 yoffset = 22.6059522 zoffset = 368.141391
bins = 400 dk = 0.001
kx_ny = 0.628318531 ky_ny = 0.628318531 kz_ny = 0.628318531
############################
A(data) = 3.33149246 (not used)
A(ran) = 3.32858726 (used)
Ngal = 187176
weighted Ngal = 0
Nran = 9399747
weighted Nran = 0
SN(data) = 6658.1891
SN(ran) = 132.395833
SN(data+ran) = 6790.58494
############################
13 columns: k_central k_mean P_0(k) sigma^{lin}_{P_0(k)} P^img_1(k) sigma^{lin}_{P_1(k)} P_2(k) sigma^{lin}_{P_2(k)} P^img_3(k) sigma^{lin}_{P_3(k)} P_4(k) sigma^{lin}_{P_4(k)} N_modes
### header ###
0.00050000 0 0 0 0 0 0 0 0 0 0 0 0
0.00150000 0.00179520 8767.54682278 0 -12024.07752354 0 -15150.35320733 0 7418.10307249 0 -18226.94032880 0 3
0.00250000 0.00253879 19433.99529268 0 -11217.63659343 0 -11714.63312868 0 -12734.13595216 0 19529.26867446 0 6
0.00350000 0.00331552 31225.26859227 0 -11472.29047536 0 -25408.26852884 0 -9658.07011695 0 -15798.63366896 0 7
0.00450000 0.00420575 36665.50069537 0 -5664.66247335 0 -18206.53252642 0 -21931.51102148 0 -6406.04244216 0 24
0.00550000 0.00557378 49524.63443714 0 -8604.41749807 0 -23182.26530133 0 -16847.08451647 0 -9356.33410398 0 45
0.00650000 0.00659388 50661.81486024 0 -5504.31703907 0 -716.60334394 0 -21909.77227546 0 -31590.61261974 0 40
0.00750000 0.00754703 73988.82028175 0 -10779.29030764 0 -21751.94454288 0 -23610.94006338 0 -30233.05011328 0 57
0.00850000 0.00846663 69740.89185058 0 850.88113804 0 2992.69330775 0 -14098.35317679 0 -37394.96871866 0 75
0.00950000 0.00948925 77100.67740951 0 3448.37513437 0 6449.14283350 0 -20679.31488602 0 -27748.17834900 0 112
0.01050000 0.01054430 68328.64974316 0 1743.79125779 0 9985.02751179 0 -5546.60777303 0 -37773.51127050 0 105
0.01150000 0.01145670 76666.67887292 0 -2676.79383627 0 33501.62585392 0 -2550.11018473 0 -35455.22928438 0 144
0.01250000 0.01249090 68710.29783015 0 2098.09954430 0 12211.85148787 0 -6223.48134039 0 -47618.61224159 0 169
0.01350000 0.01339930 70632.40226127 0 4802.63246414 0 33860.31516323 0 -11739.81014575 0 -28455.90762627 0 180
0.01450000 0.01448870 64354.00840479 0 1198.11545913 0 19403.49450107 0 2461.09223802 0 -34798.96316096 0 267
0.01550000 0.01550050 70800.54480701 0 1309.09397580 0 27696.38245925 0 1484.23506681 0 -32642.05809044 0 238
0.01650000 0.01653350 58805.85895538 0 4582.35020155 0 19534.25971309 0 -5033.22953989 0 -34659.21407941 0 315
0.01750000 0.01747870 56289.71001571 0 7185.75358762 0 28094.77825363 0 -2845.52421545 0 -28933.38365489 0 297
0.01850000 0.01844180 52222.12444692 0 857.10440865 0 27733.64888100 0 -743.25438109 0 -10815.34778892 0 388
0.01950000 0.01947590 52227.33730949 0 338.19610470 0 29885.78473683 0 5902.61301268 0 -16386.79984312 0 399
0.02050000 0.02045430 52300.53920934 0 -377.71736679 0 26457.71758408 0 6304.87963479 0 -12038.38516760 0 462
0.02150000 0.02154770 54538.74275349 0 431.38877794 0 26817.29418914 0 2059.90146201 0 -3289.21645816 0 571
0.02250000 0.02255340 54698.34507758 0 337.28551743 0 35647.32881553 0 482.17204141 0 2208.26840359 0 510
0.02350000 0.02348930 57644.72154688 0 -194.53515799 0 35786.63424920 0 3715.75061920 0 5110.04716995 0 555
0.02450000 0.02439640 57681.43340877 0 825.46787847 0 36631.89436862 0 3992.48707425 0 5086.99966270 0 592
0.02550000 0.02547300 55324.44314531 0 273.66862998 0 31247.11825026 0 6440.44733509 0 12172.47773870 0 837
0.02650000 0.02652900 59165.65738438 0 -1137.36897345 0 39041.45690562 0 6141.31775340 0 18427.91281750 0 723
0.02750000 0.02749970 62880.32106628 0 -3454.09819199 0 26111.22859141 0 13559.09918117 0 21620.51385905 0 826
0.02850000 0.02848090 63711.82810149 0 -1710.79494687 0 24031.96189953 0 4943.31320623 0 13860.89065013 0 831
0.02950000 0.02946900 63463.16346591 0 -1704.48405581 0 10354.35327897 0 6565.76676941 0 22166.75530875 0 996
0.03050000 0.03053250 66548.51263297 0 621.28337913 0 11471.29226764 0 4514.31679947 0 16053.62028680 0 1041
0.03150000 0.03150510 66044.97229152 0 -375.23515691 0 10533.16555617 0 -255.58443336 0 4177.89861364 0 1036
0.03250000 0.03246190 63711.82810149 0 3135.27064452 0 12664.92688321 0 -3212.56519605 0 8524.69397440 0 1059
0.03350000 0.03345080 58327.27380707 0 3849.54372799 0 13230.02336772 0 -6504.53227106 0 -542.64346541 0 1302
0.03450000 0.03451200 53005.05203949 0 5029.71363046 0 15047.75963556 0 -4944.37796114 0 1209.58375678 0 1339
0.03550000 0.03553350 49372.24139107 0 2999.82494739 0 22581.45516264 0 1851.14295305 0 -1619.29257205 0 1365
0.03650000 0.03647120 45293.01006549 0 -273.84941649 0 16117.17284531 0 7563.78594440 0 1175.88870045 0 1308
0.03750000 0.03744890 45034.36335265 0 206.54470605 0 15643.91147153 0 6797.81679196 0 4782.46866809 0 1579
0.03850000 0.03847530 44820.19233958 0 -136.35850264 0 10513.14594568 0 3901.80544801 0 8900.87410130 0 1662
0.03950000 0.03950240 44433.55321397 0 208.58548629 0 9153.87539488 0 3314.20492489 0 7323.81680723 0 1683
0.04050000 0.04050350 45580.82662629 0 1033.51322347 0 9413.28740030 0 -2907.97874546 0 10071.97140467 0 1822
0.04150000 0.04152450 42058.92794735 0 238.50177182 0 12964.61102475 0 -2475.24460533 0 8452.00226961 0 1887
0.04250000 0.04250150 44112.79579823 0 1747.11861687 0 15403.89796957 0 -4674.89514889 0 4005.28631553 0 1920
0.04350000 0.04349210 40486.41804404 0 2147.76592424 0 19953.83969364 0 -3951.76019906 0 3552.77657124 0 2005
0.04450000 0.04448520 39924.20527073 0 843.68073298 0 20577.27587410 0 -1577.78931307 0 457.39319831 0 2151
0.04550000 0.04548030 40370.07138805 0 443.25524956 0 28111.96960890 0 845.16917161 0 1536.31932768 0 2274
0.04650000 0.04648670 39746.19155971 0 301.34116637 0 24025.30718136 0 328.51127153 0 -957.92006155 0 2311
0.04750000 0.04749250 39654.35644898 0 1010.81065243 0 27493.30264313 0 2565.99277876 0 1821.79564593 0 2568
0.04850000 0.04851840 37777.06045352 0 -5.04684953 0 21774.90332057 0 50.16781295 0 204.51945349 0 2493
0.04950000 0.04949480 37922.24422158 0 873.30421091 0 24629.77741504 0 2474.00239127 0 -1330.72180985 0 2644
0.05050000 0.05050630 36951.43175270 0 1161.76960674 0 24261.99332424 0 -874.28800008 0 410.75249690 0 2829
0.05150000 0.05149060 35162.53259692 0 1310.32509866 0 22638.13117905 0 1621.97664171 0 -1733.29898548 0 2784
0.05250000 0.05249300 33939.39539747 0 340.75817120 0 22172.96637904 0 1710.58421413 0 1062.15291223 0 3055
0.05350000 0.05348950 33769.58917219 0 55.24347741 0 21221.45259285 0 2203.79865122 0 -78.94270340 0 3009
0.05450000 0.05448610 33943.61005231 0 -99.89264349 0 19492.11316468 0 2805.69572720 0 1948.20201755 0 3336
0.05550000 0.05550870 33542.66328263 0 259.22012771 0 20433.20122574 0 1947.70291368 0 3912.91882735 0 3349
0.05650000 0.05647670 33869.29903276 0 -10.04457615 0 18182.79736495 0 2378.57373273 0 5027.59521184 0 3324
0.05750000 0.05747970 33316.73560080 0 197.43439688 0 19160.26455199 0 -4.27362673 0 4873.49412144 0 3639
0.05850000 0.05849280 33572.60951439 0 544.99369004 0 17315.79849950 0 861.64625380 0 6026.98969526 0 3846
0.05950000 0.05951020 32190.86819858 0 1102.69567355 0 22132.70533412 0 -385.34589205 0 8588.34635369 0 3787
0.06050000 0.06049470 32752.74823598 0 512.61404967 0 18353.04723810 0 -411.61317378 0 5784.46958279 0 3930
0.06150000 0.06148310 31335.62600190 0 -70.29500805 0 20535.57297357 0 1789.22080049 0 8026.13358038 0 4083
0.06250000 0.06249100 31998.65775547 0 -123.50935098 0 18842.16902352 0 2949.06053896 0 7889.90040827 0 4303
0.06350000 0.06350600 32055.22285991 0 18.11691566 0 17249.80587766 0 2530.66731648 0 8730.73514011 0 4470
0.06450000 0.06451750 31691.43160000 0 313.54924685 0 16248.15988127 0 1587.72702553 0 9269.43457589 0 4479
0.06550000 0.06550280 30711.63526160 0 364.39240278 0 15501.94415059 0 -304.71954496 0 7621.24943579 0 4636
0.06650000 0.06648880 30363.81532530 0 413.84250437 0 16233.29767736 0 2198.19759676 0 9019.56099984 0 4653
0.06750000 0.06749660 30130.12380560 0 357.67113743 0 15224.77513886 0 -37.75188344 0 5721.08339223 0 5220
0.06850000 0.06852730 29491.71450926 0 502.15837831 0 13863.10888952 0 -143.62656400 0 8876.50674160 0 5029
0.06950000 0.06949320 28507.70351602 0 493.37747769 0 15214.23850175 0 1404.15662484 0 5293.91703296 0 5040
0.07050000 0.07048030 28236.41283866 0 140.67852385 0 12503.21723170 0 1935.15876994 0 8511.60636200 0 5475
0.07150000 0.07148790 27596.67259869 0 132.56420416 0 11941.89175415 0 1826.95305251 0 5959.48867063 0 5509
0.07250000 0.07249820 27801.30518238 0 162.26532047 0 9973.34848140 0 1672.20867269 0 7101.82650031 0 5916
0.07350000 0.07351270 26525.37388546 0 556.48417008 0 9056.83851278 0 1083.56003146 0 5960.26505441 0 5721
0.07450000 0.07449140 26433.76059867 0 619.72395684 0 8236.02339143 0 -1182.77633376 0 5411.73881814 0 6028
0.07550000 0.07549160 25577.63110624 0 69.41503248 0 7515.43941690 0 493.77676078 0 4908.66430697 0 6183
0.07650000 0.07648840 25173.68971338 0 82.43476676 0 7350.52440948 0 1064.53419221 0 3215.68182240 0 6330
0.07750000 0.07749960 24930.23794037 0 171.92464389 0 6337.74285135 0 -513.20188311 0 587.73361748 0 6583
0.07850000 0.07848650 24268.98077831 0 671.92911176 0 6525.42808611 0 527.40637904 0 508.03449445 0 6549
0.07950000 0.07947320 23726.06668770 0 625.11760592 0 5335.76411905 0 -259.57060954 0 1158.51988603 0 6828
0.08050000 0.08048110 22719.54056465 0 -90.19616456 0 5065.34964625 0 566.51615772 0 -394.22328609 0 7147
0.08150000 0.08149960 22720.53877237 0 608.17469346 0 4469.57491098 0 1379.36779966 0 -629.93118539 0 7386
0.08250000 0.08250610 21965.45008414 0 482.47704932 0 3888.81765638 0 -465.33116796 0 -383.65892100 0 7227
0.08350000 0.08350160 21047.76444864 0 419.77629474 0 5288.19397534 0 -340.48976423 0 1079.52061753 0 7798
0.08450000 0.08449610 20723.90149775 0 448.87737729 0 4332.08843361 0 621.22126843 0 -350.95985415 0 7371
0.08550000 0.08548940 20406.47144110 0 250.67657871 0 5232.17233955 0 -432.28827401 0 -530.40211134 0 8256
0.08650000 0.08650700 19959.93985196 0 249.67171626 0 4905.30367429 0 202.23577603 0 1013.75647434 0 8037
0.08750000 0.08749060 19923.78254991 0 115.44826903 0 5760.26859104 0 641.15658582 0 957.00725604 0 8155
0.08850000 0.08849210 19263.63450755 0 451.65461301 0 5813.38433323 0 -494.36570333 0 1732.94406718 0 8718
0.08950000 0.08949900 19100.70482438 0 531.18071336 0 5645.19742271 0 -690.01996310 0 1178.63931729 0 8571
0.09050000 0.09049190 18396.74655408 0 496.53735970 0 7551.94054606 0 -388.22073030 0 1670.33426040 0 8932
0.09150000 0.09150830 17763.10647243 0 435.75870954 0 7645.18423880 0 -726.90928415 0 818.53144390 0 9285
0.09250000 0.09250820 17771.20304620 0 -21.34633947 0 7622.59147062 0 657.40186199 0 819.02943864 0 9204
0.09350000 0.09350330 17399.98068434 0 -239.17278923 0 6971.20547385 0 404.36285834 0 -594.49481114 0 9349
0.09450000 0.09448040 18037.28086099 0 -196.47168098 0 6028.17645333 0 449.12692922 0 -1155.11488857 0 9564
0.09550000 0.09549270 17832.75918926 0 65.21590532 0 5483.70959514 0 518.06870033 0 -844.55028282 0 10155
0.09650000 0.09649430 18119.13389446 0 63.91901166 0 5172.53497356 0 269.69021763 0 -1809.16277260 0 9913
0.09750000 0.09749140 17255.57330008 0 424.53109087 0 5279.54284172 0 40.06839083 0 -1180.51372958 0 10476
0.09850000 0.09850240 17195.79174852 0 353.00285263 0 4698.34193924 0 -426.85247839 0 -2487.98839062 0 10575
0.09950000 0.09950330 16289.41913392 0 528.37020406 0 5930.92883849 0 29.60994667 0 -1471.05872483 0 10882
0.10050000 0.10051200 15906.32919132 0 324.35540003 0 5330.29615895 0 91.64312211 0 -705.31805105 0 10875
0.10150000 0.10150300 15495.40034439 0 121.45082482 0 5848.04432369 0 832.78585022 0 -296.95348885 0 11118
0.10250000 0.10250800 15590.11916633 0 -338.24379685 0 5221.85752639 0 1349.80975980 0 602.75442551 0 11575
0.10350000 0.10349800 16216.66088194 0 -221.84390312 0 4251.53307018 0 1139.76467199 0 1002.96917619 0 11364
0.10450000 0.10450100 16104.30705685 0 -114.72179563 0 3616.16276180 0 557.49346900 0 1644.43631553 0 12093
0.10550000 0.10551000 16058.05676558 0 283.68952642 0 3863.39663297 0 -642.99328804 0 1099.45149844 0 12067
0.10650000 0.10649700 15914.09302919 0 383.92510972 0 4196.83128683 0 -752.35027171 0 2161.45246127 0 12054
0.10750000 0.10749900 15080.70049050 0 546.10280974 0 5434.84178139 0 -931.65721629 0 1094.12661479 0 12807
0.10850000 0.10850100 15072.93665263 0 319.93223069 0 5334.87682329 0 -435.42819187 0 636.44726360 0 12736
0.10950000 0.10950300 14706.70532940 0 224.34607715 0 5867.89756623 0 -301.26020063 0 -464.55256594 0 12933
0.11050000 0.11050200 14380.29140322 0 44.05733981 0 6560.91991634 0 -221.29932535 0 -643.73861647 0 13428
0.11150000 0.11150900 14414.11955391 0 211.11095183 0 6842.71395721 0 -64.99141949 0 -1206.92186951 0 13453
0.11250000 0.11250000 14109.00072586 0 209.86097394 0 6439.91495764 0 53.87748559 0 -1220.45312979 0 13668
0.11350000 0.11349100 13846.69391804 0 114.29478455 0 6146.31988322 0 415.61931412 0 -592.35753749 0 13791
0.11450000 0.11448600 13918.01031442 0 -82.36766502 0 5675.05492489 0 952.08054635 0 -822.78491793 0 14205
0.11550000 0.11549300 13979.45554551 0 -53.35985943 0 5007.12086228 0 1110.05135537 0 471.16624668 0 14776
0.11650000 0.11649800 13996.42507684 0 -41.33788923 0 3879.09067666 0 756.08689596 0 324.14133993 0 14553
0.11750000 0.11747300 13780.70129620 0 7.63640001 0 3804.62438035 0 519.12680052 0 1314.28465597 0 14568
0.11850000 0.11849100 13721.91795237 0 248.73561924 0 3566.23019314 0 -134.66265863 0 1283.22930452 0 16015
0.11950000 0.11950300 13505.52869991 0 88.78569704 0 3143.03448238 0 200.03971904 0 501.48957913 0 15270
0.12050000 0.12050700 13377.09263925 0 54.45422783 0 3675.27884154 0 -16.35241713 0 967.92210295 0 15999
0.12150000 0.12150000 13030.71455856 0 201.38729947 0 3282.68374316 0 -562.86271745 0 -119.31576941 0 15670
0.12250000 0.12250700 13297.67966910 0 27.38582894 0 3917.59931246 0 117.55892381 0 839.16217934 0 16887
0.12350000 0.12352200 13032.26732613 0 19.53814163 0 2995.61029255 0 403.00307759 0 -386.82545772 0 16407
0.12450000 0.12449800 13088.49969466 0 140.86374684 0 3640.50793910 0 -64.77735939 0 86.73404743 0 16306
0.12550000 0.12549900 12906.82588865 0 317.65077148 0 3062.32384219 0 -358.57506998 0 51.01473675 0 17523
0.12650000 0.12650100 12395.52170933 0 84.15667508 0 3720.98566416 0 455.95910654 0 732.20311245 0 17154
0.12750000 0.12750600 12432.89904305 0 -164.86287880 0 2988.17919059 0 795.68246907 0 693.67894897 0 18007
0.12850000 0.12850300 12703.30242465 0 -106.44365897 0 2697.75619850 0 281.91604403 0 433.73012962 0 17496
0.12950000 0.12949900 12666.36873881 0 143.38366679 0 2602.09462483 0 162.66349444 0 857.72773391 0 18405
0.13050000 0.13049000 12253.33256446 0 270.70949863 0 2711.29854998 0 -573.65556120 0 101.99486896 0 18100
0.13150000 0.13148800 12179.02154490 0 402.92322097 0 3381.69485832 0 -1082.18028655 0 -63.66424687 0 19059
0.13250000 0.13249300 11817.67034833 0 309.79709492 0 3974.43060562 0 -499.79595336 0 -823.94394801 0 18957
0.13350000 0.13349100 11292.05852495 0 244.76718897 0 4361.02536645 0 -361.18926510 0 -716.85844147 0 19468
0.13450000 0.13450700 11303.59336978 0 78.41154598 0 4604.11112996 0 160.59387709 0 -1345.37328102 0 19953
0.13550000 0.13551000 11217.74750540 0 103.15367722 0 4552.53706416 0 482.92735192 0 -734.16070871 0 19956
0.13650000 0.13649900 10975.98159432 0 -19.13830398 0 4166.20849205 0 203.55451935 0 -116.65166390 0 19723
0.13750000 0.13749600 11175.15730912 0 -20.17078351 0 3990.35756444 0 746.01276177 0 73.94989018 0 20946
0.13850000 0.13851100 11118.37038075 0 -62.29803323 0 3586.67126912 0 764.81012236 0 348.61184776 0 20955
0.13950000 0.13949800 11162.84608051 0 18.28594550 0 2848.44120024 0 76.58848593 0 814.65950704 0 20506
0.14050000 0.14048300 11111.38292667 0 101.24765502 0 3056.06840711 0 20.19163496 0 614.48225716 0 21447
0.14150000 0.14148400 10929.26547278 0 189.79256218 0 3463.38152384 0 -438.64685722 0 441.01039129 0 21771
0.14250000 0.14249400 10846.17022524 0 29.91251452 0 3090.07401696 0 -113.53947404 0 168.83574554 0 22470
0.14350000 0.14350900 10793.16539503 0 15.13915110 0 3363.87130482 0 239.01862159 0 -303.76459290 0 22519
0.14450000 0.14449900 10829.95489530 0 73.05915615 0 2802.32400333 0 -275.27907178 0 -351.91369709 0 22218
0.14550000 0.14550500 10783.06131461 0 9.19756362 0 3291.57888311 0 240.82981405 0 -358.74254705 0 23559
0.14650000 0.14650700 10811.83187949 0 -13.44264161 0 2818.65024524 0 302.98266351 0 -682.20621485 0 23044
0.14750000 0.14750500 10743.89829818 0 41.01846276 0 2922.92967895 0 119.60303141 0 23.09885950 0 23649
0.14850000 0.14849900 10722.72520321 0 144.81886767 0 2336.88192340 0 257.69286990 0 -427.40371088 0 23640
0.14950000 0.14949500 10485.15176458 0 123.10563141 0 2410.03945847 0 142.73705001 0 151.70761010 0 24457
0.15050000 0.15050000 10250.07384526 0 235.45834737 0 2656.30839551 0 -74.55691139 0 -242.64544300 0 24591
0.15150000 0.15149900 9950.27879175 0 292.40055251 0 2619.99581670 0 169.64873028 0 446.41845893 0 25020
0.15250000 0.15250500 9553.09193784 0 278.77501705 0 2774.32982223 0 -167.85528373 0 -117.65319899 0 25297
0.15350000 0.15350100 9301.49922626 0 108.61553715 0 2701.47174948 0 110.21732782 0 424.29484837 0 25452
0.15450000 0.15450400 9096.14571477 0 61.24137489 0 2608.51642786 0 115.46601495 0 291.97797790 0 26061
0.15550000 0.15549900 9116.58679074 0 95.50296956 0 2146.84535489 0 136.73227598 0 158.93130667 0 26128
0.15650000 0.15649500 8996.80186370 0 70.00386413 0 2788.61528390 0 117.49348575 0 350.37978455 0 26331
0.15750000 0.15749700 8952.95836217 0 37.23092992 0 2198.88525097 0 -9.30549206 0 17.48238828 0 27345
0.15850000 0.15849900 8872.40299873 0 -12.62111666 0 2373.98197719 0 170.57484523 0 411.09077841 0 26980
0.15950000 0.15949700 9064.71326262 0 -15.35908953 0 2049.36482491 0 213.65749065 0 397.57615493 0 27777
0.16050000 0.16050000 9099.10706435 0 -119.43222698 0 2078.74540563 0 159.96056975 0 436.10364576 0 28224
0.16150000 0.16150500 9183.15615483 0 91.74638116 0 2151.20419529 0 -161.63423137 0 449.11251067 0 28075
0.16250000 0.16249700 9002.80220125 0 235.48274801 0 2242.57347575 0 -433.08240372 0 -134.33657744 0 28590
0.16350000 0.16349900 8836.19024069 0 161.26600363 0 2641.87874828 0 -324.78241112 0 640.45673130 0 29163
0.16450000 0.16449100 8504.29726322 0 167.12548297 0 2978.37457249 0 -8.40178133 0 -191.04475831 0 28996
0.16550000 0.16550500 8686.13743718 0 59.74361966 0 2958.63224192 0 70.98665509 0 30.61259087 0 30777
0.16650000 0.16650700 8501.00317772 0 -2.49757118 0 2761.33093941 0 147.57392099 0 -467.72908474 0 29211
0.16750000 0.16749900 8416.87644887 0 103.08746277 0 2962.68052881 0 0.18234482 0 56.94397972 0 30922
0.16850000 0.16850800 8340.59119626 0 129.88457098 0 2679.14517002 0 -127.88704641 0 -319.02053430 0 30867
0.16950000 0.16949900 8354.72138117 0 2.06831968 0 2667.66578118 0 303.04144686 0 -212.42858603 0 30852
0.17050000 0.17049200 8194.97487153 0 -18.22616395 0 2492.67996693 0 91.83045243 0 -812.88269729 0 31257
0.17150000 0.17149500 8205.27859349 0 119.10503667 0 2346.14307285 0 26.24853761 0 -611.55972677 0 32608
0.17250000 0.17250900 8125.73252898 0 33.60943229 0 2229.58568412 0 98.82799950 0 -345.03715498 0 32361
0.17350000 0.17350400 8030.35932642 0 43.57331998 0 2012.02076479 0 -56.05834765 0 -677.40150833 0 32508
0.17450000 0.17449800 7985.22924604 0 160.10364619 0 2259.28790955 0 167.49925631 0 -528.35134902 0 32791
0.17550000 0.17549800 7819.54894603 0 165.17565055 0 2177.53469684 0 -66.98384211 0 -200.36912759 0 33633
0.17650000 0.17650100 7728.17966557 0 -6.11557509 0 2296.90924960 0 236.53308436 0 382.47881764 0 33984
0.17750000 0.17750300 7703.72357630 0 7.23006292 0 2309.50884933 0 473.60631001 0 171.18042458 0 34069
0.17850000 0.17849800 7739.01576499 0 140.63415906 0 2352.78669982 0 -147.87005595 0 606.63745356 0 34536
