### header ###
fiducial parameters:
Omega_m = 0.31
Omega_nu = 0
Omega_de = 0.69
Omega_k = 0
H_0 = 100
w_de = -1
zeff = 0
beta = 0
fgrowth = 0
b_1 = 2
gamma = 0.55
Lx = 3500 Ly = 3500 Lz = 3500
nx = 700 ny = 700 nz = 700
xoffset = 1379.75464 yoffset = 22.6059522 zoffset = 368.141391
bins = 400 dk = 0.001
kx_ny = 0.628318531 ky_ny = 0.628318531 kz_ny = 0.628318531
############################
A(data) = 3.29910865 (not used)
A(ran) = 3.30087414 (used)
Ngal = 186099
weighted Ngal = 0
Nran = 9399747
weighted Nran = 0
SN(data) = 6661.80655
SN(ran) = 131.293533
SN(data+ran) = 6793.10008
############################
13 columns: k_central k_mean P_0(k) sigma^{lin}_{P_0(k)} P^img_1(k) sigma^{lin}_{P_1(k)} P_2(k) sigma^{lin}_{P_2(k)} P^img_3(k) sigma^{lin}_{P_3(k)} P_4(k) sigma^{lin}_{P_4(k)} N_modes
### header ###
0.00050000 0 0 0 0 0 0 0 0 0 0 0 0
0.00150000 0.00179520 39895.81180654 0 -41456.01048125 0 -56321.09810307 0 19456.51042248 0 21267.48106019 0 3
0.00250000 0.00253879 78105.42894105 0 -43540.49003570 0 -53452.80366029 0 -22473.53781634 0 -23702.33152623 0 6
0.00350000 0.00331552 100511.31045600 0 -26762.94732409 0 -40293.43121714 0 -94342.38671340 0 14872.51872378 0 7
0.00450000 0.00420575 101274.60662998 0 10666.80338820 0 -40157.12040664 0 -57835.37922242 0 -2673.53302437 0 24
0.00550000 0.00557378 64055.87703083 0 20325.61661534 0 1115.88532496 0 -36033.74611720 0 12142.75333088 0 45
0.00650000 0.00659388 52383.61227449 0 789.77973405 0 -7848.37496690 0 18290.04923944 0 -28138.81030552 0 40
0.00750000 0.00754703 56574.08830546 0 -11229.50417417 0 -12653.39203838 0 19280.04947903 0 5392.25158511 0 57
0.00850000 0.00846663 64847.34484505 0 -9134.52125621 0 -25327.08096717 0 -10814.41612838 0 -31116.57486218 0 75
0.00950000 0.00948925 70404.47816399 0 3588.36822225 0 -24030.96369181 0 -20010.84844595 0 4141.09802216 0 112
0.01050000 0.01054430 63276.05497340 0 4849.01584978 0 -7403.08559182 0 -9031.75022529 0 2195.10315281 0 105
0.01150000 0.01145670 59532.99782731 0 -1865.99406577 0 -9045.05966162 0 7125.56166178 0 -532.41849094 0 144
0.01250000 0.01249090 66203.13276000 0 -4501.20700468 0 -16920.61915224 0 23210.10420567 0 16068.37157874 0 169
0.01350000 0.01339930 65309.18228597 0 -546.74499004 0 -12677.68175970 0 1404.24535442 0 11696.33265372 0 180
0.01450000 0.01448870 62450.86992045 0 5171.78077217 0 -12301.91200709 0 -12363.24632621 0 17992.91607319 0 267
0.01550000 0.01550050 57609.89518846 0 5087.94241444 0 -11050.31479627 0 -12260.98549035 0 -4579.54412872 0 238
0.01650000 0.01653350 46561.28843652 0 4138.77996200 0 11921.48395177 0 -18867.90060044 0 5988.93579853 0 315
0.01750000 0.01747870 47227.86937310 0 2224.74992225 0 11068.65963602 0 -2799.55120409 0 -14035.79882601 0 297
0.01850000 0.01844180 47296.74570615 0 -3712.48980730 0 6601.05895810 0 12481.70030962 0 -1270.48551922 0 388
0.01950000 0.01947590 56126.33668466 0 -8683.68628266 0 -7480.54651130 0 11549.15247021 0 -8051.24405028 0 399
0.02050000 0.02045430 63463.49620182 0 -6093.50360335 0 -16116.61828546 0 19062.10745900 0 5885.86530529 0 462
0.02150000 0.02154770 70561.97316065 0 -2806.38338141 0 -29514.00781513 0 4353.37244056 0 2899.77125972 0 571
0.02250000 0.02255340 68056.36085808 0 -1059.86590741 0 -15811.61036939 0 -5463.91180859 0 12066.11315997 0 510
0.02350000 0.02348930 64829.04437009 0 9826.62303697 0 -17163.51636540 0 -27059.74775443 0 4401.36404975 0 555
0.02450000 0.02439640 60753.25131555 0 3435.97517618 0 -2198.60797105 0 -7530.66763031 0 7361.58233284 0 592
0.02550000 0.02547300 58191.51755642 0 -765.05523781 0 3809.52668940 0 1652.27779177 0 4309.02983516 0 837
0.02650000 0.02652900 59653.33731420 0 -150.18146140 0 10537.56876136 0 -2664.40496928 0 5804.92174996 0 723
0.02750000 0.02749970 64506.73418677 0 557.16184222 0 9490.39340149 0 -1796.33025773 0 -820.33930900 0 826
0.02850000 0.02848090 58658.23512400 0 513.90617412 0 18526.29173443 0 -3735.03821069 0 -1111.63739653 0 831
0.02950000 0.02946900 59897.34364706 0 1259.44977826 0 17102.29295825 0 -3364.57005023 0 -2148.26502810 0 996
0.03050000 0.03053250 59671.74870113 0 1471.39146074 0 22936.48437695 0 -5381.65949202 0 -5217.32122684 0 1041
0.03150000 0.03150510 60761.79153720 0 -819.83465954 0 23700.33511078 0 -277.99530591 0 -11412.61983578 0 1036
0.03250000 0.03246190 58066.29794288 0 548.34766800 0 22857.07140681 0 1743.26997153 0 -11956.19939821 0 1059
0.03350000 0.03345080 58736.31715052 0 1984.73642029 0 23894.20923343 0 1296.46110247 0 -12302.13383103 0 1302
0.03450000 0.03451200 56235.69588657 0 1313.13117149 0 19801.00299969 0 3515.58778788 0 -5026.23099462 0 1339
0.03550000 0.03553350 53888.79861233 0 1942.10185922 0 19045.02701570 0 5554.91507955 0 -3154.91315432 0 1365
0.03650000 0.03647120 49753.44583018 0 1597.28763730 0 20553.54071263 0 4243.21467247 0 3075.24508664 0 1308
0.03750000 0.03744890 47858.51483158 0 2264.19021860 0 16045.85644893 0 1842.09253634 0 4386.20238352 0 1579
0.03850000 0.03847530 45264.39477736 0 1333.63879465 0 16141.57347860 0 3323.72117187 0 6971.90421926 0 1662
0.03950000 0.03950240 44005.32209980 0 1137.66843577 0 15315.39021792 0 -1467.76463934 0 5286.29738066 0 1683
0.04050000 0.04050350 40965.77957614 0 1796.35244013 0 14908.12146598 0 -2781.94947454 0 1507.33803005 0 1822
0.04150000 0.04152450 41457.34142488 0 1647.36439152 0 23143.66793595 0 -851.97251182 0 4736.81730145 0 1887
0.04250000 0.04250150 37246.23576758 0 826.12114997 0 12597.38149379 0 -21.46002424 0 -3528.66430908 0 1920
0.04350000 0.04349210 41274.11485130 0 -695.95264435 0 23549.82756819 0 2247.68651754 0 437.05859782 0 2005
0.04450000 0.04448520 38602.91097829 0 476.62311558 0 15968.21807030 0 795.38411587 0 -2792.75230037 0 2151
0.04550000 0.04548030 38507.19394863 0 537.41396605 0 18687.89047397 0 2004.23474453 0 4437.29952786 0 2274
0.04650000 0.04648670 37899.50726783 0 -142.19358135 0 16919.51003254 0 3353.76722440 0 2444.53308098 0 2311
0.04750000 0.04749250 38817.41472727 0 -56.84637719 0 11569.89300851 0 3096.29617844 0 204.13237071 0 2568
0.04850000 0.04851840 37987.01681175 0 -136.78662284 0 14625.73959168 0 1106.33358615 0 3812.28839744 0 2493
0.04950000 0.04949480 36913.72168307 0 896.19089581 0 12738.35060700 0 952.96784211 0 3525.69186829 0 2644
0.05050000 0.05050630 37980.25118162 0 -345.49633054 0 10744.37521965 0 3001.96554840 0 5205.91947638 0 2829
0.05150000 0.05149060 37265.42353830 0 -23.30460120 0 7601.79547634 0 1993.65374264 0 6297.47071523 0 2784
0.05250000 0.05249300 35723.74716250 0 1225.71035714 0 8005.98087553 0 -461.18527854 0 3849.65463996 0 3055
0.05350000 0.05348950 35172.84741008 0 963.77732265 0 7800.29462812 0 403.20715562 0 6369.29730667 0 3009
0.05450000 0.05448610 33898.02523285 0 207.09039294 0 7643.02145540 0 1181.26793097 0 6235.63729224 0 3336
0.05550000 0.05550870 33916.54753176 0 221.13850299 0 7887.42707135 0 -268.35816488 0 4464.46186919 0 3349
0.05650000 0.05647670 33034.68646240 0 378.22867097 0 8233.23950100 0 -868.33757291 0 2324.74815394 0 3324
0.05750000 0.05747970 32755.18829931 0 709.82551349 0 8509.52121698 0 -1275.26582511 0 2521.21761668 0 3639
0.05850000 0.05849280 32416.68496845 0 1.73101420 0 10168.83082761 0 -1489.34810860 0 -42.48826818 0 3846
0.05950000 0.05951020 33354.66749436 0 -253.68229308 0 9623.69849761 0 379.54297781 0 1602.99960373 0 3787
0.06050000 0.06049470 32201.95939553 0 535.01050367 0 12932.11381769 0 206.06223898 0 -1270.74061675 0 3930
0.06150000 0.06148310 32867.87486030 0 258.00896901 0 9778.49833342 0 -49.93844700 0 2566.74698015 0 4083
0.06250000 0.06249100 33518.70629722 0 -1422.17981988 0 9700.69358682 0 3757.12078382 0 -46.26149338 0 4303
0.06350000 0.06350600 34278.56420015 0 -600.95654248 0 8665.31926051 0 3716.14990229 0 4318.25771102 0 4470
0.06450000 0.06451750 34598.65614407 0 354.86173724 0 6412.49751878 0 826.86647841 0 4979.79215299 0 4479
0.06550000 0.06550280 34126.72571393 0 600.12913919 0 6833.76336127 0 -164.99042756 0 7691.06852058 0 4636
0.06650000 0.06648880 32860.44375835 0 1087.35654817 0 7809.51141279 0 -854.88284190 0 5501.22259512 0 4653
0.06750000 0.06749660 31424.68831340 0 1121.38655865 0 8609.96309654 0 -451.91303789 0 6327.52785896 0 5220
0.06850000 0.06852730 30358.04790289 0 1163.10055037 0 9258.32119654 0 -886.57704630 0 7172.22232734 0 5029
0.06950000 0.06949320 29219.64744812 0 519.04472566 0 10138.30785361 0 -128.91963685 0 6421.57011788 0 5040
0.07050000 0.07048030 28316.04763275 0 437.53773753 0 9751.77963997 0 1863.48745526 0 6232.76467224 0 5475
0.07150000 0.07148790 28767.45934854 0 162.60138374 0 10052.52853642 0 -253.66121980 0 5209.01392032 0 5509
0.07250000 0.07249820 27299.42852048 0 302.99486383 0 8607.84467792 0 88.89793996 0 4715.75511845 0 5916
0.07350000 0.07351270 28500.60514997 0 -436.43416343 0 8195.45179300 0 1326.88425570 0 5242.48715271 0 5721
0.07450000 0.07449140 27430.52646841 0 -502.06077578 0 8135.57042067 0 285.69814219 0 3171.92705043 0 6028
0.07550000 0.07549160 28915.63773977 0 257.22593050 0 6740.20911501 0 -684.13719224 0 890.49334794 0 6183
0.07650000 0.07648840 28759.47368674 0 271.39715284 0 7884.87609605 0 -1494.28369124 0 -1281.62108096 0 6330
0.07750000 0.07749960 27519.14513202 0 934.59527436 0 7688.86137239 0 -1350.87451470 0 -2051.64961148 0 6583
0.07850000 0.07848650 26834.48554441 0 713.55770126 0 8831.33229643 0 -816.79567158 0 -2918.63738573 0 6549
0.07950000 0.07947320 26139.51114363 0 36.93091304 0 7727.11491066 0 1646.13326866 0 -4272.02960214 0 6828
0.08050000 0.08048110 25917.90902861 0 550.51377876 0 7994.88967858 0 796.15162670 0 -4394.45423405 0 7147
0.08150000 0.08149960 24831.74811147 0 730.94869808 0 6599.49509933 0 660.38317573 0 -3043.54644576 0 7386
0.08250000 0.08250610 23709.54080425 0 713.56768334 0 8272.03650792 0 -642.14813883 0 -2702.32577165 0 7227
0.08350000 0.08350160 22561.38009617 0 885.48789076 0 6697.06435888 0 380.92937743 0 -1655.90461317 0 7798
0.08450000 0.08449610 21743.40432123 0 299.54106510 0 7720.58219566 0 611.58190916 0 -702.96449906 0 7371
0.08550000 0.08548940 21334.91553763 0 238.94098321 0 7618.18826543 0 617.37595045 0 -1480.83006934 0 8256
0.08650000 0.08650700 21202.93029395 0 281.99257329 0 7347.55196870 0 521.65004783 0 979.37598204 0 8037
0.08750000 0.08749060 20758.28420829 0 104.19214599 0 6893.13453853 0 688.92193460 0 -135.96254691 0 8155
0.08850000 0.08849210 20617.31509508 0 248.33079055 0 6595.04752935 0 85.53886005 0 2612.04342849 0 8718
0.08950000 0.08949900 20086.04676126 0 351.52106872 0 7977.78705289 0 575.32478634 0 1968.24381043 0 8571
0.09050000 0.09049190 20163.01966808 0 308.86876173 0 7530.33489440 0 767.40324421 0 4496.29360443 0 8932
0.09150000 0.09150830 19470.48533064 0 -60.40520956 0 7290.50994279 0 1060.75542141 0 3382.53778928 0 9285
0.09250000 0.09250820 19746.65613465 0 228.81915688 0 6791.65008646 0 859.69309401 0 4947.87168818 0 9204
0.09350000 0.09350330 19295.13350688 0 379.75260143 0 7216.29874401 0 -632.50545220 0 4938.23343803 0 9349
0.09450000 0.09448040 18741.90460311 0 188.86422899 0 6336.17899258 0 388.50244670 0 4554.33383806 0 9564
0.09550000 0.09549270 18647.74034102 0 370.41714096 0 7793.72863953 0 -409.24076676 0 4346.81754316 0 10155
0.09650000 0.09649430 17699.44300194 0 559.15603943 0 6641.32000302 0 -631.99858450 0 2684.16948224 0 9913
0.09750000 0.09749140 17605.83329970 0 319.60614950 0 7940.68699910 0 65.57381825 0 3789.04124863 0 10476
0.09850000 0.09850240 17073.78858209 0 202.69827895 0 7636.97675306 0 -224.48138975 0 1431.47424293 0 10575
0.09950000 0.09950330 17328.33155206 0 -128.03566845 0 7502.09670697 0 133.12541873 0 2040.34768179 0 10882
0.10050000 0.10051200 17034.41483293 0 1.92261463 0 6746.97474515 0 521.78979691 0 767.24131273 0 10875
0.10150000 0.10150300 16991.49190074 0 133.64005027 0 6805.90227453 0 193.76431981 0 1689.66621668 0 11118
0.10250000 0.10250800 17083.77065935 0 -25.91857450 0 5836.75348520 0 1075.63648036 0 1208.50791068 0 11575
0.10350000 0.10349800 16918.06817694 0 153.86041142 0 6698.10693140 0 -378.91743430 0 694.95443662 0 11364
0.10450000 0.10450100 16613.06026086 0 469.39830988 0 5846.16991141 0 -614.60093297 0 520.11502617 0 12093
0.10550000 0.10551000 16079.46277569 0 312.94588573 0 6507.46034705 0 58.44140222 0 366.64391576 0 12067
0.10650000 0.10649700 15908.65834268 0 115.67452945 0 7102.68052248 0 -123.21432514 0 841.47247567 0 12054
0.10750000 0.10749900 15927.40246553 0 -22.26091957 0 6776.73242656 0 707.60394674 0 373.33634400 0 12807
0.10850000 0.10850100 15625.83282050 0 292.31071381 0 6782.08947469 0 151.91834284 0 897.15693906 0 12736
0.10950000 0.10950300 15364.74604434 0 317.02855533 0 6548.78614688 0 -223.32346879 0 1162.64581129 0 12933
0.11050000 0.11050200 15021.47349879 0 312.74624419 0 7541.44827375 0 154.13880047 0 1775.52317226 0 13428
0.11150000 0.11150900 14918.21445521 0 83.85577091 0 6990.57070372 0 186.40641975 0 1573.15319274 0 13453
0.11250000 0.11250000 14764.37955353 0 72.25038607 0 7563.71939722 0 5.96932656 0 1862.68888908 0 13668
0.11350000 0.11349100 14481.44311939 0 277.50285676 0 7127.49153005 0 592.46844946 0 1989.54999977 0 13791
0.11450000 0.11448600 14679.19916097 0 -70.53224875 0 6632.56904863 0 845.26677414 0 2393.30284228 0 14205
0.11550000 0.11549300 14244.75697651 0 75.90915012 0 6102.03273381 0 636.20547551 0 2836.93962901 0 14776
0.11650000 0.11649800 14080.16361380 0 187.29038815 0 5818.54173981 0 408.15604769 0 2002.92598329 0 14553
0.11750000 0.11747300 14013.28369620 0 316.58823481 0 5755.34409960 0 -495.67113721 0 1946.39415244 0 14568
0.11850000 0.11849100 13348.03370325 0 271.00008799 0 5538.59992884 0 51.63906022 0 1830.32477638 0 16015
0.11950000 0.11950300 13142.07017592 0 90.45214938 0 6045.10161987 0 146.12984715 0 1005.72977511 0 15270
0.12050000 0.12050700 13023.39436857 0 -90.98375045 0 4751.73496135 0 538.36559075 0 1591.68658284 0 15999
0.12150000 0.12150000 13268.84255704 0 -244.03849733 0 4782.73485682 0 1199.89005065 0 386.89311403 0 15670
0.12250000 0.12250700 13478.68800330 0 -21.58258197 0 3753.17231770 0 101.86854023 0 1294.98597328 0 16887
0.12350000 0.12352200 13352.47018203 0 -6.31357513 0 3123.21451344 0 112.89063902 0 874.97565429 0 16407
0.12450000 0.12449800 13481.01715466 0 -16.93792142 0 3818.42182935 0 325.63976064 0 1596.46688873 0 16306
0.12550000 0.12549900 13497.87577402 0 -31.19532236 0 3209.13801620 0 257.32796952 0 813.58587918 0 17523
0.12650000 0.12650100 13437.42875065 0 102.68973245 0 2840.75500076 0 34.81593269 0 1257.06517091 0 17154
0.12750000 0.12750600 13359.12490020 0 190.19295439 0 3130.67888898 0 -137.62068085 0 849.54575792 0 18007
0.12850000 0.12850300 12885.19805460 0 353.41655428 0 3222.28108458 0 -294.61768278 0 396.05887918 0 17496
0.12950000 0.12949900 12907.82409637 0 31.62377530 0 3582.06842238 0 179.34687289 0 856.64966957 0 18405
0.13050000 0.13049000 12452.08681377 0 15.20714014 0 3096.66218794 0 -29.70577461 0 -173.12803876 0 18100
0.13150000 0.13148800 12633.31697190 0 237.76975282 0 3395.74740485 0 -100.57974314 0 107.10624707 0 19059
0.13250000 0.13249300 12382.10136103 0 85.95755273 0 2850.16033577 0 -246.74585851 0 -70.47191264 0 18957
0.13350000 0.13349100 12278.39866956 0 -10.28785046 0 2982.88868965 0 812.70634726 0 115.53921685 0 19468
0.13450000 0.13450700 12479.03842235 0 -89.63938647 0 2498.42520695 0 365.22646079 0 42.00557929 0 19953
0.13550000 0.13551000 12064.44948043 0 182.60990303 0 2113.72704080 0 297.88958587 0 -510.48564898 0 19956
0.13650000 0.13649900 11995.90588329 0 375.31168617 0 2225.43757646 0 -126.56719397 0 780.15812070 0 19723
0.13750000 0.13749600 11336.64513669 0 279.93515625 0 2325.49126413 0 -331.44822048 0 -268.39032935 0 20946
0.13850000 0.13851100 11225.17860736 0 219.51253352 0 2775.38348594 0 91.46544114 0 866.34337570 0 20955
0.13950000 0.13949800 10915.15747026 0 -54.04041527 0 2275.10395640 0 384.24675443 0 98.74614646 0 20506
0.14050000 0.14048300 11065.32118574 0 125.79191931 0 2610.59048169 0 -41.25248702 0 867.43364036 0 21447
0.14150000 0.14148400 11144.43469357 0 -13.28658847 0 2181.43879817 0 -51.37608794 0 138.98157072 0 21771
0.14250000 0.14249400 11013.14819530 0 29.03974823 0 2824.32893808 0 -289.12199469 0 255.67094469 0 22470
0.14350000 0.14350900 11189.90860106 0 31.82130952 0 2596.51575276 0 -359.74962773 0 -224.49248095 0 22519
0.14450000 0.14449900 11124.47053907 0 -2.73897109 0 2598.74508335 0 87.94332063 0 -295.48168702 0 22218
0.14550000 0.14550500 11144.76742948 0 145.03181865 0 3117.89073890 0 -104.27854641 0 21.71057438 0 23559
0.14650000 0.14650700 11073.67285704 0 171.21037081 0 3039.29851733 0 -47.21245261 0 -497.10966546 0 23044
0.14750000 0.14750500 10764.52792451 0 218.66516607 0 3513.21427173 0 107.23013574 0 186.69368175 0 23649
0.14850000 0.14849900 10336.07498640 0 306.18691031 0 3451.94649979 0 -109.98285991 0 -41.92294987 0 23640
0.14950000 0.14949500 10127.88212848 0 297.02558163 0 3704.85906380 0 -166.22376866 0 127.11398998 0 24457
0.15050000 0.15050000 9806.49251451 0 182.09638062 0 3852.52725997 0 297.48142983 0 650.29462299 0 24591
0.15150000 0.15149900 9397.07207037 0 101.39050964 0 3601.66656739 0 374.68836090 0 736.54309782 0 25020
0.15250000 0.15250500 9513.26344960 0 -47.47431577 0 3293.87476088 0 414.85845801 0 929.14395106 0 25297
0.15350000 0.15350100 9385.21558083 0 -12.25122524 0 2494.25491690 0 549.49782512 0 575.15287278 0 25452
0.15450000 0.15450400 9469.24248891 0 114.25152888 0 2789.65785642 0 102.57549312 0 1283.93914112 0 26061
0.15550000 0.15549900 9209.09846449 0 46.92652155 0 2216.63116609 0 72.31981696 0 786.04754628 0 26128
0.15650000 0.15649500 9198.32891225 0 30.12712918 0 2299.93714637 0 192.78274888 0 1239.97363642 0 26331
0.15750000 0.15749700 9219.12490653 0 -18.43811672 0 1642.09607297 0 34.35342978 0 159.96500623 0 27345
0.15850000 0.15849900 9362.76699821 0 24.29449053 0 2372.00774413 0 -126.65925091 0 799.21168793 0 26980
0.15950000 0.15949700 9253.17488116 0 116.31449152 0 1979.62337850 0 -297.27846092 0 -90.58757290 0 27777
0.16050000 0.16050000 9105.56214098 0 127.97577599 0 2218.59430795 0 -122.41243160 0 187.49335705 0 28224
0.16150000 0.16150500 8890.98075362 0 240.97510873 0 2182.25954674 0 -246.54843520 0 -265.09735298 0 28075
0.16250000 0.16249700 8840.87072581 0 88.98833321 0 2839.19114199 0 -196.95525717 0 -261.18659693 0 28590
0.16350000 0.16349900 8506.43786423 0 53.67107842 0 2369.33476567 0 417.11329835 0 -165.80895790 0 29163
0.16450000 0.16449100 8703.69480195 0 95.08139317 0 2595.85028094 0 163.63064682 0 411.24161869 0 28996
0.16550000 0.16550500 8465.52243869 0 -62.78160941 0 2136.46399455 0 337.34651902 0 124.19589607 0 30777
0.16650000 0.16650700 8574.73745503 0 24.85881063 0 2171.19053219 0 475.63599905 0 276.86400382 0 29211
0.16750000 0.16749900 8512.69329931 0 115.00573028 0 1914.97279149 0 -163.23247285 0 1063.61140462 0 30922
0.16850000 0.16850800 8299.97523304 0 220.79800325 0 1984.90278825 0 -299.30814996 0 449.25891447 0 30867
0.16950000 0.16949900 8231.69782462 0 -0.86050941 0 2443.39068769 0 144.51607800 0 1118.17011153 0 30852
0.17050000 0.17049200 8157.70844978 0 -6.02711170 0 1765.56327740 0 199.80236742 0 383.09992467 0 31257
0.17150000 0.17149500 8208.84995891 0 47.64933486 0 2375.41274160 0 108.45759851 0 866.24355493 0 32608
0.17250000 0.17250900 8101.23207492 0 177.05875896 0 2069.69498892 0 -234.51448651 0 641.17433174 0 32361
0.17350000 0.17350400 7987.43639423 0 131.24546085 0 2201.18112874 0 0.58716908 0 825.04197651 0 32508
0.17450000 0.17449800 7729.84334511 0 106.19455068 0 2329.96101650 0 -79.34664479 0 580.05185448 0 32791
0.17550000 0.17549800 7782.27143308 0 68.34029550 0 2211.11884120 0 -19.27960583 0 274.25979078 0 33633
0.17650000 0.17650100 7513.86446694 0 59.59521944 0 2624.59866343 0 -148.24937489 0 316.65145463 0 33984
0.17750000 0.17750300 7591.38084241 0 80.64963861 0 2200.78184565 0 -108.63727590 0 -234.44017549 0 34069
0.17850000 0.17849800 7606.05449597 0 3.22233654 0 2351.50012098 0 -37.66792308 0 -392.95334404 0 34536
