### header ###
fiducial parameters:
Omega_m = 0.31
Omega_nu = 0
Omega_de = 0.69
Omega_k = 0
H_0 = 100
w_de = -1
zeff = 0
beta = 0
fgrowth = 0
b_1 = 2
gamma = 0.55
Lx = 3500 Ly = 3500 Lz = 3500
nx = 700 ny = 700 nz = 700
xoffset = 1379.75464 yoffset = 22.6059522 zoffset = 368.141391
bins = 400 dk = 0.001
kx_ny = 0.628318531 ky_ny = 0.628318531 kz_ny = 0.628318531
############################
A(data) = 3.34484111 (not used)
A(ran) = 3.33860076 (used)
Ngal = 187455
weighted Ngal = 0
Nran = 9399747
weighted Nran = 0
SN(data) = 6656.22675
SN(ran) = 132.794123
SN(data+ran) = 6789.02088
############################
13 columns: k_central k_mean P_0(k) sigma^{lin}_{P_0(k)} P^img_1(k) sigma^{lin}_{P_1(k)} P_2(k) sigma^{lin}_{P_2(k)} P^img_3(k) sigma^{lin}_{P_3(k)} P_4(k) sigma^{lin}_{P_4(k)} N_modes
### header ###
0.00050000 0 0 0 0 0 0 0 0 0 0 0 0
0.00150000 0.00179520 52988.30433210 0 -53008.49031055 0 -113713.60583135 0 116276.78144608 0 123280.87231888 0 3
0.00250000 0.00253879 83773.14149356 0 -37231.81721155 0 -4498.20129031 0 -97245.06386672 0 -83475.67559141 0 6
0.00350000 0.00331552 105924.59095052 0 -8150.22189184 0 -49822.54398717 0 -54345.42319069 0 11776.52200765 0 7
0.00450000 0.00420575 113720.26054952 0 8296.64787395 0 7167.70821018 0 -64074.62115367 0 25132.76319664 0 24
0.00550000 0.00557378 83840.13232313 0 12402.62007538 0 35439.36887275 0 -1976.90603525 0 45846.90444108 0 45
0.00650000 0.00659388 88945.29936642 0 -7368.75833726 0 1339.73895297 0 101840.03585040 0 1369.67409353 0 40
0.00750000 0.00754703 80064.02341013 0 -17246.81125449 0 -1637.62632060 0 23999.90834035 0 32421.23235920 0 57
0.00850000 0.00846663 112097.61843599 0 -9538.70665540 0 -56238.46868581 0 45703.71708848 0 49075.66278468 0 75
0.00950000 0.00948925 101923.44165145 0 -4192.57226720 0 -60116.94934663 0 2939.65520394 0 40632.71093178 0 112
0.01050000 0.01054430 104372.26702565 0 3674.54682254 0 -50779.60337183 0 -40453.92083698 0 24403.07334942 0 105
0.01150000 0.01145670 91189.71398087 0 6981.99720848 0 -44311.66095951 0 -4859.71885483 0 4878.21897134 0 144
0.01250000 0.01249090 88613.11801782 0 6066.00852612 0 -18395.74834635 0 -49259.99847796 0 -4463.86294455 0 169
0.01350000 0.01339930 76016.06925994 0 11390.21561795 0 -1170.01036607 0 -28668.19313586 0 -19814.53425997 0 180
0.01450000 0.01448870 69052.12852009 0 6548.15394866 0 22762.68532078 0 -4917.54835572 0 -11969.84157046 0 267
0.01550000 0.01550050 64957.70225469 0 3422.10008880 0 9921.67459482 0 -6444.41798360 0 -23490.71148846 0 238
0.01650000 0.01653350 69400.61392820 0 -5838.97172459 0 31961.05859782 0 27253.95461299 0 5284.80006907 0 315
0.01750000 0.01747870 69565.98367470 0 -3677.28634818 0 26914.45307440 0 1651.47922559 0 -9713.35973374 0 297
0.01850000 0.01844180 78439.60670510 0 3701.07696564 0 20148.93384796 0 -543.04940322 0 8786.69022871 0 388
0.01950000 0.01947590 68347.50477797 0 5069.75285144 0 33920.20762675 0 -14127.19028886 0 1411.42135884 0 399
0.02050000 0.02045430 67135.34786350 0 2289.92179552 0 42623.24804808 0 -3132.99694915 0 4542.26661578 0 462
0.02150000 0.02154770 69097.60242758 0 1259.08376876 0 50814.42973025 0 -7.13566574 0 8481.42721511 0 571
0.02250000 0.02255340 65331.91923972 0 1218.86708862 0 47895.22669348 0 3742.80204856 0 -1913.89694539 0 510
0.02350000 0.02348930 69453.29711371 0 -1327.74936907 0 43596.72240423 0 12036.72148806 0 1260.04870289 0 555
0.02450000 0.02439640 69802.22616970 0 -2470.38666107 0 34997.60649830 0 9124.93846204 0 -4795.60064528 0 592
0.02550000 0.02547300 72532.10247457 0 -185.31837333 0 35328.34599130 0 9210.27413136 0 10815.20360336 0 837
0.02650000 0.02652900 70934.08281827 0 905.32006002 0 24442.33618662 0 1842.00380677 0 -2656.88513775 0 723
0.02750000 0.02749970 68313.56571531 0 3514.84467768 0 27093.79772906 0 -854.91833373 0 6764.15500922 0 826
0.02850000 0.02848090 66310.05189858 0 416.47000893 0 25708.83996613 0 3989.68100143 0 -7202.35710945 0 831
0.02950000 0.02946900 64733.21642845 0 541.35688656 0 22332.67961509 0 2168.91683682 0 2692.84279826 0 996
0.03050000 0.03053250 63961.60185677 0 1306.73155085 0 18728.26243086 0 -1167.59248513 0 -7338.15772488 0 1041
0.03150000 0.03150510 60300.28683219 0 1530.19698696 0 21052.75548727 0 -618.83333373 0 -13884.40398766 0 1036
0.03250000 0.03246190 59465.00879002 0 2931.88027488 0 23411.52034225 0 -3402.05829591 0 -976.74404101 0 1059
0.03350000 0.03345080 58631.28351542 0 1113.01270495 0 22608.40677123 0 3779.53609285 0 -7532.04293873 0 1302
0.03450000 0.03451200 55458.20298050 0 -186.97872551 0 20902.91341650 0 6711.40527654 0 4577.32588933 0 1339
0.03550000 0.03553350 56846.70992645 0 172.10875776 0 20956.04024988 0 1473.97570963 0 980.24553188 0 1365
0.03650000 0.03647120 54588.76405173 0 2214.70129782 0 25843.04344921 0 936.35766556 0 6066.50762998 0 1308
0.03750000 0.03744890 54323.01897285 0 2480.69038303 0 24443.33439434 0 -3435.43170753 0 5639.77382740 0 1579
0.03850000 0.03847530 50781.48887532 0 1549.22948092 0 29924.16027827 0 -4885.23969901 0 1601.33592419 0 1662
0.03950000 0.03950240 49219.51560910 0 2501.69711005 0 32964.92283360 0 -3130.67888898 0 -6266.60391412 0 1683
0.04050000 0.04050350 47164.42772656 0 1921.49441529 0 35934.92355239 0 -1545.79120987 0 -8230.81052887 0 1822
0.04150000 0.04152450 43910.60327786 0 1385.67869073 0 32447.18576006 0 1119.61196714 0 -10819.87299728 0 1887
0.04250000 0.04250150 44611.34510105 0 550.08898592 0 31644.73766085 0 4951.59833035 0 -12659.38128473 0 1920
0.04350000 0.04349210 42208.88093009 0 893.80961583 0 28516.24373767 0 2020.71626319 0 -10477.72066262 0 2005
0.04450000 0.04448520 41295.52086141 0 223.61849463 0 25273.06683804 0 3774.65596619 0 -9617.83125442 0 2151
0.04550000 0.04548030 40982.30545959 0 -112.17525681 0 24339.85352681 0 2140.54555502 0 -9774.54986730 0 2274
0.04650000 0.04648670 40773.01457318 0 320.27605780 0 19013.74984031 0 1437.09747978 0 -12358.14437562 0 2311
0.04750000 0.04749250 39276.81210486 0 1261.45728491 0 21853.87264284 0 -1810.89299933 0 -10175.27481304 0 2568
0.04850000 0.04851840 38886.95653213 0 1674.68200961 0 22295.85684123 0 -1932.74088900 0 -9581.66286118 0 2493
0.04950000 0.04949480 38013.30294852 0 -264.26551321 0 21971.77206640 0 3036.57008288 0 -13031.71276628 0 2644
0.05050000 0.05050630 37000.78757912 0 -366.57625946 0 22008.70575224 0 1582.04833269 0 -8762.72215211 0 2829
0.05150000 0.05149060 37988.79140327 0 -236.47208277 0 17768.87389484 0 2772.81032825 0 -10070.60718744 0 2784
0.05250000 0.05249300 39956.81338976 0 -920.91095557 0 15907.66013496 0 3261.79901931 0 -6660.52995613 0 3055
0.05350000 0.05348950 38089.16673565 0 487.32944799 0 13896.16065643 0 1939.46215435 0 -7790.16836531 0 3009
0.05450000 0.05448610 37617.90177732 0 1826.98632610 0 15666.09386543 0 -1155.82472517 0 -2289.17868533 0 3336
0.05550000 0.05550870 35572.57414810 0 1976.73966729 0 13874.20008647 0 -660.98653685 0 -5059.39367349 0 3349
0.05650000 0.05647670 33380.17724734 0 661.14625008 0 17484.05195721 0 1161.70305955 0 -2971.55348637 0 3324
0.05750000 0.05747970 31931.99966181 0 843.73397072 0 14820.39009812 0 1766.25093161 0 -3207.99562291 0 3639
0.05850000 0.05849280 31603.25658427 0 133.66556002 0 15006.05673504 0 1264.91773835 0 -1563.63694576 0 3846
0.05950000 0.05951020 31815.43118188 0 -348.12050773 0 12234.92117752 0 3463.69207735 0 2517.47988331 0 3787
0.06050000 0.06049470 31857.13408241 0 -271.62452238 0 14275.25776812 0 1620.87861321 0 1177.82965992 0 3930
0.06150000 0.06148310 32530.59156111 0 -318.06114576 0 10428.17628585 0 1763.76650349 0 3784.36076352 0 4083
0.06250000 0.06249100 32619.21022472 0 48.57622619 0 11669.71378104 0 390.86154429 0 4570.32734406 0 4303
0.06350000 0.06350600 32469.92271380 0 362.69655876 0 11546.82331886 0 -128.59577390 0 5199.36457898 0 4470
0.06450000 0.06451750 31826.74420277 0 1177.06436733 0 13057.22251926 0 -2940.86414441 0 4322.17290354 0 4479
0.06550000 0.06550280 31202.53163853 0 721.84393450 0 15160.44619656 0 219.87299742 0 4635.24411980 0 4636
0.06650000 0.06648880 30210.64589545 0 581.53585663 0 15643.02417577 0 1180.02571691 0 4418.52213143 0 4653
0.06750000 0.06749660 29427.05283105 0 133.17311088 0 14255.95908543 0 583.61212870 0 2953.77429766 0 5220
0.06850000 0.06852730 30308.80298844 0 -414.09538366 0 14009.40177727 0 2139.00387865 0 4352.55169198 0 5029
0.06950000 0.06949320 29962.75764365 0 -37.30390999 0 12448.53763075 0 1972.74683639 0 3604.43936663 0 5040
0.07050000 0.07048030 29609.61393282 0 732.84640188 0 11807.91009502 0 16.44447407 0 5965.77737930 0 5475
0.07150000 0.07148790 27976.76791811 0 994.93138576 0 10348.88531887 0 271.94616709 0 3033.80837484 0 5509
0.07250000 0.07249820 27303.86499926 0 808.80002770 0 11382.67360402 0 997.35259406 0 5517.14955394 0 5916
0.07350000 0.07351270 26041.13222670 0 -230.53940153 0 9567.43285549 0 2442.92485742 0 3481.93709633 0 5721
0.07450000 0.07449140 26612.43978150 0 -304.56204996 0 7676.20631667 0 1745.16656621 0 4843.22624497 0 6028
0.07550000 0.07549160 26091.15352494 0 396.67665885 0 6598.23070288 0 673.23454564 0 4187.53686379 0 6183
0.07650000 0.07648840 25872.76785703 0 225.61491008 0 6607.21457240 0 -606.59752525 0 3240.48173877 0 6330
0.07750000 0.07749960 25353.92166379 0 463.59095916 0 6174.02569320 0 -278.98020420 0 2714.25989956 0 6583
0.07850000 0.07848650 24629.22285519 0 484.09858232 0 6946.51646944 0 -755.31383953 0 2297.27525910 0 6549
0.07950000 0.07947320 24069.11740931 0 474.94279924 0 6497.70009374 0 -19.57873541 0 1437.43021569 0 6828
0.08050000 0.08048110 24011.77592109 0 175.42613477 0 7841.03259452 0 237.36048765 0 100.59249802 0 7147
0.08150000 0.08149960 23482.39309075 0 274.33077444 0 6834.59520104 0 -758.48924922 0 -192.89366084 0 7386
0.08250000 0.08250610 23660.18497783 0 192.57645261 0 7695.76009689 0 35.50746882 0 -182.15738220 0 7227
0.08350000 0.08350160 22739.17198325 0 258.53358262 0 7773.04355722 0 -638.72317721 0 -1422.95620367 0 7798
0.08450000 0.08449610 22930.38421863 0 502.90259762 0 7391.79475332 0 -210.44326178 0 -194.62166933 0 7371
0.08550000 0.08548940 22129.48888700 0 74.31068682 0 8023.07241003 0 1364.08413027 0 -2018.14310550 0 8256
0.08650000 0.08650700 21703.36510025 0 69.33584134 0 6609.53263257 0 963.12737851 0 216.03100680 0 8037
0.08750000 0.08749060 22026.56257932 0 257.76163532 0 6435.60048202 0 620.31289940 0 -813.20101465 0 8155
0.08850000 0.08849210 21947.92599296 0 160.85119286 0 5311.47439773 0 97.85740885 0 874.06617614 0 8718
0.08950000 0.08949900 20933.08147220 0 155.75922434 0 5418.00534442 0 552.86511252 0 -258.04446084 0 8571
0.09050000 0.09049190 20687.85510767 0 413.84915909 0 5259.46777524 0 -25.81431725 0 -28.35453409 0 8932
0.09150000 0.09150830 20496.53196032 0 55.00601488 0 5121.07181972 0 236.23916764 0 -1700.56886328 0 9285
0.09250000 0.09250820 19827.95460828 0 437.13734532 0 4123.85121091 0 -287.02243110 0 -1996.78146018 0 9204
0.09350000 0.09350330 19385.08311413 0 658.16160898 0 5249.00877652 0 -1350.25340767 0 -2207.81366451 0 9349
0.09450000 0.09448040 18699.97987864 0 506.36416019 0 4592.34337000 0 -685.35833302 0 -4394.67605799 0 9564
0.09550000 0.09549270 17974.61559823 0 405.99991901 0 5955.04110065 0 -396.68996829 0 -4233.50987514 0 10155
0.09650000 0.09649430 17619.69729589 0 360.55484863 0 5213.66113184 0 -171.58303503 0 -5458.07783899 0 9913
0.09750000 0.09749140 17057.70634652 0 359.58436890 0 5932.58142683 0 683.54492232 0 -3508.47833063 0 10476
0.09850000 0.09850240 16754.47302195 0 106.16504810 0 4673.05401019 0 757.52098773 0 -4270.48792576 0 10575
0.09950000 0.09950330 16556.38424446 0 -93.53505849 0 4794.16988087 0 1030.29344899 0 -1611.72837573 0 10882
0.10050000 0.10051200 16760.12953240 0 -174.85271989 0 4634.90029269 0 1126.82124515 0 -2635.94495791 0 10875
0.10150000 0.10150300 16945.35252143 0 -20.25174924 0 3761.03597634 0 -495.29403652 0 -1505.33052340 0 11118
0.10250000 0.10250800 16604.18730331 0 403.50218146 0 4945.87527273 0 -555.18095444 0 -1475.07373813 0 11575
0.10350000 0.10349800 16698.24065343 0 283.34680844 0 5122.40276335 0 -758.68445429 0 -1424.43133286 0 11364
0.10450000 0.10450100 16407.54038141 0 -48.98937327 0 5856.86182527 0 -657.42293527 0 -2163.19377919 0 12093
0.10550000 0.10551000 16743.60364895 0 71.05675146 0 5963.67005188 0 476.06744661 0 -2921.78728566 0 12067
0.10650000 0.10649700 16306.49957722 0 135.34365812 0 5695.14108256 0 -196.20105577 0 -2248.09689183 0 12054
0.10750000 0.10749900 16212.66805103 0 455.25037906 0 5726.27407240 0 -304.79829245 0 -2659.59138981 0 12807
0.10850000 0.10850100 15883.92497349 0 259.46857053 0 6452.02654470 0 603.54522785 0 -1917.59031397 0 12736
0.10950000 0.10950300 15260.71061697 0 -79.26379355 0 5404.37426337 0 695.11525898 0 -1788.79933501 0 12933
0.11050000 0.11050200 15390.03397338 0 225.33873928 0 5147.44668606 0 794.17628452 0 -971.33153690 0 13428
0.11150000 0.11150900 15175.30840047 0 49.59273439 0 4376.37558303 0 408.40559963 0 -1175.86651806 0 13453
0.11250000 0.11250000 15031.12284014 0 227.91855169 0 4821.53186374 0 149.14443448 0 -622.93707660 0 13668
0.11350000 0.11349100 14569.06357528 0 328.87617191 0 4584.65717052 0 -46.01205236 0 67.40453121 0 13791
0.11450000 0.11448600 14424.32345510 0 70.86498466 0 4801.54552684 0 70.41102197 0 42.14288831 0 14205
0.11550000 0.11549300 14283.57616583 0 -19.58616651 0 4742.86200379 0 470.04492667 0 416.39126143 0 14776
0.11650000 0.11649800 14362.10184022 0 70.96059078 0 5074.72170767 0 734.15294488 0 581.31181445 0 14553
0.11750000 0.11747300 14336.14843936 0 169.98812091 0 4580.58670124 0 -466.11975207 0 834.39185553 0 14568
0.11850000 0.11849100 14017.60926301 0 310.29841702 0 5239.08215525 0 -523.74184757 0 918.80473727 0 16015
0.11950000 0.11950300 13627.08821846 0 456.80425575 0 6185.40526127 0 -719.07002615 0 192.70621962 0 15270
0.12050000 0.12050700 13597.69654655 0 4.19093077 0 6301.36372536 0 -142.23018230 0 341.17076373 0 15999
0.12150000 0.12150000 13311.21092938 0 -16.97186048 0 5844.15131356 0 608.00499815 0 -732.93402233 0 15670
0.12250000 0.12250700 13389.73660377 0 172.70657328 0 5549.54694022 0 52.95026153 0 -231.19267303 0 16887
0.12350000 0.12352200 13268.84255704 0 28.74638607 0 5367.79549583 0 125.11757453 0 -881.96865396 0 16407
0.12450000 0.12449800 13158.70697134 0 -2.22315279 0 4567.29944729 0 806.54186000 0 -670.52274798 0 16306
0.12550000 0.12549900 13151.05404545 0 41.43393900 0 4730.85023749 0 441.82892163 0 -923.84124980 0 17523
0.12650000 0.12650100 12875.99236113 0 8.71681569 0 3525.50331795 0 281.50566974 0 -483.09593811 0 17154
0.12750000 0.12750600 13114.78583143 0 -22.77887847 0 3122.49358564 0 1028.60647794 0 -241.85242241 0 18007
0.12850000 0.12850300 12729.58856141 0 30.35438781 0 2368.44746991 0 306.27342165 0 -649.89090342 0 17496
0.12950000 0.12949900 12599.26699727 0 185.27622678 0 2447.06187388 0 -54.20079398 0 -59.24473762 0 18405
0.13050000 0.13049000 12348.27321033 0 245.80643413 0 2570.18525121 0 48.14256039 0 -389.53614626 0 18100
0.13150000 0.13148800 12020.52834051 0 114.64415726 0 2243.15021799 0 137.33230973 0 -41.14212961 0 19059
0.13250000 0.13249300 12119.46181729 0 -59.68605635 0 2182.29282034 0 219.27185455 0 -384.41090415 0 18957
0.13350000 0.13349100 11952.76112716 0 73.51223155 0 1979.82302005 0 222.02247139 0 -41.41597126 0 19468
0.13450000 0.13450700 12004.44610494 0 196.29533095 0 2188.43734344 0 -89.14283358 0 181.95663153 0 19953
0.13550000 0.13551000 11625.79264113 0 251.61822133 0 2177.74542959 0 -523.94259824 0 370.23413621 0 19956
0.13650000 0.13649900 11539.72495281 0 218.18602637 0 2903.69754344 0 57.99531428 0 933.42737132 0 19723
0.13750000 0.13749600 11364.04039315 0 56.14508081 0 2961.21649081 0 367.96265907 0 563.87423461 0 20946
0.13850000 0.13851100 11401.97228671 0 -113.76684358 0 3007.74406201 0 402.37864320 0 1601.96812241 0 20955
0.13950000 0.13949800 11428.14751151 0 58.28468361 0 2863.11485381 0 133.63228643 0 1110.66137120 0 20506
0.14050000 0.14048300 11374.24429434 0 231.06956074 0 3258.18328910 0 -317.74171929 0 1914.76205875 0 21447
0.14150000 0.14148400 10977.34581155 0 115.33070235 0 3048.03838052 0 -144.34416444 0 1257.00971493 0 21771
0.14250000 0.14249400 11196.67423120 0 76.99342554 0 3367.53139981 0 365.48821303 0 2360.22889298 0 22470
0.14350000 0.14350900 11055.45002046 0 -56.22604655 0 2695.56014151 0 435.52912176 0 1665.82014324 0 22519
0.14450000 0.14449900 10885.52179201 0 118.90983160 0 2864.64543898 0 78.31261250 0 1643.84848209 0 22218
0.14550000 0.14550500 10693.28916651 0 243.70021583 0 2558.12912012 0 211.93946424 0 1973.60085856 0 23559
0.14650000 0.14650700 10357.42554052 0 166.41231901 0 2602.59372869 0 -80.82077578 0 1682.14638515 0 23044
0.14750000 0.14750500 10263.83802067 0 138.31831714 0 2498.74685166 0 197.30352075 0 2132.26043090 0 23649
0.14850000 0.14849900 10177.61505560 0 32.39206251 0 2380.63669536 0 -26.61787447 0 1121.73038575 0 23640
0.14950000 0.14949500 9999.34624705 0 103.19549103 0 2365.84103863 0 -120.35945104 0 1226.44237614 0 24457
0.15050000 0.15050000 10086.97779414 0 108.85166874 0 2317.25050480 0 -154.25082156 0 1233.31891825 0 24591
0.15150000 0.15149900 9759.86512254 0 -33.94727015 0 2299.71532243 0 242.20512248 0 845.65496604 0 25020
0.15250000 0.15250500 10106.68685111 0 -167.30183301 0 1833.71868265 0 398.73740325 0 885.62653072 0 25297
0.15350000 0.15350100 10209.87934752 0 9.94586450 0 1959.33757928 0 72.68682467 0 58.12031207 0 25452
0.15450000 0.15450400 10033.57368083 0 256.57820460 0 1893.72205814 0 -357.69997454 0 834.62144331 0 26061
0.15550000 0.15549900 9740.84371978 0 225.82897018 0 1933.80564391 0 -90.55784849 0 473.75604116 0 26128
0.15650000 0.15649500 9486.91076565 0 157.14562396 0 2194.34895142 0 -3.51858241 0 542.12217915 0 26331
0.15750000 0.15749700 9378.88250737 0 143.12856926 0 2342.64934581 0 -307.15628092 0 -109.56793824 0 27345
0.15850000 0.15849900 9092.51889337 0 150.53527058 0 2381.96763899 0 208.22834975 0 379.28344380 0 26980
0.15950000 0.15949700 8968.92968577 0 64.92010310 0 2502.97259770 0 -112.63110501 0 -79.99880717 0 27777
0.16050000 0.16050000 8981.71783585 0 158.61077108 0 2337.42539205 0 -83.07328697 0 121.75916010 0 28224
0.16150000 0.16150500 8806.70983921 0 28.11651700 0 2256.85893742 0 537.49493179 0 177.70426662 0 28075
0.16250000 0.16249700 8640.77444166 0 5.81371707 0 2116.89912313 0 103.87072310 0 49.14165541 0 28590
0.16350000 0.16349900 8780.82298553 0 91.41996723 0 1881.86556860 0 -130.55226104 0 297.23187790 0 29163
0.16450000 0.16449100 8528.26533982 0 145.52204956 0 2053.08037589 0 3.65575833 0 67.85061915 0 28996
0.16550000 0.16550500 8435.11037665 0 144.23657983 0 2075.66205288 0 -169.43577930 0 172.06106562 0 30777
0.16650000 0.16650700 8346.80226655 0 27.14004802 0 2181.05060628 0 212.11470516 0 237.54460152 0 29211
0.16750000 0.16749900 8344.24020006 0 -48.81446510 0 1860.53719687 0 424.15731753 0 402.47402750 0 30922
0.16850000 0.16850800 8400.69439252 0 47.84076892 0 2050.78449812 0 9.29251536 0 325.22494987 0 30867
0.16950000 0.16949900 8368.64083334 0 128.38725939 0 2032.89439744 0 -247.62206307 0 548.72698694 0 30852
0.17050000 0.17049200 8173.01430157 0 117.00547309 0 2081.37401930 0 -278.35355157 0 83.35910711 0 31257
0.17150000 0.17149500 8137.17864423 0 113.40859792 0 2597.38086612 0 -303.99418068 0 357.41160342 0 32608
0.17250000 0.17250900 7921.32176922 0 80.67670113 0 2409.86199932 0 14.66278419 0 45.37397580 0 32361
0.17350000 0.17350400 8108.27498498 0 -31.23857803 0 2682.91617699 0 229.79629133 0 501.60160022 0 32508
0.17450000 0.17449800 8015.65239927 0 -18.11170279 0 2096.73532708 0 379.12816704 0 60.68936602 0 32791
0.17550000 0.17549800 8199.84390699 0 9.20561583 0 2255.21744027 0 339.02239888 0 625.12426064 0 33633
0.17650000 0.17650100 7996.38699017 0 36.40263933 0 2070.51573749 0 83.74508077 0 686.75582384 0 33984
0.17750000 0.17750300 7939.92170651 0 161.92482073 0 1780.15929258 0 140.27147692 0 728.81697002 0 34069
