### header ###
fiducial parameters:
Omega_m = 0.31
Omega_nu = 0
Omega_de = 0.69
Omega_k = 0
H_0 = 100
w_de = -1
zeff = 0
beta = 0
fgrowth = 0
b_1 = 2
gamma = 0.55
Lx = 3500 Ly = 3500 Lz = 3500
nx = 700 ny = 700 nz = 700
xoffset = 1379.75464 yoffset = 22.6059522 zoffset = 368.141391
bins = 400 dk = 0.001
kx_ny = 0.628318531 ky_ny = 0.628318531 kz_ny = 0.628318531
############################
A(data) = 3.28008035 (not used)
A(ran) = 3.27378685 (used)
Ngal = 184111
weighted Ngal = 0
Nran = 9399747
weighted Nran = 0
SN(data) = 6719.2656
SN(ran) = 130.216125
SN(data+ran) = 6849.48172
############################
13 columns: k_central k_mean P_0(k) sigma^{lin}_{P_0(k)} P^img_1(k) sigma^{lin}_{P_1(k)} P_2(k) sigma^{lin}_{P_2(k)} P^img_3(k) sigma^{lin}_{P_3(k)} P_4(k) sigma^{lin}_{P_4(k)} N_modes
### header ###
0.00050000 0 0 0 0 0 0 0 0 0 0 0 0
0.00150000 0.00179520 62420.81277672 0 -14258.17732482 0 -58426.42910779 0 50757.64280188 0 -175011.32400509 0 3
0.00250000 0.00253879 103799.18487933 0 -14070.18153655 0 9017.53131080 0 -5917.48630779 0 175894.18328217 0 6
0.00350000 0.00331552 92779.19341552 0 2927.77653201 0 22102.64819039 0 -29427.49647893 0 -45239.77232014 0 7
0.00450000 0.00420575 79644.88707746 0 22696.24905106 0 69889.29206574 0 -27630.72257332 0 43550.58302492 0 24
0.00550000 0.00557378 84817.71042214 0 -15092.34624729 0 39944.16942524 0 73597.52285341 0 26090.04440524 0 45
0.00650000 0.00659388 75578.74336427 0 -14582.81665949 0 49504.44845870 0 57441.53081878 0 20245.53817338 0 40
0.00750000 0.00754703 119801.56383623 0 -7306.90273188 0 6110.92787376 0 438.53594526 0 34283.66615074 0 57
0.00850000 0.00846663 110823.12899467 0 -2389.60947369 0 -1623.47395330 0 28147.01779126 0 33642.37314320 0 75
0.00950000 0.00948925 108967.01718539 0 3306.21926308 0 18033.28803008 0 -17382.56750513 0 21218.90161755 0 112
0.01050000 0.01054430 128127.72538526 0 856.20158521 0 6399.95337503 0 -1344.67453561 0 37798.68828757 0 105
0.01150000 0.01145670 104074.13565168 0 4611.26495200 0 7151.24887391 0 13021.28704115 0 8145.90741623 0 144
0.01250000 0.01249090 116855.74192678 0 2388.65563075 0 21827.80833001 0 -8617.74911680 0 24523.74557221 0 169
0.01350000 0.01339930 108897.36446855 0 -649.24317752 0 30963.84908020 0 10373.44122892 0 -6617.15228487 0 180
0.01450000 0.01448870 104913.07378884 0 7790.77838114 0 22188.16131886 0 -6980.85481520 0 8187.10012169 0 267
0.01550000 0.01550050 99071.00762030 0 8586.70485654 0 22804.61004524 0 -15639.36408078 0 -13177.22927024 0 238
0.01650000 0.01653350 81196.98917840 0 9275.95619969 0 49694.77339833 0 -5246.64635157 0 4444.88590658 0 315
0.01750000 0.01747870 79541.73894584 0 7452.55233021 0 31839.38816729 0 10723.88977889 0 -9031.65040451 0 297
0.01850000 0.01844180 69400.61392820 0 604.25062798 0 49648.63401902 0 14455.15698262 0 13188.87502704 0 388
0.01950000 0.01947590 65811.72441970 0 4119.60328248 0 27896.24582826 0 14447.28223279 0 -848.19374102 0 399
0.02050000 0.02045430 62508.76596852 0 -328.90168166 0 27516.03959688 0 8836.84462131 0 15315.61204186 0 462
0.02150000 0.02154770 62353.15647533 0 -816.08250761 0 12017.42280537 0 9441.39249337 0 12094.72844810 0 571
0.02250000 0.02255340 64067.85552353 0 -1268.53346856 0 6774.63619034 0 5628.60499207 0 7837.74960022 0 510
0.02350000 0.02348930 63256.53446677 0 -1821.37418044 0 8440.66706632 0 -4325.57790100 0 4425.34321755 0 555
0.02450000 0.02439640 65345.33958803 0 -668.21910638 0 8297.57953450 0 -3756.48858559 0 -9135.38636957 0 592
0.02550000 0.02547300 65159.22930323 0 518.79073725 0 4328.52815939 0 -3490.31095003 0 -5891.69927488 0 837
0.02650000 0.02652900 67848.95547515 0 907.72906800 0 6928.75946313 0 -5776.82774809 0 -22680.83228730 0 723
0.02750000 0.02749970 64448.61631476 0 799.76513866 0 11669.71378104 0 -6881.30023139 0 -13495.10297478 0 826
0.02850000 0.02848090 64139.28283188 0 1482.74884642 0 17257.90245143 0 2495.05348308 0 -28927.94896838 0 831
0.02950000 0.02946900 61209.65406997 0 3513.23645412 0 9328.97212110 0 -7017.87723061 0 -19257.53434923 0 996
0.03050000 0.03053250 56806.11614562 0 4423.76826759 0 17940.01106375 0 -3400.61644031 0 -19924.22619779 0 1041
0.03150000 0.03150510 50846.03964155 0 4993.71160516 0 24785.71964413 0 -881.56604351 0 -17459.54041195 0 1036
0.03250000 0.03246190 46061.96274991 0 679.81273455 0 26121.65431655 0 5528.01892695 0 -7220.63540202 0 1059
0.03350000 0.03345080 47540.75203901 0 -1459.74570395 0 18698.98167092 0 8365.16928870 0 -10945.76917384 0 1302
0.03450000 0.03451200 48148.10598390 0 -660.64270974 0 18533.27918851 0 5733.62753597 0 -2837.21690893 0 1339
0.03550000 0.03553350 48478.06909311 0 302.43143103 0 14053.43382915 0 -1893.53350779 0 -6367.50053276 0 1365
0.03650000 0.03647120 46507.05248344 0 2879.11945100 0 20006.41196717 0 -2638.29629166 0 2500.09997769 0 1308
0.03750000 0.03744890 46823.26250843 0 -151.07873923 0 20714.80671626 0 -423.42529853 0 3764.05278191 0 1579
0.03850000 0.03847530 47178.84628259 0 -1173.81464662 0 17983.71037973 0 5344.62598541 0 1588.04867024 0 1662
0.03950000 0.03950240 51308.54255429 0 -1335.71284847 0 19610.67806006 0 4974.69020240 0 8037.92352274 0 1683
0.04050000 0.04050350 49186.46384219 0 589.59361121 0 10912.27375905 0 2277.67711409 0 72.15344901 0 1822
0.04150000 0.04152450 49792.15410753 0 1693.00466696 0 20400.81493065 0 -617.92829206 0 16876.91983626 0 1887
0.04250000 0.04250150 46073.60850670 0 1054.89261470 0 12779.38803571 0 -25.73102236 0 1793.60182328 0 1920
0.04350000 0.04349210 46301.75442793 0 1783.32028371 0 22987.94753079 0 405.21909874 0 13265.07155007 0 2005
0.04450000 0.04448520 42075.89747869 0 2082.08385591 0 16165.64137597 0 -2361.95911970 0 -112.24291312 0 2151
0.04550000 0.04548030 41370.38644081 0 2119.22827449 0 21323.04795690 0 394.61813270 0 3898.69991286 0 2274
0.04650000 0.04648670 39338.81189580 0 58.79920424 0 18812.44461570 0 -328.75195050 0 1961.64454825 0 2311
0.04750000 0.04749250 37693.76556444 0 -2.82849923 0 17750.57341987 0 3626.91013164 0 -2199.78363792 0 2568
0.04850000 0.04851840 40133.71798108 0 84.41787277 0 16796.39774642 0 2546.09517143 0 3719.86545327 0 2493
0.04950000 0.04949480 37090.51536243 0 -314.11046141 0 13037.03654082 0 2933.63268400 0 -3774.83342534 0 2644
0.05050000 0.05050630 37973.26372754 0 1243.44518106 0 14964.79748239 0 -1591.66440045 0 3729.49261222 0 2829
0.05150000 0.05149060 37184.90144846 0 1422.36837023 0 16163.86678446 0 -904.86421182 0 864.97915848 0 2784
0.05250000 0.05249300 35738.94210232 0 1091.32830580 0 17279.41937351 0 -540.94983964 0 5896.06920648 0 3055
0.05350000 0.05348950 34560.50242657 0 92.78440628 0 18660.38430554 0 1413.95015175 0 2783.77952203 0 3009
0.05450000 0.05448610 35258.80418643 0 -200.81055723 0 18168.37880891 0 1589.97853851 0 7246.91044759 0 3336
0.05550000 0.05550870 34361.19361741 0 122.56659924 0 18199.65598431 0 1409.12548107 0 3487.94852508 0 3349
0.05650000 0.05647670 35216.99037394 0 1416.84495415 0 18482.59241846 0 -419.33042862 0 5028.06104211 0 3324
0.05750000 0.05747970 33053.54149722 0 1065.77418803 0 18868.67698422 0 -1257.70846034 0 1916.60319744 0 3639
0.05850000 0.05849280 31769.62453849 0 586.25183357 0 18503.00022084 0 1912.14453627 0 4753.86447116 0 3846
0.05950000 0.05951020 30555.24938463 0 114.43342451 0 15133.27276403 0 2107.29414657 0 4831.83558571 0 3787
0.06050000 0.06049470 32243.66229606 0 -1306.38772374 0 14164.23488667 0 4198.38405440 0 4092.19693482 0 3930
0.06150000 0.06148310 31811.66017492 0 -328.78855145 0 10870.13830185 0 2262.64854223 0 -2116.46656645 0 4083
0.06250000 0.06249100 32426.77795767 0 686.49296247 0 9026.27117399 0 -881.02701134 0 -791.32806514 0 4303
0.06350000 0.06350600 30166.61384356 0 811.24341838 0 8104.77016675 0 -1312.37697010 0 -1683.77679110 0 4470
0.06450000 0.06451750 29880.90461018 0 553.81673722 0 9704.97478885 0 -723.90911537 0 -3074.49088524 0 4479
0.06550000 0.06550280 28711.11606805 0 392.47974993 0 9462.89832425 0 878.83760907 0 -4568.80785008 0 4636
0.06650000 0.06648880 29074.24185613 0 79.23750741 0 8088.59920160 0 1707.64504694 0 -2734.42369561 0 4653
0.06750000 0.06749660 28579.46356027 0 -109.91930736 0 7334.73054503 0 1536.37478366 0 -1969.60802766 0 5220
0.06850000 0.06852730 27819.38383341 0 702.37666562 0 7187.48381434 0 834.59260620 0 825.48784262 0 5029
0.06950000 0.06949320 28421.52491573 0 -151.83072238 0 7009.21500579 0 714.10893375 0 1282.80783903 0 5040
0.07050000 0.07048030 27803.07977390 0 371.94883526 0 7601.24091649 0 199.73914760 0 1567.25267597 0 5475
0.07150000 0.07148790 27671.87091400 0 659.10214249 0 9042.75269266 0 -1907.14240644 0 2317.74960866 0 5509
0.07250000 0.07249820 26287.24588698 0 1238.33213927 0 10268.38541142 0 -1709.10908493 0 1903.09411956 0 5916
0.07350000 0.07351270 26082.61330329 0 601.77840018 0 13474.36243649 0 -1700.56886328 0 1021.22084989 0 5721
0.07450000 0.07449140 25304.23310146 0 -55.40429976 0 12953.63073977 0 -14.64160000 0 -1750.05778407 0 6028
0.07550000 0.07549160 25974.58504501 0 186.96874343 0 15727.09544864 0 342.19891768 0 802.91392948 0 6183
0.07650000 0.07648840 25701.85251206 0 -573.95058704 0 11411.84345200 0 1237.37829633 0 -1593.00643528 0 6330
0.07750000 0.07749960 26566.85496205 0 -407.20553212 0 12403.17463523 0 2202.07951569 0 429.27812316 0 6583
0.07850000 0.07848650 26756.18169395 0 173.61050583 0 9452.48369032 0 114.36354997 0 -2980.51517350 0 6549
0.07950000 0.07947320 25819.41919971 0 1002.90595637 0 11989.58390103 0 -1014.01046275 0 -852.74556824 0 6828
0.08050000 0.08048110 24494.24298833 0 1114.86493484 0 10953.52192050 0 -1314.68393906 0 -2898.02994180 0 7147
0.08150000 0.08149960 23718.30284984 0 312.27930480 0 12443.87932803 0 547.84745502 0 -2520.48559768 0 7386
0.08250000 0.08250610 23563.80247635 0 107.60146902 0 11330.21224246 0 1318.49931081 0 -3473.17505075 0 7227
0.08350000 0.08350160 23030.75955101 0 202.35888832 0 11107.83374364 0 81.28150410 0 -3289.36064372 0 7798
0.08450000 0.08449610 22735.29006431 0 457.86124682 0 10462.13753091 0 280.37991325 0 -2701.56047906 0 7371
0.08550000 0.08548940 22505.03681567 0 201.83982030 0 9888.74483108 0 441.12130326 0 -4407.95222074 0 8256
0.08650000 0.08650700 21982.53052744 0 94.62598862 0 9508.83806201 0 1242.25842299 0 -1837.46750722 0 8037
0.08750000 0.08749060 21630.27411236 0 265.55985589 0 8933.88150341 0 1337.49853118 0 -1733.58735660 0 8155
0.08850000 0.08849210 21285.55971121 0 210.20812840 0 7451.66503445 0 1529.72006549 0 329.58268115 0 8718
0.08950000 0.08949900 20561.97002231 0 562.08300630 0 7849.75027532 0 772.75696497 0 -5.12717198 0 8571
0.09050000 0.09049190 19816.75249936 0 641.99175295 0 6978.90276453 0 -223.42661692 0 743.98418185 0 8932
0.09150000 0.09150830 19082.07161351 0 187.08187364 0 7207.98034630 0 116.54297017 0 841.72757320 0 9285
0.09250000 0.09250820 18699.75805470 0 293.82133483 0 6562.88305820 0 -17.18381326 0 -114.55653680 0 9204
0.09350000 0.09350330 18454.75351412 0 105.88299896 0 6308.16262909 0 543.96775433 0 105.55636321 0 9349
0.09450000 0.09448040 18350.49626280 0 1.44675791 0 5624.92271468 0 390.82716158 0 -1529.07677607 0 9564
0.09550000 0.09549270 18103.16257086 0 261.66019104 0 5463.06887762 0 107.03393247 0 -1634.60951503 0 10155
0.09650000 0.09649430 17619.91911982 0 479.44915256 0 5387.10526972 0 -660.71480252 0 -2438.68802019 0 9913
0.09750000 0.09749140 17079.77782845 0 516.37285632 0 6218.29066022 0 -881.70690172 0 -1980.45521827 0 10476
0.09850000 0.09850240 16716.31930445 0 193.85194026 0 6310.23668292 0 801.96008654 0 -1874.66738178 0 10575
0.09950000 0.09950330 16630.80617598 0 -369.84039872 0 5461.87102835 0 1284.13878267 0 -984.16737912 0 10882
0.10050000 0.10051200 17077.00502921 0 -297.32837131 0 4793.74841539 0 1585.88588684 0 -817.28922984 0 10875
0.10150000 0.10150300 17215.75590303 0 185.77089416 0 4393.31184077 0 509.64160889 0 232.89628088 0 11118
0.10250000 0.10250800 16798.39416187 0 257.04292575 0 4482.46288184 0 -698.13095543 0 853.40549446 0 11575
0.10350000 0.10349800 16548.50949463 0 486.41996984 0 4845.10065726 0 -491.70270695 0 1247.43801196 0 11364
0.10450000 0.10450100 16075.69176872 0 342.82113383 0 5803.64626231 0 -223.59963960 0 1281.92054328 0 12093
0.10550000 0.10551000 15811.49945742 0 234.96811647 0 6202.77407569 0 -322.83036045 0 1390.71409414 0 12067
0.10650000 0.10649700 15652.78442909 0 238.80456149 0 6098.22845325 0 764.27330843 0 2023.89943672 0 12054
0.10750000 0.10749900 15345.66918559 0 212.52286120 0 6665.43226519 0 434.39560143 0 2495.84095806 0 12807
0.10850000 0.10850100 15199.04356194 0 158.06064771 0 6459.85692975 0 -66.51024800 0 2566.15914671 0 12736
0.10950000 0.10950300 14897.25209297 0 107.05766763 0 6461.68697725 0 544.79293938 0 2999.78058260 0 12933
0.11050000 0.11050200 14839.35604490 0 170.81108772 0 6370.81680065 0 -412.04129399 0 2079.97652849 0 13428
0.11150000 0.11150900 14743.52810327 0 39.17310941 0 6313.10930293 0 -37.15451157 0 2355.47076948 0 13453
0.11250000 0.11250000 14521.59325234 0 171.33791958 0 6868.45662532 0 -100.01764128 0 1287.77669526 0 13668
0.11350000 0.11349100 14564.40527256 0 201.80321935 0 5904.97543763 0 -118.57487745 0 1481.72845630 0 13791
0.11450000 0.11448600 14185.41907284 0 -3.78752175 0 6095.87711950 0 275.28350825 0 534.54578252 0 14205
0.11550000 0.11549300 14234.22033941 0 145.86254931 0 6388.83999569 0 -1.00728587 0 696.38409191 0 14776
0.11650000 0.11649800 14227.23288533 0 -69.94053340 0 5207.38351437 0 507.75499629 0 -5.08152061 0 14553
0.11750000 0.11747300 14016.61105529 0 -4.06203997 0 5310.07690692 0 545.09461994 0 109.45669353 0 14568
0.11850000 0.11849100 13894.60788886 0 295.42512191 0 5202.19283420 0 -273.33589407 0 -277.61265961 0 16015
0.11950000 0.11950300 13815.52765461 0 165.01593732 0 5214.70370436 0 327.82250820 0 -100.78648305 0 15270
0.12050000 0.12050700 13203.07175913 0 96.24918529 0 4914.84210367 0 102.67775396 0 -57.30743825 0 15999
0.12150000 0.12150000 13321.96939042 0 130.09197636 0 4989.23076160 0 113.12577239 0 -370.21084470 0 15670
0.12250000 0.12250700 13177.11835827 0 -14.69128857 0 4290.45208027 0 563.17438008 0 488.99978225 0 16887
0.12350000 0.12352200 13389.29295589 0 -127.19495572 0 4512.89712626 0 337.35650110 0 -461.94502553 0 16407
0.12450000 0.12449800 13193.97697764 0 194.28116958 0 3870.29535748 0 -373.49383899 0 -18.26764502 0 16306
0.12550000 0.12549900 12868.67217114 0 326.22537584 0 4555.98642641 0 -676.70498116 0 -1505.01996989 0 17523
0.12650000 0.12650100 12824.08555941 0 258.23633855 0 4696.87790124 0 -423.53066490 0 -1294.88615251 0 17154
0.12750000 0.12750600 12520.07585106 0 8.76173504 0 4508.21664115 0 -37.67069587 0 -1580.08519083 0 18007
0.12850000 0.12850300 12441.77200061 0 -23.67504718 0 4488.20812186 0 713.33587732 0 -2140.67864939 0 17496
0.12950000 0.12949900 12657.60669322 0 -64.01350866 0 3768.08997760 0 823.20971077 0 -1822.19492902 0 18405
0.13050000 0.13049000 12610.58001816 0 -16.38646711 0 3696.98431396 0 120.29401298 0 -1882.68631717 0 18100
0.13150000 0.13148800 12481.81122159 0 209.85210098 0 2908.65530847 0 268.00768306 0 -1230.47957183 0 19059
0.13250000 0.13249300 12181.46160823 0 175.45497188 0 3825.85293130 0 -332.82796538 0 -931.03943662 0 18957
0.13350000 0.13349100 12006.10978448 0 180.36726301 0 2890.97594054 0 70.48378022 0 -1035.57064050 0 19468
0.13450000 0.13450700 11979.37999984 0 -138.25731556 0 3404.68690959 0 828.51906675 0 -312.62202278 0 19953
0.13550000 0.13551000 12148.52075330 0 -83.18253526 0 3277.53742778 0 80.62701257 0 253.24529992 0 19956
0.13650000 0.13649900 12080.75353994 0 238.22560101 0 3309.55771336 0 181.02829835 0 132.13053836 0 19723
0.13750000 0.13749600 12087.74099402 0 33.73542829 0 3266.60150758 0 6.00004918 0 562.83720769 0 20946
0.13850000 0.13851100 11837.19085496 0 90.97110649 0 3463.59225658 0 -6.28210941 0 1008.03119848 0 20955
0.13950000 0.13949800 12014.20635825 0 235.87537638 0 3673.95898910 0 -135.46898865 0 769.94201919 0 20506
0.14050000 0.14048300 11719.06960746 0 36.70321076 0 3822.37029546 0 -0.57628861 0 833.61103527 0 21447
0.14150000 0.14148400 11532.40476282 0 233.95216283 0 3715.36242731 0 -29.67549564 0 452.52527197 0 21771
0.14250000 0.14249400 11310.24808795 0 139.98088756 0 3855.81025426 0 39.05188263 0 675.50269541 0 22470
0.14350000 0.14350900 11111.82657455 0 136.71342094 0 3548.24027169 0 295.37632065 0 265.24930238 0 22519
0.14450000 0.14449900 10960.38737142 0 129.37104856 0 3310.09009082 0 308.56153558 0 203.99373075 0 22218
0.14550000 0.14550500 10741.18095493 0 46.46412955 0 3187.44363496 0 309.42664894 0 357.24079898 0 23559
0.14650000 0.14650700 10598.72562133 0 -24.85869972 0 2511.29099541 0 320.49233614 0 124.86358612 0 23044
0.14750000 0.14750500 10550.49000580 0 196.55708320 0 2562.77633164 0 137.73381106 0 834.98079809 0 23649
0.14850000 0.14849900 10248.67635444 0 276.03105493 0 2437.67872127 0 -334.96191167 0 -127.59202057 0 23640
0.14950000 0.14949500 10251.19405615 0 236.84031051 0 2767.27582098 0 -265.27703037 0 24.06856285 0 24457
0.15050000 0.15050000 9812.23775453 0 -21.24296951 0 2798.54190517 0 93.48903002 0 150.19366171 0 24591
0.15150000 0.15149900 9869.56815156 0 -5.17768129 0 2976.62216337 0 201.04125412 0 741.41546064 0 25020
0.15250000 0.15250500 9994.02247251 0 -7.98894480 0 2867.36278224 0 212.19123441 0 531.24171495 0 25297
0.15350000 0.15350100 9928.96151122 0 117.81069398 0 2467.01493719 0 176.61843844 0 221.59213295 0 25452
0.15450000 0.15450400 9958.50845989 0 115.49041558 0 3118.44529875 0 -227.02681945 0 541.83269891 0 26061
0.15550000 0.15549900 9553.42467375 0 75.43710878 0 2762.04077602 0 91.72564062 0 265.05742467 0 26128
0.15650000 0.15649500 9737.54963428 0 -44.60446856 0 2662.25327707 0 291.55651242 0 728.72491309 0 26331
0.15750000 0.15749700 9587.94047865 0 112.70097955 0 2630.05553233 0 40.50715858 0 68.94476573 0 27345
0.15850000 0.15849900 9570.69366739 0 249.93790499 0 2361.29364788 0 -61.42526694 0 585.56307024 0 26980
0.15950000 0.15949700 9144.62533663 0 74.99623370 0 2549.22288897 0 190.76526015 0 79.70644322 0 27777
0.16050000 0.16050000 9204.24052022 0 3.40546329 0 2481.38912844 0 124.54637789 0 691.75795366 0 28224
0.16150000 0.16150500 9112.72705420 0 62.00966211 0 1878.87094542 0 214.31076215 0 45.93197392 0 28075
0.16250000 0.16249700 9075.76009478 0 88.43399519 0 2315.23190696 0 4.98907548 0 596.33927720 0 28590
0.16350000 0.16349900 8938.61744451 0 73.24204999 0 1716.85074040 0 -3.22390040 0 361.31348650 0 29163
0.16450000 0.16449100 8937.10904173 0 99.57499161 0 2427.92955915 0 86.78828338 0 623.86762802 0 28996
0.16550000 0.16550500 8760.91428701 0 121.19018169 0 1896.65013413 0 -14.67065894 0 375.03329713 0 30777
0.16650000 0.16650700 8612.51407184 0 82.77571015 0 2041.90044936 0 52.78245172 0 337.74136563 0 29211
0.16750000 0.16749900 8439.22521072 0 128.48708017 0 1945.34048873 0 -79.54639725 0 423.46522684 0 30922
0.16850000 0.16850800 8399.13053375 0 86.15708337 0 2160.28788559 0 -139.70693500 0 365.51815927 0 30867
0.16950000 0.16949900 8247.45841549 0 50.40039535 0 2054.20058678 0 277.20339445 0 483.93775996 0 30852
0.17050000 0.17049200 8435.53184214 0 -125.54347650 0 1711.57133066 0 508.12100579 0 494.71951252 0 31257
0.17150000 0.17149500 8390.60140330 0 -130.45687674 0 1431.10823343 0 336.08766816 0 30.67470158 0 32608
0.17250000 0.17250900 8654.68280264 0 134.19128276 0 1480.27550950 0 -359.01539050 0 528.19607227 0 32361
0.17350000 0.17350400 8322.45708925 0 206.36502866 0 1495.67009086 0 -395.82596405 0 181.70264312 0 32508
0.17450000 0.17449800 8269.52989741 0 117.92271507 0 1824.45753319 0 -129.05605857 0 194.56843158 0 32791
0.17550000 0.17549800 8051.28841506 0 69.18134096 0 1888.14318607 0 -0.81537600 0 -513.19966487 0 33633
0.17650000 0.17650100 8066.23934855 0 160.84342902 0 2300.34752065 0 -139.69806204 0 80.09796247 0 33984
0.17750000 0.17750300 7786.10898723 0 244.36125116 0 2248.49617492 0 -217.42738849 0 -402.26994947 0 34069
0.17850000 0.17849800 7564.14086270 0 224.02775980 0 2758.52486658 0 -233.82683230 0 -50.97580665 0 34536
