### header ###
fiducial parameters:
Omega_m = 0.31
Omega_nu = 0
Omega_de = 0.69
Omega_k = 0
H_0 = 100
w_de = -1
zeff = 0
beta = 0
fgrowth = 0
b_1 = 2
gamma = 0.55
Lx = 3500 Ly = 3500 Lz = 3500
nx = 700 ny = 700 nz = 700
xoffset = 1379.75464 yoffset = 22.6059522 zoffset = 368.141391
bins = 400 dk = 0.001
kx_ny = 0.628318531 ky_ny = 0.628318531 kz_ny = 0.628318531
############################
A(data) = 3.34588286 (not used)
A(ran) = 3.35792367 (used)
Ngal = 188426
weighted Ngal = 0
Nran = 9399747
weighted Nran = 0
SN(data) = 6582.32028
SN(ran) = 133.5627
SN(data+ran) = 6715.88298
############################
13 columns: k_central k_mean P_0(k) sigma^{lin}_{P_0(k)} P^img_1(k) sigma^{lin}_{P_1(k)} P_2(k) sigma^{lin}_{P_2(k)} P^img_3(k) sigma^{lin}_{P_3(k)} P_4(k) sigma^{lin}_{P_4(k)} N_modes
### header ###
0.00050000 0 0 0 0 0 0 0 0 0 0 0 0
0.00150000 0.00179520 26096.14456356 0 -269.18334993 0 7105.76387523 0 29656.75151985 0 27945.04709483 0 3
0.00250000 0.00253879 19597.59044766 0 -2052.93619033 0 28103.76212316 0 -13453.84372213 0 -45137.28966033 0 6
0.00350000 0.00331552 25673.34813590 0 681.21577096 0 1017.23356459 0 46973.65913905 0 23680.81460415 0 7
0.00450000 0.00420575 35041.08399034 0 -4152.28903988 0 16817.58193259 0 18518.41698460 0 -2366.45105446 0 24
0.00550000 0.00557378 39438.85449228 0 2305.59365681 0 26187.31420248 0 4287.04708281 0 15794.41901412 0 45
0.00650000 0.00659388 51420.45273150 0 -554.92363867 0 45152.59551212 0 10041.43733947 0 -8959.03633809 0 40
0.00750000 0.00754703 43095.73303807 0 3628.46289922 0 43334.08286049 0 9539.44976559 0 31328.74945980 0 57
0.00850000 0.00846663 54640.00538163 0 -622.81950991 0 43278.84869969 0 23315.80331258 0 28981.85218555 0 75
0.00950000 0.00948925 55407.29438651 0 -5673.93471400 0 59583.90642130 0 18329.31207663 0 47724.97682032 0 112
0.01050000 0.01054430 70527.36862617 0 -6911.46828709 0 30543.71453980 0 36193.34844129 0 8692.18213952 0 105
0.01150000 0.01145670 73573.78769194 0 -1082.22686958 0 51593.14266799 0 2491.67066801 0 45922.76822821 0 144
0.01250000 0.01249090 76839.81245729 0 4190.97513484 0 37804.23388605 0 -2899.59380057 0 26430.87688746 0 169
0.01350000 0.01339930 77997.06794686 0 7209.44438430 0 75907.93008970 0 11375.46432601 0 34401.67648627 0 180
0.01450000 0.01448870 68905.50289644 0 2546.76064325 0 62382.32632331 0 3636.21564588 0 37944.42661547 0 267
0.01550000 0.01550050 71465.24024012 0 -1883.99507841 0 54359.73083475 0 29328.78482609 0 20505.29400590 0 238
0.01650000 0.01653350 73713.42586152 0 -3637.93478141 0 45986.09896278 0 11459.97924675 0 41875.81228574 0 315
0.01750000 0.01747870 71830.69517956 0 -1033.32023664 0 41624.59667486 0 14701.04881896 0 11849.28025963 0 297
0.01850000 0.01844180 80208.76353031 0 2260.71867396 0 39164.56919175 0 10061.16857884 0 29869.92432520 0 388
0.01950000 0.01947590 70820.84169742 0 6678.55315118 0 37772.40215081 0 -10838.52839055 0 14590.69140933 0 399
0.02050000 0.02045430 71893.69317823 0 4612.30752451 0 48093.64820688 0 1927.16201694 0 22893.67235673 0 462
0.02150000 0.02154770 61432.47621666 0 2750.93848787 0 49723.49959842 0 3639.24354265 0 11122.69594756 0 571
0.02250000 0.02255340 60421.73543877 0 3075.27836023 0 46410.78089393 0 5165.09278041 0 5020.08647151 0 510
0.02350000 0.02348930 62640.08574039 0 -3176.99572744 0 36023.20948010 0 14439.07474704 0 16761.79321194 0 555
0.02450000 0.02439640 57148.50139541 0 469.75766466 0 43980.69964257 0 7468.59020099 0 3691.57180985 0 592
0.02550000 0.02547300 61701.65956660 0 1153.07410833 0 27546.20765258 0 11253.12842367 0 21012.60535432 0 837
0.02650000 0.02652900 57709.27231311 0 -1227.14112155 0 28551.29192002 0 8126.33145361 0 6174.73552980 0 723
0.02750000 0.02749970 57780.58870949 0 1491.20033849 0 12761.42029666 0 2783.23605338 0 12185.12170323 0 826
0.02850000 0.02848090 58306.53326878 0 307.92046439 0 20649.70139017 0 -891.27194996 0 9920.21055682 0 831
0.02950000 0.02946900 54228.41106288 0 1521.65676531 0 13394.39490649 0 -3808.41756970 0 2297.15325593 0 996
0.03050000 0.03053250 53990.39397637 0 2481.38912844 0 19386.63588171 0 -2692.35478559 0 -3356.44020287 0 1041
0.03150000 0.03150510 51416.57081257 0 1121.43092343 0 15670.53034420 0 -16.80271973 0 -9616.36721643 0 1036
0.03250000 0.03246190 49142.54270228 0 307.46794356 0 18042.49372355 0 2287.01590192 0 295.71349303 0 1059
0.03350000 0.03345080 51941.29534019 0 -272.00716868 0 17196.56813231 0 1558.49063038 0 -9050.64962489 0 1302
0.03450000 0.03451200 50793.80010393 0 -167.47041920 0 13569.30308236 0 4452.17282297 0 -660.77358587 0 1339
0.03550000 0.03553350 49443.33596351 0 2018.27619987 0 16924.94471905 0 -1271.58354772 0 -2392.83701200 0 1365
0.03650000 0.03647120 47171.08244473 0 3066.32776429 0 17448.00556713 0 541.75616965 0 6052.00034437 0 1308
0.03750000 0.03744890 44657.37356838 0 1093.36243132 0 17716.52344524 0 1970.22913469 0 3639.23245145 0 1579
0.03850000 0.03847530 45306.43041379 0 -131.74900119 0 20057.09873723 0 2974.79211588 0 5238.11722112 0 1662
0.03950000 0.03950240 44563.76386614 0 -172.50027702 0 17428.70688444 0 477.62575978 0 4597.45641180 0 1683
0.04050000 0.04050350 45131.96588580 0 898.41468080 0 16356.96452333 0 1063.76224490 0 2057.62776664 0 1822
0.04150000 0.04152450 44266.85252384 0 -69.34360518 0 16323.46910855 0 -3876.72825171 0 -545.26986085 0 1887
0.04250000 0.04250150 41676.28165264 0 1889.79577442 0 15654.22628469 0 -2097.47843727 0 -6580.41824058 0 1920
0.04350000 0.04349210 41990.93891006 0 950.45014040 0 19478.58190441 0 -3173.13599090 0 -6756.59081290 0 2005
0.04450000 0.04448520 40803.07171691 0 409.08105352 0 19802.88850317 0 -675.31747242 0 -14457.26431004 0 2151
0.04550000 0.04548030 41109.52148859 0 -169.75298753 0 17388.44583951 0 4043.99459288 0 -9899.43674494 0 2274
0.04650000 0.04648670 39141.72132603 0 -561.63048547 0 14145.37985185 0 2087.08598573 0 -14344.02318920 0 2311
0.04750000 0.04749250 40584.13148915 0 1409.71331451 0 12557.00953690 0 1167.08229007 0 -11689.45611161 0 2568
0.04850000 0.04851840 38030.38339182 0 1274.75563005 0 17104.84393355 0 -1028.53993075 0 -8079.42678172 0 2493
0.04950000 0.04949480 36032.41517357 0 1741.67283917 0 13364.00502685 0 1420.78232907 0 -8842.61204373 0 2644
0.05050000 0.05050630 35272.33544671 0 -172.79530285 0 13541.79691393 0 2720.70388499 0 -2575.48684335 0 2829
0.05150000 0.05149060 34529.00342724 0 -1081.21646154 0 12415.48586384 0 2483.24135833 0 -5669.95297429 0 2784
0.05250000 0.05249300 36814.34455842 0 78.77555906 0 9962.15746368 0 2277.00055108 0 -2089.71459941 0 3055
0.05350000 0.05348950 34685.83295208 0 1427.65887118 0 8868.84272451 0 -1376.93882753 0 -5033.48463742 0 3009
0.05450000 0.05448610 34320.15618870 0 1148.58217356 0 11424.93106439 0 -2394.37868838 0 -1654.61803433 0 3336
0.05550000 0.05550870 33244.97555654 0 288.86135156 0 11531.40655510 0 -344.94177069 0 -4600.57303814 0 3349
0.05650000 0.05647670 32537.46810321 0 484.57994027 0 11302.04060221 0 718.98462393 0 -4670.61394687 0 3324
0.05750000 0.05747970 32397.71902167 0 -167.12881033 0 11047.87473294 0 809.14829128 0 -4510.01341506 0 3639
0.05850000 0.05849280 32517.17121280 0 -59.26425813 0 9347.31696086 0 2874.22823315 0 -3417.85216037 0 3846
0.05950000 0.05951020 32093.93113725 0 122.97364616 0 9567.14448437 0 3186.58961280 0 444.25345728 0 3787
0.06050000 0.06049470 32091.38016196 0 101.95505156 0 5896.05811528 0 1928.73696690 0 715.72935762 0 3930
0.06150000 0.06148310 31218.72478607 0 276.43366538 0 5825.75101783 0 2646.52595980 0 4281.67894348 0 4083
0.06250000 0.06249100 30336.97462869 0 916.30478148 0 6237.86662283 0 -63.74144160 0 6163.68869764 0 4303
0.06350000 0.06350600 29543.95404689 0 809.75387063 0 6841.24991921 0 -1532.88105662 0 6021.71028551 0 4470
0.06450000 0.06451750 28114.74240814 0 327.31342226 0 7253.78698970 0 802.08985354 0 5248.59840223 0 4479
0.06550000 0.06550280 29610.50122858 0 -709.42401216 0 7329.76168879 0 610.59035615 0 5759.72512239 0 4636
0.06650000 0.06648880 29680.15394541 0 -281.67647418 0 6289.66251258 0 50.94120211 0 3403.72197546 0 4653
0.06750000 0.06749660 29862.49322324 0 569.19800914 0 8496.66651972 0 -1551.00407244 0 3534.44282269 0 5220
0.06850000 0.06852730 29634.79094989 0 109.12717407 0 7171.43485236 0 -407.24435131 0 1673.80580505 0 5029
0.06950000 0.06949320 29112.95013348 0 438.42725153 0 8353.97827098 0 -184.99451038 0 1587.16137449 0 5040
0.07050000 0.07048030 28909.53758145 0 325.50555716 0 7791.97623041 0 787.37294431 0 598.50206060 0 5475
0.07150000 0.07148790 28343.55380118 0 787.21434020 0 8005.35976850 0 310.99494419 0 1378.11449441 0 5509
0.07250000 0.07249820 27139.38254851 0 639.16793421 0 7986.48255129 0 -471.15515548 0 410.95990228 0 5916
0.07350000 0.07351270 26213.15669137 0 712.22897587 0 7446.14161837 0 78.65067218 0 749.42663219 0 5721
0.07450000 0.07449140 25613.89932026 0 263.09761017 0 8664.30996159 0 946.45398214 0 194.55623127 0 6028
0.07550000 0.07549160 25218.60906102 0 -30.92613901 0 6933.25139789 0 1015.96694989 0 2221.20073923 0 6183
0.07650000 0.07648840 25665.69521000 0 -199.10916761 0 7035.30150101 0 1662.98079683 0 867.87285176 0 6330
0.07750000 0.07749960 25373.77490633 0 164.04656670 0 5264.28135472 0 -600.63600689 0 939.67836992 0 6583
0.07850000 0.07848650 25302.45850995 0 517.95113364 0 6223.85844109 0 -594.06225446 0 1124.49209379 0 6549
0.07950000 0.07947320 24364.03233616 0 482.32842729 0 5962.59420577 0 -676.77041922 0 1580.59538589 0 6828
0.08050000 0.08048110 24440.45068313 0 17.26599903 0 7296.53246274 0 176.43543369 0 356.22817270 0 7147
0.08150000 0.08149960 24270.31172195 0 -81.76286205 0 6748.57187751 0 1095.19913353 0 754.84024542 0 7386
0.08250000 0.08250610 24463.07672491 0 280.62170135 0 6082.67859513 0 604.15968016 0 271.03668894 0 7227
0.08350000 0.08350160 23988.70623143 0 351.88818734 0 6200.52256271 0 -1035.78248236 0 -291.14724725 0 7798
0.08450000 0.08449610 23173.50325574 0 588.94588531 0 7083.83657886 0 -278.60864910 0 -73.08133855 0 7371
0.08550000 0.08548940 22690.14889273 0 505.04098040 0 6839.08713580 0 -357.88630665 0 -2051.68288507 0 8256
0.08650000 0.08650700 21860.74918495 0 218.28806538 0 6156.00249816 0 327.04945177 0 -1527.73474124 0 8037
0.08750000 0.08749060 21740.96425791 0 24.73536561 0 5592.28132207 0 1175.26759342 0 -1672.66341176 0 8155
0.08850000 0.08849210 21398.24627221 0 265.93806571 0 5380.99402020 0 1120.47708050 0 -1426.86030499 0 8718
0.08950000 0.08949900 20901.02791302 0 626.38311149 0 4109.28846932 0 -479.70868657 0 -2916.98479738 0 8571
0.09050000 0.09049190 19352.69681905 0 969.91186369 0 5003.62713524 0 -1278.57100180 0 -1364.66087251 0 8932
0.09150000 0.09150830 18567.32916314 0 842.15680252 0 5847.58958462 0 -638.18525416 0 -2993.10368204 0 9285
0.09250000 0.09250820 17935.24184906 0 343.02077538 0 6350.99683170 0 -661.25161645 0 -3011.62598094 0 9204
0.09350000 0.09350330 17371.69813212 0 286.30704890 0 6905.10194004 0 -135.96587427 0 -3573.29528560 0 9349
0.09450000 0.09448040 17277.31204609 0 210.01625069 0 6892.18069560 0 -343.48549653 0 -4293.23597070 0 9564
0.09550000 0.09549270 17275.87019049 0 -284.05664504 0 5778.53579242 0 1023.58549308 0 -3708.13096690 0 10155
0.09650000 0.09649430 17271.76644762 0 -89.48155874 0 5680.76689132 0 642.74595435 0 -4739.16863520 0 9913
0.09750000 0.09749140 17621.36097543 0 75.04248399 0 5611.40254561 0 149.69677609 0 -3251.52857093 0 10476
0.09850000 0.09850240 17531.18954424 0 -7.97168689 0 4178.06498159 0 653.97135478 0 -4021.46837188 0 10575
0.09950000 0.09950330 17245.70213479 0 98.76755247 0 5063.74142270 0 550.92858953 0 -2570.08543043 0 10882
0.10050000 0.10051200 17348.51753050 0 62.71007119 0 3403.99925538 0 1052.24625511 0 -2264.93332880 0 10875
0.10150000 0.10150300 16789.63211628 0 268.06202992 0 4085.95259094 0 157.55378001 0 -1584.66585517 0 11118
0.10250000 0.10250800 16576.79204684 0 372.98586217 0 3598.53884985 0 78.74084361 0 -1165.74025524 0 11575
0.10350000 0.10349800 15548.41626580 0 703.41036517 0 4424.65556334 0 -852.06678699 0 -831.97397460 0 11364
0.10450000 0.10450100 15209.46928707 0 318.46042885 0 4959.27343864 0 -280.41207772 0 -1100.79020591 0 12093
0.10550000 0.10551000 15385.26475870 0 -22.40133412 0 5369.35935460 0 34.86462305 0 -1117.42700134 0 12067
0.10650000 0.10649700 15052.08520237 0 -88.37177357 0 4920.87571481 0 317.04297388 0 -1535.62058227 0 12054
0.10750000 0.10749900 15287.88404949 0 68.89263711 0 5364.19085683 0 -519.19112946 0 -1153.68412416 0 12807
0.10850000 0.10850100 15143.80940113 0 174.71851641 0 4980.33562165 0 162.01687766 0 -1307.40811386 0 12736
0.10950000 0.10950300 15324.70682336 0 29.30882067 0 5435.30761166 0 -130.86170543 0 -1696.44293802 0 12933
0.11050000 0.11050200 15004.50396746 0 22.07835847 0 5420.04612466 0 280.86127120 0 -1909.16100429 0 13428
0.11150000 0.11150900 15062.62183947 0 231.44444320 0 5575.05669321 0 1.16018357 0 -974.43374468 0 13453
0.11250000 0.11250000 15087.46612064 0 69.25376648 0 5642.59099142 0 -127.27370322 0 -1744.87819509 0 13668
0.11350000 0.11349100 14788.89109879 0 197.61074691 0 5690.02804077 0 484.50562925 0 -1433.13792247 0 13791
0.11450000 0.11448600 14428.64902191 0 344.14653187 0 5491.73962173 0 -214.68453549 0 -1819.27794422 0 14205
0.11550000 0.11549300 14293.33641914 0 280.08932389 0 6246.90594834 0 -258.35279611 0 -319.88453854 0 14776
0.11650000 0.11649800 13777.15211317 0 186.44745718 0 5731.48693496 0 644.89653743 0 -843.91142988 0 14553
0.11750000 0.11747300 13547.89707225 0 9.24564396 0 5709.41545304 0 938.20324073 0 404.16321679 0 14568
0.11850000 0.11849100 13627.08821846 0 87.61735036 0 4848.74966105 0 941.17013591 0 878.01020577 0 16015
0.11950000 0.11950300 13344.37360825 0 138.30722594 0 4663.83722553 0 592.92097030 0 1535.89786219 0 15270
0.12050000 0.12050700 13188.43137916 0 -28.56925966 0 4173.31794930 0 431.85904469 0 2488.90895997 0 15999
0.12150000 0.12150000 13157.81967558 0 79.93092905 0 4096.65559599 0 396.71325980 0 2385.49463962 0 15670
0.12250000 0.12250700 13327.51498889 0 251.16015489 0 4497.13653540 0 -218.25922827 0 2818.31750933 0 16887
0.12350000 0.12352200 12952.41070810 0 68.88664786 0 4267.71512652 0 -468.59530722 0 2201.75787098 0 16407
0.12450000 0.12449800 12761.42029666 0 65.56494529 0 4672.69909189 0 -146.56905855 0 2275.02631802 0 16306
0.12550000 0.12549900 12890.96547701 0 164.43808595 0 5337.31688662 0 -88.23612823 0 2092.08811556 0 17523
0.12650000 0.12650100 12803.78866900 0 -94.39595719 0 4614.85849981 0 491.51082924 0 1999.62080660 0 17154
0.12750000 0.12750600 12964.05646490 0 136.39066711 0 5110.13589953 0 360.47055554 0 2783.22496219 0 18007
0.12850000 0.12850300 12727.48123399 0 -1.98927272 0 4128.79788475 0 829.63927764 0 3434.92151247 0 17496
0.12950000 0.12949900 12596.27237410 0 45.30609768 0 4799.49365540 0 584.63806442 0 3362.41835802 0 18405
0.13050000 0.13049000 12556.78771296 0 167.32179716 0 3729.27078828 0 557.24280795 0 4319.34464832 0 18100
0.13150000 0.13148800 12158.94647843 0 159.22522339 0 4285.21703531 0 223.62293111 0 4565.73558852 0 19059
0.13250000 0.13249300 12112.58527518 0 227.73443782 0 3997.45593049 0 -341.13638102 0 4198.14004807 0 18957
0.13350000 0.13349100 11691.56343903 0 367.88058422 0 4215.51995369 0 -405.77254947 0 3115.40631079 0 19468
0.13450000 0.13450700 11272.75984226 0 369.42004235 0 4577.61426046 0 -645.57199133 0 3089.21999479 0 19953
0.13550000 0.13551000 10984.74363991 0 26.30676639 0 4305.52501692 0 41.84730791 0 2433.23115129 0 19956
0.13650000 0.13649900 11047.88582414 0 -128.59688302 0 4353.61644689 0 423.72143349 0 2045.46072359 0 19723
0.13750000 0.13749600 11087.44812365 0 -34.97320587 0 3934.96812688 0 320.47237198 0 1028.10404671 0 20946
0.13850000 0.13851100 11218.41297722 0 -92.01323535 0 3373.39864300 0 495.37500226 0 1173.88119380 0 20955
0.13950000 0.13949800 11131.34708118 0 -38.25143095 0 2895.15732179 0 215.44317336 0 1145.46554722 0 20506
0.14050000 0.14048300 11189.13221728 0 50.78947454 0 2601.50679139 0 194.14918434 0 1525.37231629 0 21447
0.14150000 0.14148400 11293.38946859 0 22.70844937 0 2429.94815699 0 488.17792456 0 1309.24925256 0 21771
0.14250000 0.14249400 10895.43732209 0 147.84343708 0 2220.89018572 0 -30.83718761 0 1394.18563879 0 22470
0.14350000 0.14350900 10835.67795293 0 197.98008377 0 2195.40261513 0 -103.05851475 0 1732.84424640 0 22519
0.14450000 0.14449900 10775.35293273 0 125.44254660 0 2723.01085396 0 -569.69267653 0 854.13862258 0 22218
0.14550000 0.14550500 10310.76487496 0 389.41968869 0 3201.78455262 0 -630.50349115 0 933.42737132 0 23559
0.14650000 0.14650700 10280.61900166 0 161.46231781 0 3519.82462511 0 -339.90193079 0 227.48821325 0 23044
0.14750000 0.14750500 9987.78921983 0 25.83006675 0 3921.83614969 0 -65.63182521 0 262.27797071 0 23649
0.14850000 0.14849900 10145.39512846 0 103.50293901 0 4013.66016923 0 17.08266154 0 -251.24222975 0 23640
0.14950000 0.14949500 10101.26325581 0 73.97772908 0 3719.06688709 0 71.61463866 0 -9.16433439 0 24457
0.15050000 0.15050000 9916.86101534 0 72.62671038 0 3775.35471160 0 228.78810153 0 -141.59022024 0 24591
0.15150000 0.15149900 9820.87779695 0 5.19646978 0 3438.38196592 0 157.85656969 0 136.85760650 0 25020
0.15250000 0.15250500 9875.62394509 0 45.27681692 0 3414.45825410 0 517.53077728 0 510.09856620 0 25297
0.15350000 0.15350100 9641.53314230 0 34.45380511 0 3234.27066848 0 271.83192776 0 251.72247858 0 25452
0.15450000 0.15450400 9673.44251592 0 96.19206563 0 2916.77406464 0 229.50015637 0 1136.44840410 0 26061
0.15550000 0.15549900 9457.97383281 0 75.92024132 0 2684.10293506 0 368.51610980 0 819.17916980 0 26128
0.15650000 0.15649500 9553.39140015 0 40.35864746 0 2396.44165101 0 159.59788761 0 961.10434419 0 26331
0.15750000 0.15749700 9288.11215155 0 165.38971065 0 2715.66848158 0 -114.54322736 0 893.97598378 0 27345
0.15850000 0.15849900 9050.86035763 0 226.96803611 0 2487.12327726 0 -4.62848958 0 1135.07309568 0 26980
0.15950000 0.15949700 8963.84991757 0 97.47664806 0 2865.56600833 0 -84.32171209 0 1314.50647991 0 27777
0.16050000 0.16050000 8767.29172525 0 -52.88471255 0 2618.27668117 0 318.82422011 0 969.75104133 0 28224
0.16150000 0.16150500 8958.10467755 0 -11.07104424 0 2496.04059961 0 269.72238211 0 1213.68749965 0 28075
0.16250000 0.16249700 8833.05143196 0 38.75486038 0 2209.89880954 0 183.69351298 0 880.11864231 0 28590
0.16350000 0.16349900 8841.28110009 0 153.70957115 0 2331.18104817 0 -3.76775724 0 1276.84077507 0 29163
0.16450000 0.16449100 8745.22024333 0 149.75334119 0 2365.30866118 0 -171.36010197 0 954.63152165 0 28996
0.16550000 0.16550500 8462.35035636 0 192.16718744 0 2506.66596628 0 5.09789122 0 1120.48817169 0 30777
0.16650000 0.16650700 8237.49852063 0 190.55452741 0 2652.19356144 0 -274.49825151 0 1055.85643972 0 29211
0.16750000 0.16749900 8020.79871465 0 114.00419519 0 2784.96628011 0 -76.89493571 0 858.44644348 0 30922
0.16850000 0.16850800 7963.11339932 0 86.25745870 0 2721.34717441 0 -33.41367266 0 462.76133763 0 30867
0.16950000 0.16949900 8018.25883055 0 -70.71170432 0 2674.57559688 0 271.17532891 0 795.07688971 0 30852
0.17050000 0.17049200 8028.44054935 0 -103.12994206 0 2111.40898064 0 273.02755880 0 431.00613165 0 31257
0.17150000 0.17149500 8135.71460623 0 -62.59072991 0 2020.99354312 0 205.33021998 0 356.28030133 0 32608
0.17250000 0.17250900 8271.06048259 0 -0.44650941 0 1812.23503416 0 97.67296224 0 148.67194949 0 32361
0.17350000 0.17350400 8181.93162392 0 64.87718016 0 1926.91801060 0 -221.02870014 0 -65.49950723 0 32508
0.17450000 0.17449800 8308.52654588 0 -34.48386226 0 1559.58865887 0 11.41738905 0 -113.34648721 0 32791
0.17550000 0.17549800 8186.72302100 0 102.27492168 0 2049.45355449 0 -206.10771289 0 -711.16200272 0 33633
0.17650000 0.17650100 8092.59203250 0 213.71849223 0 1794.93276692 0 -367.87392950 0 -645.10172458 0 33984
0.17750000 0.17750300 7899.57193201 0 161.12736367 0 2470.64175860 0 -41.18460889 0 -607.88743146 0 34069
0.17850000 0.17849800 7671.34837240 0 100.00455367 0 2251.46861570 0 45.44030116 0 -524.37404580 0 34536
