### header ###
fiducial parameters:
Omega_m = 0.31
Omega_nu = 0
Omega_de = 0.69
Omega_k = 0
H_0 = 100
w_de = -1
zeff = 0
beta = 0
fgrowth = 0
b_1 = 2
gamma = 0.55
Lx = 3500 Ly = 3500 Lz = 3500
nx = 700 ny = 700 nz = 700
xoffset = 1379.75464 yoffset = 22.6059522 zoffset = 368.141391
bins = 400 dk = 0.001
kx_ny = 0.628318531 ky_ny = 0.628318531 kz_ny = 0.628318531
############################
A(data) = 3.30173197 (not used)
A(ran) = 3.29897705 (used)
Ngal = 185319
weighted Ngal = 0
Nran = 9399747
weighted Nran = 0
SN(data) = 6680.57825
SN(ran) = 131.218075
SN(data+ran) = 6811.79632
############################
13 columns: k_central k_mean P_0(k) sigma^{lin}_{P_0(k)} P^img_1(k) sigma^{lin}_{P_1(k)} P_2(k) sigma^{lin}_{P_2(k)} P^img_3(k) sigma^{lin}_{P_3(k)} P_4(k) sigma^{lin}_{P_4(k)} N_modes
### header ###
0.00050000 0 0 0 0 0 0 0 0 0 0 0 0
0.00150000 0.00179520 57349.25206017 0 -53841.99376121 0 -63842.92604942 0 31477.70423481 0 -72057.84289306 0 3
0.00250000 0.00253879 92523.87406177 0 -41623.15481926 0 -47952.79000564 0 -47994.82564207 0 82473.80777107 0 6
0.00350000 0.00331552 131416.26528041 0 -33621.18895703 0 -84968.10705276 0 -44992.54954016 0 -50353.81232099 0 7
0.00450000 0.00420575 129088.22304097 0 -3012.16944959 0 -67043.40184080 0 -59713.78433757 0 -7970.21176537 0 24
0.00550000 0.00557378 121667.10316292 0 10113.69648758 0 -64734.32554815 0 -53298.63602271 0 -17666.61305898 0 45
0.00650000 0.00659388 102496.85653367 0 -5067.90062155 0 -7865.83251089 0 -27887.48378267 0 -18920.36196200 0 40
0.00750000 0.00754703 94036.82423747 0 9840.88631625 0 -24551.69538852 0 -36730.16237358 0 -47349.98345150 0 57
0.00850000 0.00846663 96954.58541864 0 2696.81344676 0 -28113.85511239 0 -15570.15501182 0 -42122.03685799 0 75
0.00950000 0.00948925 76200.62677716 0 3675.01265281 0 -2664.66006681 0 -38356.57549407 0 -33269.26527786 0 112
0.01050000 0.01054430 86854.71965365 0 11685.35236874 0 -5118.50975323 0 -17252.24594099 0 -55750.34510812 0 105
0.01150000 0.01145670 67130.02408896 0 9975.77745353 0 28656.76920300 0 -13222.48135379 0 -33963.01964697 0 144
0.01250000 0.01249090 62206.53085168 0 -133.36055211 0 13840.37193578 0 12233.25749798 0 -22755.80877867 0 169
0.01350000 0.01339930 66079.79864994 0 -6756.85700163 0 27167.77601270 0 24874.11648381 0 -21182.85522747 0 180
0.01450000 0.01448870 73755.68332189 0 -4248.44971743 0 10241.58907959 0 8929.43393344 0 -9472.08183533 0 267
0.01550000 0.01550050 72724.31291768 0 2833.64554351 0 4725.07172388 0 -9053.11187061 0 -23994.14091794 0 238
0.01650000 0.01653350 72492.72872540 0 8643.82452082 0 25494.77986503 0 -17543.83350876 0 9357.49867966 0 315
0.01750000 0.01747870 63041.36524597 0 2127.64649297 0 14890.26463890 0 1458.50348989 0 -9664.69156153 0 297
0.01850000 0.01844180 59601.54142445 0 -407.27873402 0 35568.13766932 0 9178.12075141 0 12904.60764926 0 388
0.01950000 0.01947590 64995.07958840 0 886.17887233 0 24110.15483802 0 17490.59576341 0 1573.48592865 0 399
0.02050000 0.02045430 59950.47048044 0 1838.23279980 0 18339.73780176 0 2547.50375345 0 19845.47869945 0 462
0.02150000 0.02154770 60570.46838985 0 2191.57615218 0 19115.56702829 0 5460.41808155 0 11602.61203951 0 571
0.02250000 0.02255340 54316.36425468 0 1479.89840880 0 15467.45052808 0 -4251.95453566 0 16395.22915280 0 510
0.02350000 0.02348930 54375.92398230 0 -717.47622114 0 14556.30869879 0 7985.34015801 0 23570.67901845 0 555
0.02450000 0.02439640 60816.80387407 0 -7481.64453980 0 2094.88309719 0 11182.25567517 0 388.16194696 0 592
0.02550000 0.02547300 66128.15626863 0 -4099.45057762 0 -997.64872901 0 2188.50389063 0 -1529.23205283 0 837
0.02650000 0.02652900 68245.90941393 0 3206.22103140 0 -5448.45068004 0 -13467.15315847 0 -22277.00180641 0 723
0.02750000 0.02749970 65935.05852976 0 1620.02459105 0 355.55715529 0 -16819.02378819 0 -6242.41401358 0 826
0.02850000 0.02848090 61503.34896516 0 2412.31315384 0 16393.45456129 0 -6213.42162476 0 -38640.84287185 0 831
0.02950000 0.02946900 64940.73272335 0 988.90221110 0 14890.70828678 0 -6112.95756280 0 -32955.38440422 0 996
0.03050000 0.03053250 60126.70959995 0 2665.34772102 0 24018.31972728 0 -2445.09873202 0 -32964.03553784 0 1041
0.03150000 0.03150510 57322.07862765 0 3048.79258192 0 21325.59893219 0 661.29043564 0 -26165.02089661 0 1036
0.03250000 0.03246190 58993.07835987 0 -1412.78557607 0 23211.76788521 0 8600.11411365 0 -15165.99179503 0 1059
0.03350000 0.03345080 54939.13496333 0 466.68540311 0 20190.08218864 0 7990.10937270 0 -11838.29997465 0 1302
0.03450000 0.03451200 54802.60232889 0 2592.29000672 0 17855.49614300 0 4145.50122735 0 3543.26032426 0 1339
0.03550000 0.03553350 50736.23679177 0 1619.95804386 0 14568.39810346 0 2243.41640672 0 3693.70131967 0 1365
0.03650000 0.03647120 49548.14777467 0 610.83103513 0 14099.57320846 0 5704.38004962 0 6551.66985809 0 1308
0.03750000 0.03744890 47015.91659942 0 1884.03944320 0 15894.90525847 0 -1211.89072574 0 12781.60627510 0 1579
0.03850000 0.03847530 45499.86088857 0 804.14283410 0 8069.63325482 0 5372.33179539 0 11042.70623516 0 1662
0.03950000 0.03950240 45971.01493493 0 -1454.18901428 0 9949.93496464 0 4546.68091217 0 11307.03164084 0 1683
0.04050000 0.04050350 44253.65399947 0 1589.40179627 0 8230.03414508 0 -1737.59127870 0 2421.67412407 0 1822
0.04150000 0.04152450 43188.67726850 0 3942.93160629 0 11199.55794241 0 -7245.30222403 0 7920.97794212 0 1887
0.04250000 0.04250150 39477.67368160 0 1876.65270603 0 13933.87072605 0 -2325.09198104 0 2348.18385309 0 1920
0.04350000 0.04349210 36719.73664845 0 700.61760178 0 16312.71064751 0 759.23679589 0 4059.47790382 0 2005
0.04450000 0.04448520 36990.69458990 0 -288.94675378 0 15599.32485980 0 3927.34847458 0 366.33003488 0 2151
0.04550000 0.04548030 37711.95512744 0 -972.24212416 0 12091.84473689 0 5899.57402471 0 8411.98523102 0 2274
0.04650000 0.04648670 39019.71815960 0 -1704.91661249 0 8800.93132560 0 4227.55390238 0 5342.29683405 0 2311
0.04750000 0.04749250 41016.90999407 0 -1024.78112411 0 3740.62817395 0 2964.26656997 0 5935.44295564 0 2568
0.04850000 0.04851840 41088.89186226 0 709.93309810 0 5928.54423114 0 -2478.63851159 0 7792.32005752 0 2493
0.04950000 0.04949480 40123.51407989 0 1070.85950183 0 5716.52491028 0 -2692.09968806 0 2311.93782146 0 2644
0.05050000 0.05050630 38912.24446117 0 887.05174952 0 10104.63497968 0 -2076.46061906 0 5896.50176316 0 2829
0.05150000 0.05149060 36484.49236118 0 2448.45936470 0 9280.86959994 0 -2795.28109327 0 -2886.66146493 0 2784
0.05250000 0.05249300 35369.71615591 0 1797.09555032 0 14786.34012349 0 -2077.20372925 0 2286.76080439 0 3055
0.05350000 0.05348950 33184.97218105 0 -287.28529247 0 11387.99737856 0 2339.08907159 0 -3315.70223647 0 3009
0.05450000 0.05448610 34420.42060911 0 -421.76716459 0 14372.97121323 0 1373.71128922 0 1667.20654286 0 3336
0.05550000 0.05550870 34576.47375018 0 -604.93939131 0 10026.57513556 0 827.22250583 0 -1778.01869157 0 3349
0.05650000 0.05647670 34855.63917736 0 -243.90983945 0 11226.39863902 0 1930.07900173 0 -2406.46809305 0 3324
0.05750000 0.05747970 35111.51309096 0 276.48912136 0 7662.08722295 0 -656.23063160 0 -2435.52702906 0 3639
0.05850000 0.05849280 34621.72583372 0 584.27205492 0 8580.49378625 0 -940.55013800 0 -5891.56618052 0 3846
0.05950000 0.05951020 34437.39014044 0 371.29889112 0 9355.59099378 0 437.40575229 0 58.83902163 0 3787
0.06050000 0.06049470 33085.92779230 0 384.06929528 0 8245.35108807 0 873.41845024 0 -5276.86986325 0 3930
0.06150000 0.06148310 33349.78736770 0 179.88590506 0 9671.85647476 0 100.29780491 0 -1726.06752507 0 4083
0.06250000 0.06249100 32704.94517713 0 371.14250524 0 9652.73525122 0 869.47885708 0 -3609.43040525 0 4303
0.06350000 0.06350600 32656.47664647 0 606.82489479 0 7850.98139818 0 -678.98422214 0 -1959.62595040 0 4470
0.06450000 0.06451750 31763.52438017 0 401.88508494 0 9058.63528669 0 245.04003242 0 -2002.63761217 0 4479
0.06550000 0.06550280 30662.61217109 0 -404.08003282 0 5729.61252268 0 2887.19384238 0 -1810.89299933 0 4636
0.06650000 0.06648880 31668.25099838 0 203.77634329 0 7451.74267283 0 657.63477713 0 -1725.81242754 0 4653
0.06750000 0.06749660 30932.35008087 0 -7.04437410 0 3104.48148179 0 865.69232244 0 -3525.30367640 0 5220
0.06850000 0.06852730 30628.78402039 0 850.87559244 0 6222.90459815 0 -343.14943326 0 91.08235119 0 5029
0.06950000 0.06949320 29061.37606767 0 660.77580411 0 3058.96320952 0 -499.69058699 0 -3332.43885267 0 5040
0.07050000 0.07048030 28618.39366156 0 753.45051845 0 6814.73086731 0 -1148.81508870 0 -360.74339898 0 5475
0.07150000 0.07148790 28569.59239499 0 741.78257926 0 6473.35491644 0 -888.50469633 0 -3086.58028992 0 5509
0.07250000 0.07249820 27308.63421394 0 271.34280598 0 6364.68336874 0 -270.18599414 0 -2876.34665176 0 5916
0.07350000 0.07351270 27020.59582920 0 407.63697968 0 9051.33727910 0 -1083.47352012 0 -1885.75857873 0 5721
0.07450000 0.07449140 26469.36334087 0 521.33283959 0 8050.77822000 0 -245.68110360 0 -4228.45228933 0 6028
0.07550000 0.07549160 25693.53411434 0 528.72623148 0 9254.37273043 0 1037.48387197 0 35.25547683 0 6183
0.07650000 0.07648840 26290.12959819 0 -80.83552707 0 9454.52447056 0 510.75294682 0 -770.38012147 0 6330
0.07750000 0.07749960 25866.11313886 0 -117.54783262 0 7856.11662237 0 2039.87076032 0 -663.33343412 0 6583
0.07850000 0.07848650 25936.32041554 0 325.15951181 0 9135.59710231 0 5.36057513 0 593.23817853 0 6549
0.07950000 0.07947320 24853.04320961 0 634.08483865 0 7039.87107416 0 -906.63880334 0 1403.56879140 0 6828
0.08050000 0.08048110 24724.49623698 0 512.44879084 0 9083.31319990 0 821.84771179 0 2399.19226785 0 7147
0.08150000 0.08149960 24083.09231746 0 -358.70261874 0 6735.35117075 0 1783.23155414 0 1170.33201078 0 7386
0.08250000 0.08250610 23985.60069629 0 301.93010892 0 6266.38209019 0 1381.64149504 0 339.99509685 0 7227
0.08350000 0.08350160 23364.16093128 0 963.80505065 0 6164.30980467 0 -600.70920879 0 1791.49449586 0 7798
0.08450000 0.08449610 22076.47296559 0 637.37226943 0 5629.52556142 0 -144.41403898 0 1935.42495866 0 7371
0.08550000 0.08548940 21648.35276339 0 210.32125861 0 6732.68928348 0 -42.70975938 0 1060.93953528 0 8256
0.08650000 0.08650700 21228.32913496 0 47.73939538 0 5947.35490117 0 1014.93768682 0 109.73619169 0 8037
0.08750000 0.08749060 20793.99786247 0 491.19694837 0 6160.70516566 0 -309.74496629 0 180.17871266 0 8155
0.08850000 0.08849210 20651.91962956 0 296.10501229 0 5654.97985841 0 -68.26420989 0 1876.10923738 0 8718
0.08950000 0.08949900 20381.29442402 0 189.93009302 0 7191.72065158 0 505.26280434 0 1107.52367158 0 8571
0.09050000 0.09049190 19875.86857909 0 454.77123935 0 6255.64581154 0 -224.30282148 0 2364.98701647 0 8932
0.09150000 0.09150830 19619.77284156 0 255.08976597 0 6413.73973284 0 610.51826337 0 1983.94894531 0 9285
0.09250000 0.09250820 18872.22616725 0 409.88405618 0 7357.61168433 0 -303.51393185 0 2518.96610370 0 9204
0.09350000 0.09350330 18956.51926405 0 254.50969637 0 7530.24616483 0 400.07611072 0 2791.53226870 0 9349
0.09450000 0.09448040 18730.48067025 0 39.06230836 0 8461.32996624 0 -92.49692245 0 2548.50196117 0 9564
0.09550000 0.09549270 18376.00601578 0 439.81919674 0 8073.27116741 0 -731.13724843 0 3080.15848688 0 10155
0.09650000 0.09649430 18068.77986032 0 187.05192741 0 8342.77616206 0 -465.47424440 0 1781.77860734 0 9913
0.09750000 0.09749140 18337.51956237 0 9.16943634 0 9148.16342845 0 258.24188414 0 3253.97972546 0 10476
0.09850000 0.09850240 18179.69182980 0 23.69512225 0 8992.74248562 0 504.95114170 0 1437.66313082 0 10575
0.09950000 0.09950330 18083.53115226 0 190.05320531 0 8825.23213811 0 -90.27879398 0 1535.73149424 0 10882
0.10050000 0.10051200 17867.03098783 0 447.80818590 0 8962.21951162 0 -347.71346081 0 1228.18369406 0 10875
0.10150000 0.10150300 17520.87473108 0 122.46899670 0 9251.88830231 0 -306.90229251 0 574.67927868 0 11118
0.10250000 0.10250800 17150.42875301 0 193.64342576 0 8667.99223897 0 386.78996589 0 673.91443601 0 11575
0.10350000 0.10349800 16711.32826583 0 189.57961120 0 8696.31915598 0 614.12290238 0 -1233.49637740 0 11364
0.10450000 0.10450100 16831.77866468 0 82.10691098 0 8058.50878428 0 682.95376152 0 21.43329445 0 12093
0.10550000 0.10551000 16611.28566935 0 -11.49768932 0 7189.51350338 0 614.91481384 0 -649.90643110 0 12067
0.10650000 0.10649700 16113.29092638 0 318.63345153 0 6355.12275697 0 250.85071050 0 238.38420513 0 12054
0.10750000 0.10749900 15968.21807030 0 161.62424929 0 6405.17732880 0 161.41129831 0 -642.61507822 0 12807
0.10850000 0.10850100 15731.42101545 0 270.50542061 0 6396.57055996 0 245.76206934 0 -340.86575581 0 12736
0.10950000 0.10950300 15431.18231406 0 183.73898688 0 6017.45126588 0 483.71593602 0 -496.58172448 0 12933
0.11050000 0.11050200 15227.88067400 0 85.29330095 0 5786.79873414 0 244.67624116 0 -614.20386812 0 13428
0.11150000 0.11150900 14987.53443613 0 12.06367310 0 5597.00617197 0 190.94161018 0 -176.55300038 0 13453
0.11250000 0.11250000 15023.80265015 0 102.62762175 0 5410.11950339 0 662.62359752 0 -279.31737658 0 13668
0.11350000 0.11349100 14770.14697595 0 70.04479065 0 4786.66114054 0 339.27971465 0 477.92854946 0 13791
0.11450000 0.11448600 14736.42973723 0 43.65284386 0 4601.11650679 0 513.01444188 0 -632.09618704 0 14205
0.11550000 0.11549300 14609.54644414 0 326.58362150 0 4947.57222586 0 -255.81291201 0 316.73463861 0 14776
0.11650000 0.11649800 14087.26197985 0 258.25297534 0 3682.95394982 0 -25.84370892 0 -982.14434480 0 14553
0.11750000 0.11747300 13944.74009906 0 115.96290057 0 4746.03408611 0 -119.52317479 0 -270.93464993 0 14568
0.11850000 0.11849100 13706.83392452 0 56.40195293 0 3666.18406004 0 259.59501017 0 -1042.07562751 0 16015
0.11950000 0.11950300 13815.19491871 0 24.62156993 0 3742.80204856 0 782.03253298 0 -662.10785686 0 15270
0.12050000 0.12050700 13411.25352585 0 239.65747454 0 3316.74480899 0 75.83727917 0 -501.45075994 0 15999
0.12150000 0.12150000 13253.64761722 0 277.80010084 0 3221.20523848 0 -102.83879814 0 -795.46951808 0 15670
0.12250000 0.12250700 12994.22452060 0 127.59534793 0 3877.89282739 0 18.22050743 0 387.70277140 0 16887
0.12350000 0.12352200 13041.02937172 0 -145.57639642 0 3070.38714237 0 841.93830594 0 356.39010418 0 16407
0.12450000 0.12449800 12936.66120844 0 -124.44433888 0 2812.91609642 0 602.57807548 0 584.06575865 0 16306
0.12550000 0.12549900 13205.28999852 0 115.07227746 0 2632.44013968 0 -239.56763584 0 557.49235988 0 17523
0.12650000 0.12650100 12888.08176580 0 314.01285888 0 3519.38097723 0 -464.52261971 0 699.19571033 0 17154
0.12750000 0.12750600 12688.32930877 0 195.40692607 0 3502.79963779 0 -45.76627144 0 1125.87849341 0 18007
0.12850000 0.12850300 12355.14975244 0 105.85527097 0 3977.84669428 0 -91.25504113 0 1006.33091798 0 17496
0.12950000 0.12949900 12428.46256427 0 5.18842866 0 3182.72987626 0 472.19107328 0 728.43210549 0 18405
0.13050000 0.13049000 12515.41754834 0 -94.76263217 0 3802.68342088 0 695.15851464 0 1231.26704681 0 18100
0.13150000 0.13148800 12492.01512278 0 17.57555433 0 2550.34309987 0 239.41568644 0 1887.23370792 0 19059
0.13250000 0.13249300 12430.68080366 0 33.66522101 0 2948.93853579 0 564.80145867 0 1541.48782545 0 18957
0.13350000 0.13349100 12408.16567385 0 101.48023742 0 2262.20489435 0 -260.37583044 0 1649.41626296 0 19468
0.13450000 0.13450700 12120.57093699 0 331.97616146 0 2730.59723267 0 -3.34706814 0 1717.94876890 0 19953
0.13550000 0.13551000 11837.85632678 0 219.79646816 0 2657.32878563 0 -267.60396349 0 1912.95419364 0 19956
0.13650000 0.13649900 11646.31135548 0 43.23237658 0 3074.25797011 0 124.21253286 0 977.26089078 0 19723
0.13750000 0.13749600 11393.76480097 0 241.60397960 0 3111.53548305 0 -220.53625100 0 579.86552237 0 20946
0.13850000 0.13851100 11203.32894937 0 205.07290421 0 3004.29469976 0 -429.48996502 0 923.52625981 0 20955
0.13950000 0.13949800 10985.69748285 0 91.17951008 0 3224.53259756 0 30.98747333 0 287.69455764 0 20506
0.14050000 0.14048300 10913.67124987 0 151.53458742 0 3162.10024994 0 -72.10043309 0 162.72560515 0 21447
0.14150000 0.14148400 10936.34165643 0 34.38725793 0 3112.92188267 0 -20.02815071 0 -253.20537161 0 21771
0.14250000 0.14249400 10719.09838181 0 105.65951134 0 3130.01341717 0 54.22541644 0 -633.03228406 0 22470
0.14350000 0.14350900 10581.03516220 0 211.11982479 0 3188.23110995 0 -253.12551499 0 -204.84220732 0 22519
0.14450000 0.14449900 10340.98838664 0 114.53102705 0 3051.25482764 0 39.02792565 0 -631.36971364 0 22218
0.14550000 0.14550500 10186.06654767 0 97.34133546 0 3537.79236417 0 88.53037769 0 -271.95614917 0 23559
0.14650000 0.14650700 10100.19850090 0 131.81000277 0 3470.36897792 0 6.39713621 0 -626.94099870 0 23044
0.14750000 0.14750500 10143.14361548 0 146.20637641 0 3602.16567125 0 25.35580717 0 97.23885280 0 23649
0.14850000 0.14849900 9922.06278671 0 56.66669980 0 3824.96563555 0 -224.78196119 0 -373.52267610 0 23640
0.14950000 0.14949500 10015.60594177 0 -77.52003557 0 3416.60994631 0 381.36969794 0 187.16394850 0 24457
0.15050000 0.15050000 10116.45819562 0 -135.22609143 0 3517.53983854 0 514.71583149 0 287.48604314 0 24591
0.15150000 0.15149900 10233.37050266 0 -77.92120416 0 2928.81910453 0 359.79510164 0 189.66501341 0 25020
0.15250000 0.15250500 10437.07142581 0 -0.31396628 0 2832.12604953 0 369.91360062 0 567.66742396 0 25297
0.15350000 0.15350100 10068.36676566 0 249.99336097 0 2577.74944752 0 -219.01232054 0 124.38888289 0 25452
0.15450000 0.15450400 9906.84566450 0 289.79523034 0 3079.03827599 0 -317.72064602 0 908.15940644 0 26061
0.15550000 0.15549900 9550.86260725 0 127.88039169 0 2687.94048920 0 294.52008024 0 604.44916040 0 26128
0.15650000 0.15649500 9447.64792845 0 59.52368122 0 2955.39361241 0 221.38361845 0 479.76081519 0 26331
0.15750000 0.15749700 9374.24638705 0 91.08412579 0 2606.67528917 0 -31.68211499 0 -97.33135338 0 27345
0.15850000 0.15849900 9251.71084316 0 144.31421821 0 2722.53393249 0 -54.13768507 0 439.09383246 0 26980
0.15950000 0.15949700 8869.61910830 0 149.26532853 0 2405.83589483 0 -47.10287158 0 15.75349250 0 27777
0.16050000 0.16050000 8947.46821968 0 59.17652676 0 2656.91841134 0 6.44298722 0 79.94146568 0 28224
0.16150000 0.16150500 8856.27639837 0 64.44528896 0 2371.20917795 0 111.23139595 0 -609.94706673 0 28075
0.16250000 0.16249700 8777.73963278 0 129.93337225 0 2578.02672745 0 10.46620800 0 -243.81778251 0 28590
0.16350000 0.16349900 8528.23206623 0 57.06764657 0 2339.33307793 0 -32.52393684 0 -118.58153217 0 29163
0.16450000 0.16449100 8667.21585519 0 -58.24641898 0 2379.15047497 0 152.68030807 0 -223.22364802 0 28996
0.16550000 0.16550500 8622.34087234 0 67.25535461 0 2195.31388555 0 220.20018773 0 -427.04324698 0 30777
0.16650000 0.16650700 8654.41661391 0 48.39255596 0 2178.34435422 0 -88.36423156 0 -654.59689829 0 29211
0.16750000 0.16749900 8454.28705618 0 23.99425183 0 2099.05338724 0 -36.35405989 0 -230.13235460 0 30922
0.16850000 0.16850800 8547.20910421 0 18.27762710 0 2198.41942070 0 245.58461019 0 -387.98337869 0 30867
0.16950000 0.16949900 8628.42993946 0 10.60956172 0 2097.84444677 0 -40.76136882 0 -520.72726024 0 30852
0.17050000 0.17049200 8589.49983817 0 59.02613013 0 2012.67514541 0 -19.57596261 0 -659.58460955 0 31257
0.17150000 0.17149500 8419.76016008 0 191.52389802 0 2162.59485456 0 -300.74335085 0 -904.79322816 0 32608
0.17250000 0.17250900 8218.53257385 0 181.66493305 0 2319.34674102 0 -333.35479724 0 -450.53551123 0 32361
0.17350000 0.17350400 8157.06516036 0 39.63993789 0 2622.80188953 0 51.05488688 0 -835.26584185 0 32508
0.17450000 0.17449800 8133.95110592 0 -31.60181473 0 2470.55302902 0 421.62408815 0 -925.96188666 0 32791
0.17550000 0.17549800 8224.15581070 0 -73.97340352 0 2166.65423264 0 90.27868306 0 -888.52576960 0 33633
0.17650000 0.17650100 8136.54644600 0 14.23555128 0 2025.74057541 0 301.45873305 0 -299.52886478 0 33984
0.17750000 0.17750300 8308.69291384 0 61.84307233 0 1788.65514945 0 106.60825233 0 -688.23538951 0 34069
0.17850000 0.17849800 8122.76008820 0 36.37968055 0 1835.14944705 0 -130.30936382 0 -897.88008511 0 34536
