### header ###
fiducial parameters:
Omega_m = 0.31
Omega_nu = 0
Omega_de = 0.69
Omega_k = 0
H_0 = 100
w_de = -1
zeff = 0
beta = 0
fgrowth = 0
b_1 = 2
gamma = 0.55
Lx = 3500 Ly = 3500 Lz = 3500
nx = 700 ny = 700 nz = 700
xoffset = 1379.75464 yoffset = 22.6059522 zoffset = 368.141391
bins = 400 dk = 0.001
kx_ny = 0.628318531 ky_ny = 0.628318531 kz_ny = 0.628318531
############################
A(data) = 3.32141075 (not used)
A(ran) = 3.32831346 (used)
Ngal = 187152
weighted Ngal = 0
Nran = 9399747
weighted Nran = 0
SN(data) = 6605.77203
SN(ran) = 132.384942
SN(data+ran) = 6738.15697
############################
13 columns: k_central k_mean P_0(k) sigma^{lin}_{P_0(k)} P^img_1(k) sigma^{lin}_{P_1(k)} P_2(k) sigma^{lin}_{P_2(k)} P^img_3(k) sigma^{lin}_{P_3(k)} P_4(k) sigma^{lin}_{P_4(k)} N_modes
### header ###
0.00050000 0 0 0 0 0 0 0 0 0 0 0 0
0.00150000 0.00179520 4382.65320050 0 -3538.04746170 0 -4415.19477235 0 17388.44583951 0 1355.44408785 0 3
0.00250000 0.00253879 5396.99861740 0 -5544.02352414 0 10746.06108159 0 -3601.28946669 0 4107.33641865 0 6
0.00350000 0.00331552 9077.75651023 0 -1413.01849120 0 10084.22717729 0 522.34435676 0 4532.02944100 0 7
0.00450000 0.00420575 20032.03263212 0 -4728.50999494 0 13435.76507111 0 5031.47713077 0 5715.36033460 0 24
0.00550000 0.00557378 36381.78787744 0 -10729.08045906 0 3703.47266418 0 23567.90621922 0 20411.90612760 0 45
0.00650000 0.00659388 53697.25364103 0 -11682.69048147 0 -774.06905357 0 14481.66494332 0 -2171.21271458 0 40
0.00750000 0.00754703 68075.54862880 0 -12600.26520500 0 80.48271609 0 15892.57610711 0 48658.96651533 0 57
0.00850000 0.00846663 70004.97324991 0 2096.82405665 0 -1994.10848171 0 -1285.71373263 0 12867.11940357 0 75
0.00950000 0.00948925 71522.24899243 0 7115.61285812 0 -3229.00234993 0 8252.47163651 0 46323.16043804 0 112
0.01050000 0.01054430 65270.80674453 0 -437.65752246 0 18602.59916944 0 10770.87208916 0 55538.05959853 0 105
0.01150000 0.01145670 59881.81597133 0 1260.22616204 0 9074.98371099 0 10311.98490663 0 42374.36158856 0 144
0.01250000 0.01249090 70713.47891097 0 -3725.01176865 0 9666.69906818 0 14080.60726168 0 52219.57347162 0 169
0.01350000 0.01339930 57830.05544788 0 76.51472947 0 -3354.03341313 0 4515.76974627 0 36063.91417290 0 180
0.01450000 0.01448870 74237.92856520 0 1742.19412543 0 12704.07880843 0 -7594.19800643 0 41023.01015239 0 267
0.01550000 0.01550050 53587.22896731 0 2722.24556137 0 18299.80949275 0 5731.49802616 0 606.03963805 0 238
0.01650000 0.01653350 68986.46863416 0 652.69253977 0 21405.12281431 0 -1799.05869218 0 31361.46849079 0 315
0.01750000 0.01747870 58321.50638466 0 -4209.43088656 0 11496.13654880 0 -821.88985833 0 -12033.61595291 0 297
0.01850000 0.01844180 73014.90227772 0 1836.11438119 0 18961.62121465 0 -2502.02984596 0 6881.68842328 0 388
0.01950000 0.01947590 63019.51558798 0 373.75670036 0 5559.54010868 0 3102.99526140 0 -4029.43185129 0 399
0.02050000 0.02045430 64977.66640919 0 -56.43001366 0 13731.90002962 0 570.82952421 0 7361.07213778 0 462
0.02150000 0.02154770 66676.72686969 0 -2032.72802949 0 2742.98609966 0 6022.13175099 0 -6274.93340303 0 571
0.02250000 0.02255340 66991.93868696 0 -1483.70268935 0 860.18887052 0 5488.86700172 0 163.94452769 0 510
0.02350000 0.02348930 68951.08771589 0 1223.86921845 0 -732.66672448 0 1498.50943728 0 -2270.24601213 0 555
0.02450000 0.02439640 69046.91565753 0 2795.86892671 0 2734.14641569 0 -5898.76436734 0 2899.79344211 0 592
0.02550000 0.02547300 63879.08335147 0 1673.73925787 0 7045.97123248 0 2164.39162846 0 11125.35783482 0 837
0.02650000 0.02652900 63715.71002042 0 1319.61952170 0 9302.44197800 0 1727.16555357 0 11650.85874623 0 723
0.02750000 0.02749970 57784.91427630 0 2353.85145473 0 14043.00810402 0 1592.85115852 0 21255.05891960 0 826
0.02850000 0.02848090 60459.22368446 0 1966.50249251 0 14030.36413950 0 -200.61867952 0 12603.48165211 0 831
0.02950000 0.02946900 58649.58399038 0 1281.49907779 0 22043.97575853 0 -1543.20696098 0 23371.81385717 0 996
0.03050000 0.03053250 53930.94516073 0 2151.85857591 0 26627.30198541 0 -3348.62090902 0 14517.04586159 0 1041
0.03150000 0.03150510 58390.49362967 0 679.32915836 0 25021.40757928 0 108.21259397 0 14449.27864824 0 1036
0.03250000 0.03246190 54833.32494444 0 -3096.22963126 0 22005.04565724 0 3773.04774263 0 8659.87348281 0 1059
0.03350000 0.03345080 58560.52167889 0 -782.75346078 0 25297.02382345 0 4065.95516284 0 5654.55839293 0 1302
0.03450000 0.03451200 59657.10832116 0 2075.45132013 0 23366.93373052 0 -3227.53831193 0 -2018.95276288 0 1339
0.03550000 0.03553350 54899.09574234 0 4461.79998192 0 24676.47135419 0 -6466.88874862 0 -6438.05163655 0 1365
0.03650000 0.03647120 50002.22137773 0 2669.06327200 0 25679.11555831 0 -3165.17251149 0 -6225.43339105 0 1308
0.03750000 0.03744890 47494.72357168 0 1459.44624163 0 30519.86846636 0 -2490.63918669 0 -9883.87579562 0 1579
0.03850000 0.03847530 47815.70281136 0 -246.32106566 0 29438.36585194 0 3305.86434478 0 -14057.64848399 0 1662
0.03950000 0.03950240 49186.57475416 0 -1715.93017106 0 24100.28367273 0 3949.47541249 0 -18308.46062637 0 1683
0.04050000 0.04050350 48123.70535061 0 1378.19213279 0 24097.39996153 0 -3779.90210235 0 -22531.32295244 0 1822
0.04150000 0.04152450 46262.26976679 0 4053.56629585 0 24055.36432509 0 -4031.86082342 0 -18588.95699719 0 1887
0.04250000 0.04250150 42761.88800993 0 1366.39109923 0 28675.40241387 0 -97.30185080 0 -16742.27270531 0 1920
0.04350000 0.04349210 41519.89577567 0 623.81106292 0 27940.61061605 0 4259.67400874 0 -16160.31760144 0 2005
0.04450000 0.04448520 40976.31621324 0 473.87804433 0 24764.09181008 0 6403.86856756 0 -15705.13487868 0 2151
0.04550000 0.04548030 39865.64375084 0 382.92468376 0 21949.36784856 0 2730.17576718 0 -7532.97459928 0 2274
0.04650000 0.04648670 39715.24712023 0 -64.14493934 0 20371.09052283 0 2506.17795362 0 -5297.88768147 0 2311
0.04750000 0.04749250 39464.36424526 0 694.08599590 0 20035.35999121 0 1010.10747055 0 -5855.41996966 0 2568
0.04850000 0.04851840 38710.27376475 0 198.51578858 0 21166.10752008 0 -429.36019802 0 -742.44805107 0 2493
0.04950000 0.04949480 38866.43781778 0 -255.51677705 0 16953.56000718 0 3024.84668770 0 -4256.59065599 0 2644
0.05050000 0.05050630 40354.21097641 0 -338.90150483 0 18489.80169647 0 3851.22958992 0 2312.13746301 0 2829
0.05150000 0.05149060 38974.79881196 0 131.19444134 0 12263.86920156 0 2641.52382998 0 -2510.63661479 0 2784
0.05250000 0.05249300 38996.31573404 0 839.50933381 0 18809.89364040 0 898.53002925 0 5589.28669889 0 3055
0.05350000 0.05348950 36790.38757301 0 1724.85858460 0 15250.72853971 0 -617.32825830 0 5756.63067845 0 3009
0.05450000 0.05448610 35418.29559855 0 1289.59565156 0 16346.64971017 0 799.12628572 0 6707.01316254 0 3336
0.05550000 0.05550870 35405.54072206 0 -121.32327606 0 19157.60266473 0 3399.77350934 0 12317.21785888 0 3349
0.05650000 0.05647670 34039.54890591 0 -398.17618868 0 14922.76184596 0 2784.40062906 0 9091.72032718 0 3324
0.05750000 0.05747970 35008.36495934 0 489.61867104 0 14288.89994036 0 2718.85165510 0 10765.75904737 0 3639
0.05850000 0.05849280 33833.36355464 0 109.13992895 0 12681.12003075 0 732.39720840 0 7939.98825369 0 3846
0.05950000 0.05951020 33108.22109817 0 772.52959544 0 13264.96063810 0 -640.05301173 0 9972.35027368 0 3787
0.06050000 0.06049470 32937.63848911 0 756.49837937 0 12593.38866289 0 -671.72503373 0 7517.43583235 0 3930
0.06150000 0.06148310 31686.44056138 0 247.87937884 0 12518.30125955 0 143.66649231 0 2856.52668282 0 4083
0.06250000 0.06249100 31391.19289862 0 380.58887768 0 10948.55306427 0 632.72394878 0 2850.07160619 0 4303
0.06350000 0.06350600 30742.80152502 0 373.28310625 0 8511.56199722 0 1070.02877118 0 1194.87682963 0 4470
0.06450000 0.06451750 30047.27256440 0 464.31410520 0 9644.16175598 0 1239.65199171 0 -95.82006688 0 4479
0.06550000 0.06550280 29360.06200149 0 172.09766657 0 7422.20681536 0 144.95085292 0 -1437.23057414 0 4636
0.06650000 0.06648880 28951.57321788 0 382.90139224 0 7085.62226157 0 -1146.09774545 0 -2105.66374062 0 4653
0.06750000 0.06749660 29022.33505441 0 376.98312955 0 8078.68367153 0 -1036.09525412 0 -3892.12283307 0 5220
0.06850000 0.06852730 27326.49104103 0 365.82094894 0 6494.96056809 0 38.02372867 0 -5376.99009810 0 5029
0.06950000 0.06949320 28040.87503647 0 71.56495010 0 8344.73930392 0 -388.31167811 0 -5124.63209394 0 5040
0.07050000 0.07048030 27803.52342177 0 313.93632962 0 7350.69077743 0 208.77847311 0 -5598.31493321 0 5475
0.07150000 0.07148790 26880.29218780 0 710.08061102 0 9675.99349122 0 -138.16525862 0 -4540.13710597 0 5509
0.07250000 0.07249820 26145.05674211 0 1054.44785771 0 8865.16044712 0 -900.14601664 0 -4037.65042823 0 5916
0.07350000 0.07351270 24867.01811776 0 787.60585945 0 10306.91622962 0 -206.06223898 0 -2616.97901113 0 5721
0.07450000 0.07449140 24404.62611699 0 161.30260458 0 10659.71611335 0 553.28879624 0 -1438.20659947 0 6028
0.07550000 0.07549160 25353.69983985 0 -849.63337838 0 9798.57339989 0 4179.31828685 0 1457.94893004 0 6183
0.07650000 0.07648840 25195.20663546 0 -429.19604831 0 8396.94556795 0 1946.10578132 0 179.75281070 0 6330
0.07750000 0.07749960 25504.54011835 0 309.79044020 0 6855.49101609 0 -62.21740022 0 2063.98302249 0 6583
0.07850000 0.07848650 24864.46714246 0 580.53875802 0 8009.67424411 0 -1336.47814106 0 1628.53153910 0 6549
0.07950000 0.07947320 24365.69601570 0 857.61349458 0 7748.88693027 0 -89.43020650 0 1463.38361655 0 6828
0.08050000 0.08048110 23601.73436991 0 141.48929035 0 7903.23202700 0 -172.10986688 0 96.84611351 0 7147
0.08150000 0.08149960 23312.58686547 0 251.15682753 0 8024.84700154 0 -418.39100424 0 -1303.38200937 0 7386
0.08250000 0.08250610 23111.72528874 0 399.57811597 0 8606.82428781 0 185.94946244 0 -2271.15549028 0 7227
0.08350000 0.08350160 22269.12705658 0 725.58832259 0 8001.77731189 0 -1331.02127217 0 -2182.20409076 0 7798
0.08450000 0.08449610 21180.08242823 0 695.82953206 0 8769.32141429 0 132.82484729 0 -2306.45877017 0 7371
0.08550000 0.08548940 21493.29783005 0 -66.76201817 0 8687.93421109 0 619.69622885 0 -2409.36289546 0 8256
0.08650000 0.08650700 20740.09464530 0 98.86759507 0 8098.82528518 0 1508.46933214 0 -1697.58533130 0 8037
0.08750000 0.08749060 20872.41262489 0 247.69526497 0 8886.48881885 0 57.75374801 0 -643.89832971 0 8155
0.08850000 0.08849210 20532.13470252 0 430.17983747 0 7813.64842925 0 338.18390439 0 118.32421640 0 8718
0.08950000 0.08949900 19805.99403832 0 163.64395625 0 9153.04355511 0 579.94205163 0 455.28808913 0 8571
0.09050000 0.09049190 20043.01291710 0 86.55192998 0 8051.63224217 0 995.43825346 0 2720.06059557 0 8932
0.09150000 0.09150830 19365.78443144 0 191.55938985 0 8253.96894809 0 1030.15591815 0 2604.33504661 0 9285
0.09250000 0.09250820 19852.35524156 0 165.26659837 0 7543.08977090 0 -174.36137986 0 2504.33681492 0 9204
0.09350000 0.09350330 18925.02026472 0 421.14273020 0 7816.57650524 0 544.70199156 0 3594.91202845 0 9349
0.09450000 0.09448040 18733.69711736 0 403.37796005 0 8028.39618456 0 -260.95368180 0 2971.22075046 0 9564
0.09550000 0.09549270 18233.70595894 0 169.87720894 0 7751.04971367 0 793.09600194 0 3991.49995773 0 10155
0.09650000 0.09649430 17875.68212145 0 214.70782700 0 6997.15887471 0 613.81123975 0 1620.54587730 0 9913
0.09750000 0.09749140 17412.62464886 0 251.97424875 0 7585.15868092 0 376.93987388 0 4963.96501495 0 10476
0.09850000 0.09850240 17242.59659965 0 205.65851941 0 6315.24990394 0 704.50284807 0 3327.56981721 0 10575
0.09950000 0.09950330 17336.64994977 0 -233.48744168 0 6145.72095859 0 1235.88098474 0 4967.96893705 0 10882
0.10050000 0.10051200 16881.68905095 0 -97.08124689 0 4593.95159356 0 747.19286513 0 3175.56496303 0 10875
0.10150000 0.10150300 17418.50298324 0 206.00789212 0 4836.08351414 0 -238.22338277 0 3451.42521353 0 11118
0.10250000 0.10250800 16971.19501032 0 292.16985561 0 4733.01302090 0 -546.50431107 0 3136.97868885 0 11575
0.10350000 0.10349800 16578.12299048 0 317.36794596 0 4887.11411130 0 -488.88221556 0 2363.68934642 0 11364
0.10450000 0.10450100 15800.63008441 0 409.06663496 0 5175.47414075 0 -589.92745624 0 1014.71808112 0 12093
0.10550000 0.10551000 15998.94068584 0 171.30131863 0 6010.54145018 0 -417.88191830 0 853.39218503 0 12067
0.10650000 0.10649700 15577.80793772 0 101.37786567 0 6112.63591809 0 374.64177788 0 276.46250249 0 12054
0.10750000 0.10749900 15598.43756404 0 41.31448681 0 5723.34599640 0 271.81861833 0 615.90414861 0 12807
0.10850000 0.10850100 15730.75554363 0 -80.52153528 0 4983.00860011 0 571.48501395 0 558.35858237 0 12736
0.10950000 0.10950300 15463.01404930 0 341.78077956 0 5550.74478950 0 146.57571327 0 626.06701238 0 12933
0.11050000 0.11050200 14855.43828048 0 497.47123848 0 5487.97970597 0 -201.98844234 0 1512.06287995 0 13428
0.11150000 0.11150900 14538.23004776 0 156.86168932 0 5568.35761025 0 446.67244734 0 1571.38969243 0 13453
0.11250000 0.11250000 14338.81032663 0 144.11679491 0 5781.31968285 0 37.61357621 0 1364.37250139 0 13668
0.11350000 0.11349100 14226.34558958 0 157.57374416 0 5576.19908649 0 383.83859839 0 1945.02993522 0 13791
0.11450000 0.11448600 13952.94758480 0 51.84258369 0 5473.64987951 0 -4.64206521 0 1332.80695487 0 14205
0.11550000 0.11549300 14077.72355047 0 -36.50345831 0 4971.81758239 0 298.02489848 0 2201.07021677 0 14776
0.11650000 0.11649800 13995.75960502 0 20.11022557 0 5177.86983929 0 476.73735490 0 1492.86401803 0 14553
0.11750000 0.11747300 14073.95254351 0 39.19163171 0 3928.97888053 0 428.24331449 0 1970.27349947 0 14568
0.11850000 0.11849100 14307.31132730 0 -278.70736075 0 4479.80099457 0 719.46043628 0 1671.12173539 0 16015
0.11950000 0.11950300 14251.07895877 0 3.48617393 0 3017.97014560 0 91.15222574 0 692.90367431 0 15270
0.12050000 0.12050700 14455.26789459 0 291.75615396 0 3981.47351569 0 -383.18310865 0 1770.56540722 0 15999
0.12150000 0.12150000 13810.31479205 0 213.73512903 0 3684.95036527 0 -598.19594356 0 480.46954268 0 15670
0.12250000 0.12250700 13699.84647044 0 134.29221265 0 4358.72948868 0 384.41755887 0 1278.36026906 0 16887
0.12350000 0.12352200 13679.43866806 0 -167.80648247 0 3392.18713063 0 577.81032357 0 518.85395708 0 16407
0.12450000 0.12449800 13583.38890249 0 -4.87785296 0 3800.86446458 0 901.20966243 0 1568.20651890 0 16306
0.12550000 0.12549900 13838.81916821 0 162.38177804 0 3044.99939256 0 17.40707905 0 1082.70379105 0 17523
0.12650000 0.12650100 13406.92795904 0 308.38185819 0 3063.17786436 0 -132.75275451 0 1664.82193552 0 17154
0.12750000 0.12750600 12887.85994187 0 439.24356362 0 3814.12953613 0 -416.23265731 0 1700.11412421 0 18007
0.12850000 0.12850300 12449.53583847 0 202.70160631 0 3521.41066627 0 -221.33370806 0 1647.60839786 0 17496
0.12950000 0.12949900 12412.38032869 0 101.75585367 0 3833.98277867 0 532.20332172 0 1518.16303827 0 18405
0.13050000 0.13049000 12124.23103198 0 139.48178370 0 3533.63316531 0 172.25072508 0 1131.77901019 0 18100
0.13150000 0.13148800 12173.03229855 0 -25.98711810 0 3609.90732672 0 302.55010683 0 1943.75444757 0 19059
0.13250000 0.13249300 11860.37145658 0 223.96675821 0 3481.40471888 0 -158.73610160 0 1142.13818814 0 18957
0.13350000 0.13349100 11822.55047499 0 145.26806115 0 3108.44103910 0 -170.54933547 0 1309.93690677 0 19468
0.13450000 0.13450700 11773.08373660 0 -93.66848559 0 3452.88925153 0 -200.26043386 0 353.07161805 0 19953
0.13550000 0.13551000 11726.27888548 0 123.60584439 0 3598.90485935 0 -439.82030586 0 -354.27168556 0 19956
0.13650000 0.13649900 11755.00508557 0 237.20964737 0 3858.96015420 0 -499.10608091 0 -840.85025952 0 19723
0.13750000 0.13749600 11353.50375605 0 188.06233545 0 3859.57017003 0 -421.11832957 0 -1401.23964004 0 20946
0.13850000 0.13851100 11574.32948729 0 -48.50014058 0 3908.74853730 0 420.46949455 0 -1244.35465921 0 20955
0.13950000 0.13949800 11165.39705581 0 44.87731200 0 4006.78362712 0 274.65685563 0 -1183.77454148 0 20506
0.14050000 0.14048300 11286.62383845 0 219.35282028 0 3546.80950728 0 447.28468141 0 -668.84797724 0 21447
0.14150000 0.14148400 10980.17406677 0 -105.32344808 0 3543.65960735 0 848.74719174 0 116.66275510 0 21771
0.14250000 0.14249400 11046.54378931 0 56.06555693 0 2705.19839166 0 608.87565711 0 477.21982197 0 22470
0.14350000 0.14350900 11017.42939732 0 247.64868194 0 2976.24506268 0 225.72360381 0 913.47208978 0 22519
0.14450000 0.14449900 10578.31781894 0 309.67176439 0 2978.13056616 0 -410.69704092 0 1879.95788272 0 22218
0.14550000 0.14550500 10063.03189993 0 378.59468047 0 3358.52534789 0 -346.94816822 0 1616.36449605 0 23559
0.14650000 0.14650700 9898.58272277 0 243.99856902 0 3900.68523711 0 34.67451993 0 2036.93159313 0 23044
0.14750000 0.14750500 9475.07645850 0 91.57668584 0 3814.67300478 0 149.67570282 0 1847.60486123 0 23649
0.14850000 0.14849900 9797.60846576 0 44.08318230 0 4039.72448206 0 216.02102472 0 2068.21985972 0 23640
0.14950000 0.14949500 9406.59940854 0 71.32881852 0 3553.85241735 0 94.93132927 0 1899.31202140 0 24457
0.15050000 0.15050000 9402.89494876 0 78.15833395 0 3845.97236257 0 174.01200716 0 2184.34469177 0 24591
0.15150000 0.15149900 9392.61340919 0 -104.14445384 0 3220.89468496 0 65.19050648 0 1906.19965470 0 25020
0.15250000 0.15250500 9479.67930524 0 8.44641231 0 3108.58522466 0 388.05768970 0 1172.31733503 0 25297
0.15350000 0.15350100 9532.88377700 0 -15.20902564 0 2887.83713180 0 -85.04973826 0 1068.26970734 0 25452
0.15450000 0.15450400 9283.08783933 0 92.38490136 0 2505.36829624 0 63.04014521 0 354.23952109 0 26061
0.15550000 0.15549900 9413.50922424 0 53.79019787 0 2628.43621758 0 -76.39316996 0 292.88301957 0 26128
0.15650000 0.15649500 9221.27659874 0 64.34801916 0 2415.57396575 0 -263.79080998 0 -163.23912756 0 26331
0.15750000 0.15749700 9124.26189903 0 111.08055568 0 2772.05612686 0 81.02285739 0 -222.22876765 0 27345
0.15850000 0.15849900 9134.38816184 0 43.44621486 0 2165.94439603 0 197.88580859 0 -157.96193606 0 26980
0.15950000 0.15949700 9132.73557350 0 -52.68717833 0 2370.72116529 0 387.07944613 0 368.62147617 0 27777
0.16050000 0.16050000 9051.11545516 0 35.16619269 0 2342.47188666 0 252.03525033 0 332.43200965 0 28224
0.16150000 0.16150500 9028.88869647 0 204.58932803 0 2132.82608195 0 52.39437074 0 646.16647949 0 28075
0.16250000 0.16249700 8896.81472321 0 170.50053421 0 2713.33933022 0 -434.08061144 0 933.06247094 0 28590
0.16350000 0.16349900 8579.18502501 0 188.68011512 0 2747.48912562 0 -78.12705678 0 725.41308168 0 29163
0.16450000 0.16449100 8677.89667785 0 6.37311268 0 3033.67528047 0 99.90706205 0 1159.62900572 0 28996
0.16550000 0.16550500 8393.10801381 0 44.54834710 0 2616.93464634 0 257.76163532 0 606.06847516 0 30777
0.16650000 0.16650700 8574.88164059 0 63.09282840 0 2664.40496928 0 36.76443417 0 505.46577324 0 29211
0.16750000 0.16749900 8439.41376107 0 49.86069770 0 2550.68692697 0 -115.31184731 0 810.18864555 0 30922
0.16850000 0.16850800 8308.00525963 0 80.77352728 0 2346.94163903 0 115.82869709 0 264.13685532 0 30867
0.16950000 0.16949900 8296.70332994 0 -2.57700634 0 2298.19582844 0 -7.34436880 0 318.06890960 0 30852
0.17050000 0.17049200 8234.41516788 0 83.65224745 0 2207.70275254 0 44.75763799 0 -143.27386394 0 31257
0.17150000 0.17149500 8231.76437180 0 84.70713119 0 2313.91205452 0 41.57457538 0 -224.63999387 0 32608
0.17250000 0.17250900 7985.56198195 0 85.22131908 0 2066.04598512 0 59.05574362 0 -83.25008065 0 32361
0.17350000 0.17350400 8007.06781283 0 77.47711263 0 2420.23226847 0 196.97189396 0 -41.04319613 0 32508
0.17450000 0.17449800 7959.12056842 0 59.39191780 0 2170.48069559 0 20.61110402 0 325.34362568 0 32791
0.17550000 0.17549800 7688.07389740 0 208.40248154 0 2360.99418557 0 -35.45301104 0 321.21659130 0 33633
0.17650000 0.17650100 7610.76825467 0 168.80469019 0 2427.28626972 0 -121.87007207 0 620.64896267 0 33984
0.17750000 0.17750300 7427.69695785 0 60.30239416 0 2742.26517186 0 32.54012999 0 638.01777709 0 34069
0.17850000 0.17849800 7424.46941953 0 17.33920093 0 2606.88602191 0 360.47831937 0 656.69978923 0 34536
