### header ###
fiducial parameters:
Omega_m = 0.31
Omega_nu = 0
Omega_de = 0.69
Omega_k = 0
H_0 = 100
w_de = -1
zeff = 0
beta = 0
fgrowth = 0
b_1 = 2
gamma = 0.55
Lx = 3500 Ly = 3500 Lz = 3500
nx = 700 ny = 700 nz = 700
xoffset = 1379.75464 yoffset = 22.6059522 zoffset = 368.141391
bins = 400 dk = 0.001
kx_ny = 0.628318531 ky_ny = 0.628318531 kz_ny = 0.628318531
############################
A(data) = 3.36487165 (not used)
A(ran) = 3.37321772 (used)
Ngal = 189158
weighted Ngal = 0
Nran = 9399747
weighted Nran = 0
SN(data) = 6546.05286
SN(ran) = 134.171026
SN(data+ran) = 6680.22389
############################
13 columns: k_central k_mean P_0(k) sigma^{lin}_{P_0(k)} P^img_1(k) sigma^{lin}_{P_1(k)} P_2(k) sigma^{lin}_{P_2(k)} P^img_3(k) sigma^{lin}_{P_3(k)} P_4(k) sigma^{lin}_{P_4(k)} N_modes
### header ###
0.00050000 0 0 0 0 0 0 0 0 0 0 0 0
0.00150000 0.00179520 84263.37239867 0 -53774.78110770 0 -28955.67696076 0 21547.31195919 0 338126.23016351 0 3
0.00250000 0.00253879 94307.56035498 0 -37278.73297464 0 -30756.22187333 0 -23382.12867033 0 -116986.61805077 0 6
0.00350000 0.00331552 128501.49872241 0 -20442.96147906 0 -29335.21772032 0 -20006.19014323 0 47378.48782766 0 7
0.00450000 0.00420575 139079.17325193 0 -4825.04777317 0 -16470.64929205 0 -48991.70242378 0 -16097.98507459 0 24
0.00550000 0.00557378 139326.50694388 0 15581.02438483 0 19227.14446959 0 -40243.96447875 0 21930.51281375 0 45
0.00650000 0.00659388 97475.42802733 0 15934.72265551 0 -68.48681021 0 1546.90032957 0 -32107.12966162 0 40
0.00750000 0.00754703 98177.72261809 0 13855.01231575 0 75970.59535245 0 -27564.95177542 0 39975.11386472 0 57
0.00850000 0.00846663 82759.84974037 0 7482.60947394 0 25282.38344347 0 43546.47928205 0 -20186.20026970 0 75
0.00950000 0.00948925 80405.85410008 0 -703.92943319 0 52391.70884826 0 27951.70181300 0 13329.06775647 0 112
0.01050000 0.01054430 86316.90751363 0 -4420.81800920 0 3744.79846401 0 14275.59050403 0 5610.60397942 0 105
0.01150000 0.01145670 84153.45863691 0 2867.17423189 0 22402.77597981 0 6301.95155880 0 18253.33737754 0 144
0.01250000 0.01249090 75368.67609407 0 6764.83157224 0 1697.97352320 0 -4569.21822437 0 -75.83350816 0 169
0.01350000 0.01339930 71634.60281752 0 3179.43579077 0 15850.98411855 0 7688.09607980 0 14479.77943984 0 180
0.01450000 0.01448870 65558.84512928 0 141.89633728 0 6363.19714835 0 1885.05983332 0 8824.12301842 0 267
0.01550000 0.01550050 67237.94143527 0 3089.33090676 0 -3963.84960373 0 6160.45006813 0 -7062.40838636 0 238
0.01650000 0.01653350 61619.91744509 0 -1836.80203540 0 -671.99787718 0 -1821.45181882 0 7422.78355760 0 315
0.01750000 0.01747870 59743.95239327 0 4209.84126085 0 -3466.35396462 0 2643.30951269 0 1130.78080246 0 297
0.01850000 0.01844180 59586.23557266 0 -640.82384992 0 -7510.32637511 0 5365.18906455 0 12334.29830218 0 388
0.01950000 0.01947590 57982.22667001 0 21.74196247 0 -8145.64122750 0 2930.78224639 0 4313.11139563 0 399
0.02050000 0.02045430 63154.93910272 0 -2042.52155639 0 -7658.60458711 0 5986.72865033 0 15937.71727869 0 462
0.02150000 0.02154770 60506.80491936 0 -2812.48353974 0 -14792.44028181 0 1077.20699384 0 9625.49527151 0 571
0.02250000 0.02255340 67254.80005463 0 -2795.94656509 0 -8149.82260875 0 -2696.05924537 0 4382.74193007 0 510
0.02350000 0.02348930 65886.70091107 0 840.17147826 0 -19041.47783268 0 -5913.61548005 0 9115.10057035 0 555
0.02450000 0.02439640 63775.38066001 0 2503.52715755 0 3863.96228402 0 -7586.88890764 0 -5986.57337358 0 592
0.02550000 0.02547300 63029.71948918 0 4526.00692106 0 -1052.36271268 0 -12993.00448893 0 -658.85591791 0 837
0.02650000 0.02652900 55359.04767979 0 1979.00227147 0 5414.79998850 0 1354.25732977 0 -14211.48338567 0 723
0.02750000 0.02749970 55109.71757239 0 2338.65651491 0 14348.79240389 0 -6643.53824241 0 -7759.86721525 0 826
0.02850000 0.02848090 52025.47752503 0 1288.99672693 0 6711.06144943 0 2522.82584024 0 -19049.90714236 0 831
0.02950000 0.02946900 53262.92236854 0 1322.75833044 0 12580.96652231 0 74.02220478 0 -6077.82065087 0 996
0.03050000 0.03053250 47389.13537673 0 1013.38824660 0 9672.74377051 0 -868.03034676 0 -12360.25170304 0 1041
0.03150000 0.03150510 49187.68387386 0 363.73358568 0 10589.22046554 0 2365.81885624 0 -12402.73098735 0 1036
0.03250000 0.03246190 48229.40445753 0 691.30543283 0 14281.24701447 0 -1144.78898421 0 -8548.35149749 0 1059
0.03350000 0.03345080 45874.63243345 0 1390.07080472 0 11067.93870822 0 -3512.06078725 0 -13032.60006204 0 1302
0.03450000 0.03451200 47926.72569281 0 -169.87942718 0 14902.68677948 0 -807.83398444 0 -8506.70405295 0 1339
0.03550000 0.03553350 46274.80281934 0 2504.86919238 0 17300.82538362 0 -5262.79513433 0 -15374.72812160 0 1365
0.03650000 0.03647120 44709.05854616 0 2323.16211277 0 20477.56601353 0 -1046.94466297 0 -7248.07502327 0 1308
0.03750000 0.03744890 41381.36672579 0 1527.20236379 0 21871.17491008 0 2394.87779224 0 -5813.48415400 0 1579
0.03850000 0.03847530 42467.63855490 0 -1167.89194745 0 21873.83679735 0 6225.24484070 0 -2742.91955248 0 1662
0.03950000 0.03950240 42009.90485684 0 -1355.99864769 0 15402.67793791 0 9198.71710414 0 878.96404871 0 1683
0.04050000 0.04050350 44309.99727997 0 -1415.85783762 0 9860.62864682 0 10290.78962926 0 6030.08413920 0 1822
0.04150000 0.04152450 44274.83818564 0 -1060.39052103 0 3272.29129162 0 2789.20311734 0 12274.18401472 0 1887
0.04250000 0.04250150 44224.15141559 0 1217.50287140 0 3231.95260832 0 -973.53646685 0 4887.84613029 0 1920
0.04350000 0.04349210 43364.58365210 0 996.30336682 0 652.60602843 0 -1803.77245089 0 5700.52031308 0 2005
0.04450000 0.04448520 40090.68413692 0 1504.76487236 0 6012.64877760 0 -6229.62586350 0 -542.92740005 0 2151
0.04550000 0.04548030 39391.05143343 0 2593.84277430 0 5516.70590606 0 -5111.07865127 0 -6023.73997455 0 2274
0.04650000 0.04648670 35870.04005025 0 1657.54611032 0 11756.44694118 0 -2558.41749124 0 -3971.43598245 0 2311
0.04750000 0.04749250 34938.82315447 0 659.74986839 0 11448.00075405 0 -408.58971350 0 -8425.32794094 0 2568
0.04850000 0.04851840 35924.38691529 0 -456.60128684 0 12646.51549627 0 3608.58747429 0 -5569.93256022 0 2493
0.04950000 0.04949480 35067.81377498 0 -211.19302669 0 9637.38503464 0 3222.72473246 0 -2078.39048732 0 2644
0.05050000 0.05050630 34970.21124184 0 536.72076624 0 10223.99844123 0 2069.06279069 0 2507.60871802 0 2829
0.05150000 0.05149060 35165.30539616 0 -16.83477329 0 11440.79147603 0 2412.03587392 0 6952.53898939 0 2784
0.05250000 0.05249300 35042.41493397 0 -624.53753632 0 6851.39836442 0 3369.50563287 0 8388.44971109 0 3055
0.05350000 0.05348950 34666.42335743 0 79.21687779 0 9366.82637629 0 1598.08620348 0 11126.68877846 0 3009
0.05450000 0.05448610 35779.97953103 0 597.43952393 0 6346.50489694 0 -988.66929596 0 7150.49467252 0 3336
0.05550000 0.05550870 34960.11825261 0 -507.85038058 0 8887.75321531 0 511.44725575 0 11553.03438915 0 3349
0.05650000 0.05647670 34993.83549134 0 -187.56434071 0 5808.81476009 0 -128.63902956 0 7069.81730592 0 3324
0.05750000 0.05747970 36379.90237396 0 -207.06044671 0 6101.72218029 0 255.67427205 0 1957.68499094 0 3639
0.05850000 0.05849280 36265.66304539 0 -322.47766039 0 5253.80017360 0 153.16388426 0 -582.20909228 0 3846
0.05950000 0.05951020 34969.87850593 0 1337.49853118 0 5190.59144219 0 -3057.82081623 0 -1281.58780737 0 3787
0.06050000 0.06049470 34101.99234473 0 1334.00480414 0 8147.62655176 0 -2094.68345564 0 -2939.05627931 0 3930
0.06150000 0.06148310 32006.19976939 0 1245.54141729 0 8276.82790501 0 -1801.78712663 0 -6126.18936076 0 4083
0.06250000 0.06249100 31556.45173314 0 1227.34076309 0 8959.47998597 0 -632.69622079 0 -4595.65963789 0 4303
0.06350000 0.06350600 30144.54236164 0 43.81444260 0 10200.87329560 0 1948.80094218 0 -4246.47548437 0 4470
0.06450000 0.06451750 29677.71388208 0 -7.07940010 0 9649.06406503 0 1619.68076394 0 -3020.52112089 0 4479
0.06550000 0.06550280 29924.71483812 0 895.59197118 0 8906.57497653 0 -607.39609143 0 -4163.03640973 0 4636
0.06650000 0.06648880 28743.83509904 0 956.38171253 0 10828.77922843 0 -952.02841773 0 -995.52698304 0 4653
0.06750000 0.06749660 27455.03801366 0 682.54449636 0 11851.49849902 0 -754.90124701 0 874.22256201 0 5220
0.06850000 0.06852730 27882.49274405 0 -84.15279317 0 12299.36103179 0 1232.81981439 0 228.49751217 0 5029
0.06950000 0.06949320 28087.45806365 0 -405.29008240 0 11807.79918305 0 925.05462675 0 527.25110229 0 5040
0.07050000 0.07048030 28287.54325659 0 449.63379692 0 11855.49132992 0 155.56623752 0 1516.95409781 0 5475
0.07150000 0.07148790 27482.10053421 0 327.13707223 0 11756.00329330 0 758.21418754 0 2682.77199143 0 5509
0.07250000 0.07249820 27312.73795682 0 324.91661460 0 12188.00541443 0 814.40440951 0 3784.00584522 0 5916
0.07350000 0.07351270 26797.77368251 0 537.21876098 0 11607.60307813 0 135.28487478 0 1952.97123223 0 5721
0.07450000 0.07449140 26759.84178895 0 693.92961002 0 12948.86152508 0 464.25864922 0 2441.81573773 0 6028
0.07550000 0.07549160 25209.18154362 0 -6.29449827 0 11237.37892400 0 748.11121623 0 4146.44397909 0 6183
0.07650000 0.07648840 25655.15857290 0 -12.21517885 0 11132.01255299 0 1338.75183644 0 3684.97254767 0 6330
0.07750000 0.07749960 25737.45525426 0 -396.35279590 0 9684.56698646 0 1411.92046271 0 2978.04183658 0 6583
0.07850000 0.07848650 26225.02427210 0 -521.40493237 0 7887.62671289 0 2286.87171636 0 2228.89802991 0 6549
0.07950000 0.07947320 26224.91336013 0 46.12906449 0 7892.75084589 0 286.74293294 0 2770.95809836 0 6828
0.08050000 0.08048110 26301.66444302 0 407.12234814 0 6461.58715647 0 -1580.93921300 0 -666.35689441 0 7147
0.08150000 0.08149960 25629.31608401 0 588.03751628 0 8698.43757460 0 -582.81134428 0 2018.56457099 0 7386
0.08250000 0.08250610 24682.34968857 0 406.60549836 0 7045.43885503 0 -258.77315248 0 -619.78274018 0 7227
0.08350000 0.08350160 24912.38111328 0 51.70793656 0 7555.65609704 0 1173.62609627 0 -642.71822635 0 7798
0.08450000 0.08449610 24190.78783983 0 481.46442304 0 7967.76061085 0 -889.46297574 0 -1250.23299359 0 7371
0.08550000 0.08548940 23602.17801779 0 733.28117680 0 7505.85662274 0 243.80780044 0 -1675.65803494 0 8256
0.08650000 0.08650700 23145.22070352 0 -97.44193261 0 7402.46448479 0 786.24940606 0 322.83923341 0 8037
0.08750000 0.08749060 22345.21266765 0 14.92797471 0 6731.93508209 0 513.13755417 0 -712.20457523 0 8155
0.08850000 0.08849210 23102.63050724 0 361.17373742 0 5932.42615007 0 787.90421265 0 -832.33887498 0 8718
0.08950000 0.08949900 22020.68424494 0 601.45564635 0 6473.61001397 0 -322.37783962 0 -306.75921607 0 8571
0.09050000 0.09049190 20985.54283376 0 758.66338101 0 6245.07590085 0 -682.61991650 0 83.77713432 0 8932
0.09150000 0.09150830 20576.27766637 0 792.32738199 0 8644.46781025 0 -328.43363315 0 61.23960030 0 9285
0.09250000 0.09250820 19374.21374112 0 422.97055946 0 7584.18265559 0 -33.77136376 0 -1014.22563197 0 9204
0.09350000 0.09350330 19476.91822487 0 254.88679707 0 8742.78018000 0 198.72984868 0 876.30992528 0 9349
0.09450000 0.09448040 18480.04144316 0 146.49585665 0 8346.38080107 0 14.19451385 0 300.40506934 0 9564
0.09550000 0.09549270 18893.96491327 0 122.32924762 0 7702.00444077 0 859.54003549 0 920.85549958 0 10155
0.09650000 0.09649430 18603.70828913 0 18.23060042 0 9033.10335131 0 884.91225763 0 1301.11940519 0 9913
0.09750000 0.09749140 18595.38989142 0 48.49038032 0 6528.22306774 0 552.30611619 0 2202.13497168 0 10476
0.09850000 0.09850240 18507.99125947 0 -126.06032627 0 7580.17873349 0 1143.16966945 0 1868.92214176 0 10575
0.09950000 0.09950330 18508.65673129 0 336.48695125 0 5967.55197081 0 -119.04625332 0 2250.95842064 0 10882
0.10050000 0.10051200 17778.07958831 0 435.31173430 0 6796.14202122 0 293.25235643 0 1769.97757379 0 10875
0.10150000 0.10150300 17741.47863838 0 101.19341907 0 5829.93239908 0 -337.40197500 0 2011.77675845 0 11118
0.10250000 0.10250800 17158.08167890 0 107.60324361 0 6495.08257126 0 541.09735256 0 831.18206314 0 11575
0.10350000 0.10349800 17388.44583951 0 252.96358352 0 5103.21499263 0 -347.36408810 0 -59.02956840 0 11364
0.10450000 0.10450100 16490.83527050 0 280.65608406 0 5148.16761387 0 207.00942720 0 -330.94578926 0 12093
0.10550000 0.10551000 16233.29767736 0 335.96455588 0 5600.21152788 0 -190.15635344 0 -326.69231523 0 12067
0.10650000 0.10649700 16302.50674631 0 100.61534588 0 4896.73017905 0 636.37738906 0 -389.60934816 0 12054
0.10750000 0.10749900 15860.63345990 0 223.40887101 0 5025.18842210 0 -98.33632673 0 -1206.09002974 0 12807
0.10850000 0.10850100 15466.56323233 0 402.72357943 0 5273.68668973 0 -223.23917570 0 -367.10641867 0 12736
0.10950000 0.10950300 14960.91556346 0 142.89676324 0 5525.36813088 0 -57.02749644 0 -782.40519720 0 12933
0.11050000 0.11050200 15047.42689965 0 124.37224610 0 5861.99704945 0 318.43491910 0 -114.90369126 0 13428
0.11150000 0.11150900 15056.18894524 0 7.74212130 0 5475.43556222 0 158.41667513 0 -421.03514559 0 13453
0.11250000 0.11250000 14845.34529126 0 225.41194118 0 5930.37427864 0 17.18015316 0 729.72866641 0 13668
0.11350000 0.11349100 14502.73821753 0 302.47246845 0 5798.41121735 0 -145.94906064 0 385.67530060 0 13791
0.11450000 0.11448600 14555.19957909 0 93.63687568 0 6187.20203517 0 427.73311943 0 251.07364356 0 14205
0.11550000 0.11549300 14444.62034552 0 -190.01327700 0 5661.81203573 0 547.44706281 0 511.94857786 0 14776
0.11650000 0.11649800 14597.01339159 0 -97.69547737 0 5185.92204828 0 718.02079891 0 1036.28713182 0 14553
0.11750000 0.11747300 14759.83216279 0 -175.19654699 0 4901.43284656 0 814.62290609 0 1477.31415991 0 14568
0.11850000 0.11849100 14650.91660875 0 56.97159680 0 3775.25489083 0 224.78639767 0 589.93189272 0 16015
0.11950000 0.11950300 14740.08983222 0 270.08173689 0 3926.40572284 0 -41.94091761 0 559.17933094 0 15270
0.12050000 0.12050700 14207.04690689 0 205.47440554 0 3790.99329930 0 -121.86119911 0 456.61237804 0 15999
0.12150000 0.12150000 13925.66324031 0 178.02923869 0 3887.46453035 0 -203.37484196 0 611.87360764 0 15670
0.12250000 0.12250700 13688.20071365 0 177.32162033 0 3526.06896899 0 311.20124045 0 260.70302075 0 16887
0.12350000 0.12352200 13691.63898470 0 147.74805279 0 3711.66905872 0 220.98877183 0 422.67331538 0 16407
0.12450000 0.12449800 13343.92996038 0 192.17606040 0 3866.10288503 0 31.36546132 0 70.58493194 0 16306
0.12550000 0.12549900 13135.41545775 0 223.77488051 0 3761.90108970 0 -53.48496813 0 446.86987064 0 17523
0.12650000 0.12650100 12945.31234206 0 195.23501252 0 4350.36672618 0 -470.72814440 0 701.89308943 0 17154
0.12750000 0.12750600 12687.44201301 0 360.13449227 0 4845.85485865 0 -410.84233560 0 374.58854013 0 18007
0.12850000 0.12850300 12382.54500890 0 170.52604396 0 4989.57458870 0 -62.90350167 0 590.23579151 0 17496
0.12950000 0.12949900 12414.82039202 0 -60.89599502 0 4632.37149979 0 433.85102366 0 683.94420541 0 18405
0.13050000 0.13049000 12474.49103160 0 -137.29127230 0 4888.27868697 0 594.03008999 0 436.65709649 0 18100
0.13150000 0.13148800 12618.34385602 0 66.37881732 0 4011.68593617 0 500.28507515 0 1062.62650634 0 19059
0.13250000 0.13249300 12407.27837810 0 180.55248600 0 4401.04240504 0 -252.37020448 0 786.89380460 0 18957
0.13350000 0.13349100 11954.42480670 0 352.33405345 0 3989.35935672 0 -416.62084921 0 552.03881834 0 19468
0.13450000 0.13450700 11714.30039277 0 142.95887394 0 4281.53475792 0 -12.91503337 0 557.91604361 0 19953
0.13550000 0.13551000 11457.53918342 0 130.24392576 0 4252.65328107 0 405.61394535 0 146.98830580 0 19956
0.13650000 0.13649900 11533.18114661 0 79.68570268 0 4328.11778510 0 453.29278280 0 901.95166351 0 19723
0.13750000 0.13749600 11217.52568146 0 166.46555676 0 3748.53619738 0 233.57506213 0 605.14457845 0 20946
0.13850000 0.13851100 10951.11513077 0 166.37239070 0 3839.42855637 0 314.65060270 0 1190.07434135 0 20955
0.13950000 0.13949800 10873.92040001 0 124.97560721 0 3868.44312759 0 106.22272232 0 1893.91060848 0 20506
0.14050000 0.14048300 10694.35392142 0 -21.03090583 0 3972.84456446 0 83.62352125 0 2024.78673247 0 21447
0.14150000 0.14148400 10875.69499152 0 25.98001973 0 3883.13896354 0 207.17024956 0 2174.65098564 0 21771
0.14250000 0.14249400 10928.21180907 0 -19.90060195 0 3889.76040812 0 -133.41046249 0 1839.21991633 0 22470
0.14350000 0.14350900 10924.06370141 0 21.88259884 0 4121.35569160 0 22.32624672 0 1991.35786487 0 22519
0.14450000 0.14449900 11056.15985706 0 -56.91747176 0 4170.88897717 0 -80.53295922 0 1430.53149118 0 22218
0.14550000 0.14550500 11012.03907560 0 107.70594809 0 4315.32963502 0 -132.64184254 0 1614.84500207 0 23559
0.14650000 0.14650700 10848.28864386 0 249.46098352 0 4034.40070752 0 -250.21074843 0 542.61573742 0 23044
0.14750000 0.14750500 10742.06825069 0 234.92929728 0 4642.03193233 0 -96.24663432 0 1673.42870435 0 23649
0.14850000 0.14849900 10229.41094535 0 74.57598825 0 4100.58187971 0 514.55833650 0 461.26513516 0 23640
0.14950000 0.14949500 10360.78617320 0 54.72219115 0 4439.32921690 0 210.75381529 0 1403.46897063 0 24457
0.15050000 0.15050000 10036.62375999 0 182.24167530 0 3378.99969746 0 288.19033414 0 377.60867306 0 24591
0.15150000 0.15149900 9920.86493744 0 131.50166750 0 3873.63380776 0 14.66400422 0 1462.57395917 0 25020
0.15250000 0.15250500 9689.30292756 0 70.50318982 0 3361.90816296 0 186.92326953 0 866.48090655 0 25297
0.15350000 0.15350100 9622.84447544 0 97.90266093 0 3451.75794944 0 124.72161880 0 487.94833678 0 25452
0.15450000 0.15450400 9381.52221224 0 228.83024808 0 3070.09877125 0 -87.78039095 0 752.92479571 0 26061
0.15550000 0.15549900 9218.79217062 0 142.75146856 0 3208.03998770 0 -68.07077941 0 417.19204585 0 26128
0.15650000 0.15649500 9073.58622017 0 -26.73610663 0 3301.07294770 0 185.34499220 0 688.00358349 0 26331
0.15750000 0.15749700 9107.76928917 0 -74.83663138 0 2985.67258008 0 398.72409381 0 13.23068884 0 27345
0.15850000 0.15849900 9373.83601276 0 -44.18067392 0 2584.86999596 0 -77.76160184 0 202.13151878 0 26980
0.15950000 0.15949700 9198.63946577 0 103.29076441 0 2752.53562023 0 -112.83961951 0 -105.81744999 0 27777
0.16050000 0.16050000 9234.46403191 0 223.39888893 0 3135.54792444 0 -323.45923132 0 346.52670273 0 28224
0.16150000 0.16150500 8941.77843564 0 126.62154084 0 3146.09565274 0 -186.77575661 0 -74.94133228 0 28075
0.16250000 0.16249700 8962.33042359 0 41.78353353 0 3405.37456380 0 289.10092141 0 33.48099623 0 28590
0.16350000 0.16349900 8830.87755736 0 -1.43538944 0 3200.30942342 0 338.21495974 0 511.13337488 0 29163
0.16450000 0.16449100 8861.24525460 0 -24.74046756 0 3109.31724366 0 399.23428887 0 737.42595709 0 28996
0.16550000 0.16550500 8893.17681061 0 104.51833809 0 2949.48200444 0 19.04003598 0 1001.00714345 0 30777
0.16650000 0.16650700 8801.21969672 0 149.34962163 0 3078.84972564 0 -30.74535250 0 1047.02230135 0 29211
0.16750000 0.16749900 8555.35004277 0 130.67093685 0 3161.06876862 0 198.50469738 0 1317.57874146 0 30922
0.16850000 0.16850800 8371.76855088 0 73.83842365 0 2946.98648513 0 215.88571212 0 1390.14844310 0 30867
0.16950000 0.16949900 8423.60880542 0 41.02944305 0 2719.91641001 0 188.81653685 0 1545.07028207 0 30852
0.17050000 0.17049200 8353.65662627 0 -102.16877893 0 2590.43777683 0 429.19715743 0 1289.73983712 0 31257
0.17150000 0.17149500 8466.83119993 0 2.77348689 0 2343.10408489 0 202.09824519 0 1193.20205889 0 32608
0.17250000 0.17250900 8419.20560023 0 127.20715604 0 2003.41399595 0 -252.35689504 0 1054.16503218 0 32361
0.17350000 0.17350400 8213.30862008 0 182.78625307 0 2177.33505530 0 -149.79992422 0 689.17703213 0 32508
0.17450000 0.17449800 8011.61520358 0 91.99659856 0 2041.82281099 0 -96.39614365 0 301.92012685 0 32791
0.17550000 0.17549800 8011.33792366 0 45.31729979 0 2093.43015039 0 91.80993371 0 222.68350673 0 33633
0.17650000 0.17650100 7790.96693149 0 182.21394730 0 1962.95330949 0 -35.61538617 0 190.57227332 0 33984
0.17750000 0.17750300 7638.58497662 0 148.70522308 0 2049.33155132 0 51.51450608 0 248.82545793 0 34069
0.17850000 0.17849800 7541.11553784 0 -0.45719799 0 2031.07544114 0 141.77100675 0 48.98072214 0 34536
