### header ###
fiducial parameters:
Omega_m = 0.31
Omega_nu = 0
Omega_de = 0.69
Omega_k = 0
H_0 = 100
w_de = -1
zeff = 0
beta = 0
fgrowth = 0
b_1 = 2
gamma = 0.55
Lx = 3500 Ly = 3500 Lz = 3500
nx = 700 ny = 700 nz = 700
xoffset = 1379.75464 yoffset = 22.6059522 zoffset = 368.141391
bins = 400 dk = 0.001
kx_ny = 0.628318531 ky_ny = 0.628318531 kz_ny = 0.628318531
############################
A(data) = 3.30495885 (not used)
A(ran) = 3.2983512 (used)
Ngal = 185673
weighted Ngal = 0
Nran = 9399747
weighted Nran = 0
SN(data) = 6733.22634
SN(ran) = 131.193182
SN(data+ran) = 6864.41953
############################
13 columns: k_central k_mean P_0(k) sigma^{lin}_{P_0(k)} P^img_1(k) sigma^{lin}_{P_1(k)} P_2(k) sigma^{lin}_{P_2(k)} P^img_3(k) sigma^{lin}_{P_3(k)} P_4(k) sigma^{lin}_{P_4(k)} N_modes
### header ###
0.00050000 0 0 0 0 0 0 0 0 0 0 0 0
0.00150000 0.00179520 47046.41739103 0 -11381.45357236 0 -25788.14202431 0 28996.04891765 0 -145183.76805223 0 3
0.00250000 0.00253879 64171.33639106 0 -6728.71863497 0 1891.39290678 0 -18537.27201941 0 60529.87460902 0 6
0.00350000 0.00331552 62450.20444863 0 1505.29724981 0 2010.05762293 0 -30872.79035326 0 -29192.91766348 0 7
0.00450000 0.00420575 63386.96694288 0 -2832.33678227 0 -19707.61512139 0 17548.04816360 0 25005.10351977 0 24
0.00550000 0.00557378 63913.90970989 0 -9651.59285793 0 -37664.04115662 0 11327.21761928 0 9392.20303491 0 45
0.00650000 0.00659388 80162.29141510 0 -5773.93294568 0 -11362.37671361 0 -5329.00958011 0 5034.51611874 0 40
0.00750000 0.00754703 81168.04115436 0 1563.00474753 0 -38938.64150991 0 -6215.32931063 0 -11585.08794833 0 57
0.00850000 0.00846663 70772.04043085 0 5232.57162264 0 -4453.91414089 0 -27998.39575215 0 19178.56502696 0 75
0.00950000 0.00948925 62085.52589297 0 8209.95907860 0 -7685.38982774 0 -15774.67668355 0 8625.90114656 0 112
0.01050000 0.01054430 55031.41372193 0 4173.14049015 0 19789.68997881 0 3131.58836713 0 -5466.97297895 0 105
0.01150000 0.01145670 57033.48568306 0 -386.72341871 0 15543.64705112 0 596.00543217 0 8524.27250892 0 144
0.01250000 0.01249090 54478.29573013 0 -1589.37961388 0 17499.24689703 0 10886.38690538 0 10270.85874834 0 169
0.01350000 0.01339930 65538.65915083 0 -7134.64535208 0 19508.41722420 0 15290.54593676 0 27813.94914691 0 180
0.01450000 0.01448870 66945.57748372 0 -2087.74036635 0 7668.90830908 0 4611.96369740 0 9922.02951312 0 267
0.01550000 0.01550050 77488.42565482 0 216.23175746 0 22089.33875405 0 -10006.96589935 0 11333.76142548 0 238
0.01650000 0.01653350 66301.95532481 0 1425.67354692 0 5678.43773996 0 10566.96043327 0 14671.98988296 0 315
0.01750000 0.01747870 72948.13327209 0 -1224.60123745 0 29433.81846119 0 -8841.32546488 0 19348.92581208 0 297
0.01850000 0.01844180 73345.08721087 0 328.01882238 0 15655.77905226 0 4717.85135467 0 11106.94644789 0 388
0.01950000 0.01947590 71174.31814416 0 843.99683209 0 17424.49222960 0 2891.40849722 0 2385.93828750 0 399
0.02050000 0.02045430 70675.21428149 0 -441.72910086 0 11656.18252077 0 -1801.77603544 0 19002.10408351 0 462
0.02150000 0.02154770 71292.66121560 0 2022.87904660 0 18087.63489513 0 501.75354962 0 -204.78675133 0 571
0.02250000 0.02255340 72634.58513437 0 76.63506896 0 25240.56963098 0 -1609.41031557 0 10190.31447610 0 510
0.02350000 0.02348930 65984.96891603 0 1543.41769372 0 11711.41668157 0 582.28118506 0 -5333.00241101 0 555
0.02450000 0.02439640 66344.65643306 0 2190.57794446 0 24780.17404566 0 -3455.99478667 0 -4057.63676513 0 592
0.02550000 0.02547300 65498.17628197 0 -74.97992964 0 12285.49703561 0 1386.06688262 0 -6730.47104409 0 837
0.02650000 0.02652900 65481.53948655 0 -1361.78825250 0 17230.72901891 0 3092.75808662 0 -13325.29674950 0 723
0.02750000 0.02749970 70218.36787920 0 1733.77590695 0 9372.80453144 0 -2526.19756411 0 -7185.42085171 0 826
0.02850000 0.02848090 64170.67091924 0 590.41879626 0 14767.70691262 0 -323.98051758 0 -18588.73517325 0 831
0.02950000 0.02946900 63249.54701269 0 3186.98889589 0 16462.10907040 0 -3518.29403993 0 -9750.55960830 0 996
0.03050000 0.03053250 61220.52344298 0 795.38078851 0 16835.43875968 0 1471.94602059 0 -5105.66614716 0 1041
0.03150000 0.03150510 58162.68044436 0 1144.53388668 0 20542.22769174 0 4596.26965372 0 -8694.93275636 0 1036
0.03250000 0.03246190 60789.40861760 0 -369.20487313 0 18217.40189943 0 127.09957143 0 79.23051996 0 1059
0.03350000 0.03345080 57947.51122356 0 1942.11295042 0 24557.35189897 0 503.11887597 0 346.75629051 0 1302
0.03450000 0.03451200 57752.74980515 0 2711.65346828 0 23692.57127292 0 -1346.51567430 0 9598.41056857 0 1339
0.03550000 0.03553350 54137.57415988 0 637.63069431 0 28778.99419337 0 2736.30919910 0 9862.10377601 0 1365
0.03650000 0.03647120 54818.24091659 0 1440.71320998 0 29606.84113359 0 5088.58570386 0 11825.54509816 0 1308
0.03750000 0.03744890 53234.08525648 0 931.04054574 0 32312.31680517 0 4077.66746682 0 18702.53085394 0 1579
0.03850000 0.03847530 51404.48140790 0 2611.88815173 0 32675.66441719 0 -302.61554489 0 20373.75241010 0 1662
0.03950000 0.03950240 48611.38528043 0 3349.26419844 0 38662.13796999 0 -2190.23411735 0 22692.69986803 0 1683
0.04050000 0.04050350 44155.16417057 0 2803.04493113 0 35508.91067761 0 -237.78860785 0 16474.75303492 0 1822
0.04150000 0.04152450 44570.64040825 0 442.28698806 0 44767.39824211 0 5275.03981576 0 26919.88776091 0 1887
0.04250000 0.04250150 41819.02535736 0 388.33496963 0 36437.13295021 0 6318.77690457 0 14675.98271386 0 1920
0.04350000 0.04349210 43349.05597637 0 1637.65959419 0 38513.18319498 0 171.07616733 0 23070.13330018 0 2005
0.04450000 0.04448520 38565.31182063 0 1026.99714526 0 30966.62187944 0 4202.37688530 0 15793.97536624 0 2151
0.04550000 0.04548030 39569.39788036 0 -196.76670682 0 34956.23633368 0 5333.35732931 0 25606.91186618 0 2274
0.04650000 0.04648670 39413.34473930 0 -1914.81751473 0 23565.35524392 0 8461.51851659 0 18843.61087912 0 2311
0.04750000 0.04749250 41738.05961964 0 -1283.60640521 0 20016.06130852 0 6662.87019869 0 17687.02086136 0 2568
0.04850000 0.04851840 42095.30707335 0 -436.96321353 0 15531.00308660 0 2974.98066622 0 16786.85931704 0 2493
0.04950000 0.04949480 40781.99844271 0 1116.47315840 0 11863.58790370 0 -1145.80937433 0 12344.83493928 0 2644
0.05050000 0.05050630 39548.87916600 0 1539.94614908 0 11882.88658639 0 -919.12194550 0 12518.07943561 0 2829
0.05150000 0.05149060 37532.83229672 0 1133.66451367 0 14265.94116268 0 -3090.77276236 0 5446.39880861 0 2784
0.05250000 0.05249300 36731.93696509 0 1177.53019760 0 15497.50767181 0 -1436.82019985 0 6061.98242163 0 3055
0.05350000 0.05348950 35410.64267265 0 616.60622138 0 17023.87819583 0 -2726.65985775 0 -3205.66647155 0 3009
0.05450000 0.05448610 34861.29568781 0 344.04005638 0 16768.66975405 0 29.57378937 0 2148.91940872 0 3336
0.05550000 0.05550870 35467.87324890 0 48.24770493 0 18651.51134798 0 1465.46876157 0 -2513.84197071 0 3349
0.05650000 0.05647670 35842.31205788 0 -627.15394968 0 17059.70276197 0 2204.48630543 0 -1607.82427440 0 3324
0.05750000 0.05747970 36031.41696584 0 -129.23573596 0 16353.85898818 0 1189.14268080 0 -573.40490015 0 3639
0.05850000 0.05849280 36200.00315946 0 738.99868882 0 15760.92359933 0 1466.38933092 0 1215.69500630 0 3846
0.05950000 0.05951020 34604.53447845 0 760.53224770 0 14680.30828067 0 913.73606026 0 3816.72487622 0 3787
0.06050000 0.06049470 34130.27489695 0 844.12105350 0 16220.54280087 0 1513.01672289 0 5864.17092406 0 3930
0.06150000 0.06148310 33304.09163628 0 937.08746632 0 14435.08191614 0 871.82575435 0 3476.12530913 0 4083
0.06250000 0.06249100 31452.74904168 0 1404.94409983 0 18971.93602781 0 -1437.53003646 0 6423.07852067 0 4303
0.06350000 0.06350600 29533.86105767 0 1217.94651928 0 15920.41501145 0 -555.23308307 0 5612.20111179 0 4470
0.06450000 0.06451750 29187.26115303 0 62.46506665 0 18421.47992327 0 1238.67596637 0 2619.79617515 0 4479
0.06550000 0.06550280 28446.70193280 0 -231.44000672 0 17285.74135577 0 968.51991847 0 3803.42653108 0 4636
0.06650000 0.06648880 29225.19304660 0 288.68832889 0 17043.17687852 0 127.87373698 0 1938.13121072 0 4653
0.06750000 0.06749660 29418.84534531 0 -586.75093743 0 15144.91852083 0 1535.99768297 0 1889.56285928 0 5220
0.06850000 0.06852730 29237.39336324 0 -337.67260021 0 13817.85680597 0 918.86019325 0 -96.75084013 0 5029
0.06950000 0.06949320 30570.00067657 0 381.48171903 0 13706.83392452 0 421.90358631 0 2128.46724155 0 5040
0.07050000 0.07048030 29825.11588953 0 276.23291471 0 13830.72259443 0 -39.97977217 0 1441.21231385 0 5475
0.07150000 0.07148790 29884.89744108 0 128.14658042 0 12481.70030962 0 950.37250202 0 -223.11162693 0 5509
0.07250000 0.07249820 29571.57112729 0 -106.07387846 0 12833.40216485 0 364.81386826 0 81.41371117 0 5916
0.07350000 0.07351270 28988.50690372 0 510.63316190 0 11852.82944266 0 152.73798229 0 -1346.92604859 0 5721
0.07450000 0.07449140 27828.36770294 0 1024.45837028 0 13706.94483649 0 -8.30115090 0 -71.78433398 0 6028
0.07550000 0.07549160 27517.70327642 0 454.12129521 0 12388.97790313 0 670.93755875 0 -354.87948315 0 6183
0.07650000 0.07648840 26407.47446190 0 55.39709049 0 11394.98483263 0 1532.57050311 0 -638.18414504 0 6330
0.07750000 0.07749960 26692.07457559 0 198.92616286 0 10870.51540254 0 1036.97811339 0 -899.13782684 0 6583
0.07850000 0.07848650 25558.66515945 0 728.94451879 0 10899.18614665 0 -326.10891827 0 -1386.77671922 0 6549
0.07950000 0.07947320 24797.80904881 0 741.57406475 0 9405.05773217 0 -575.43237095 0 -1253.78217662 0 6828
0.08050000 0.08048110 23861.71202638 0 339.95184118 0 9883.50978612 0 -69.35514002 0 -2842.74032501 0 7147
0.08150000 0.08149960 23625.24770744 0 112.05879925 0 9539.69377192 0 499.08389852 0 -3327.37017566 0 7386
0.08250000 0.08250610 23372.25750505 0 172.89623275 0 9255.41530294 0 382.05291568 0 -5041.65884957 0 7227
0.08350000 0.08350160 22942.69544725 0 298.49183787 0 8231.20981196 0 766.93630482 0 -3202.56093641 0 7798
0.08450000 0.08449610 22840.54552335 0 -70.75152172 0 7118.65184608 0 787.07126375 0 -4220.63299548 0 7371
0.08550000 0.08548940 22871.26813890 0 190.74751424 0 6584.26688592 0 1225.26670926 0 -2590.31577367 0 8256
0.08650000 0.08650700 22020.01877312 0 451.21983809 0 7169.57153127 0 68.53217321 0 -2030.68724925 0 8037
0.08750000 0.08749060 22023.12430827 0 304.94469625 0 6598.00887894 0 412.21875314 0 -1332.98441403 0 8155
0.08850000 0.08849210 21309.84943253 0 161.15176430 0 6288.56448408 0 873.56263580 0 -559.67510744 0 8718
0.08950000 0.08949900 21490.30320688 0 216.62438584 0 6156.56814920 0 -240.15768752 0 -283.41002826 0 8571
0.09050000 0.09049190 20728.44888850 0 426.57852583 0 7383.29889646 0 35.94401833 0 132.75719099 0 8932
0.09150000 0.09150830 20383.29083947 0 556.09597819 0 7222.68727346 0 -230.39743421 0 334.59479306 0 9285
0.09250000 0.09250820 19773.49683126 0 284.68773415 0 7650.25291581 0 121.10588860 0 873.40403168 0 9204
0.09350000 0.09350330 19537.47616020 0 175.34405991 0 7717.66521086 0 674.99028211 0 1407.91654061 0 9349
0.09450000 0.09448040 19509.19360798 0 61.59596046 0 7347.87361341 0 1052.56346334 0 1525.39449868 0 9564
0.09550000 0.09549270 18914.37271565 0 301.59293654 0 6843.81198570 0 690.29502478 0 2243.73805143 0 10155
0.09650000 0.09649430 18978.92348189 0 232.21084491 0 6810.47184768 0 299.63090380 0 2608.41660709 0 9913
0.09750000 0.09749140 18245.46262770 0 229.17074782 0 6492.29868082 0 -78.03200522 0 2621.48203709 0 10476
0.09850000 0.09850240 18191.11576266 0 175.63354015 0 6452.89165807 0 78.53343823 0 1460.65518210 0 10575
0.09950000 0.09950330 17870.46925888 0 363.92989986 0 7331.56955390 0 -680.06006824 0 2210.66410213 0 10882
0.10050000 0.10051200 17547.82633966 0 239.86266168 0 6935.42527250 0 -277.20450357 0 1229.13753700 0 10875
0.10150000 0.10150300 17441.01811305 0 132.59304128 0 7698.86563203 0 227.20206036 0 473.13382502 0 11118
0.10250000 0.10250800 17301.60176741 0 131.30978979 0 7029.33443706 0 -9.13889119 0 498.36518895 0 11575
0.10350000 0.10349800 17096.52553584 0 195.15515590 0 7668.85285309 0 580.84598418 0 -16.58322494 0 11364
0.10450000 0.10450100 16738.94534623 0 228.55296815 0 7078.66808108 0 -564.08496735 0 662.17440404 0 12093
0.10550000 0.10551000 16706.55905114 0 240.10334065 0 7159.74473077 0 312.66416933 0 279.16209983 0 12067
0.10650000 0.10649700 16351.41892486 0 63.83516221 0 7412.08055254 0 541.19384597 0 733.12922740 0 12054
0.10750000 0.10749900 15987.40584102 0 281.04760331 0 6381.22034339 0 99.33708544 0 707.57289139 0 12807
0.10850000 0.10850100 15903.55639209 0 166.91142287 0 6864.78543913 0 243.38966231 0 418.06048657 0 12736
0.10950000 0.10950300 15610.97061659 0 230.08909893 0 6605.12942738 0 -41.23274469 0 88.22914078 0 12933
0.11050000 0.11050200 15134.60370767 0 388.86069236 0 6985.63512108 0 122.23164509 0 206.33397331 0 13428
0.11150000 0.11150900 14618.08666579 0 236.52088404 0 6820.03245945 0 47.30706052 0 655.09045655 0 13453
0.11250000 0.11250000 14392.60263183 0 171.57859855 0 6301.25281339 0 422.77424527 0 -185.11096795 0 13668
0.11350000 0.11349100 14449.05682430 0 -108.81074222 0 6063.97883708 0 1021.68889840 0 614.71406318 0 13791
0.11450000 0.11448600 14157.91290441 0 58.07040169 0 4759.36570485 0 1062.74185478 0 611.19815375 0 14205
0.11550000 0.11549300 14028.81137193 0 176.25131982 0 4836.60480039 0 656.53009391 0 1284.98171363 0 14776
0.11650000 0.11649800 13955.49856010 0 -84.25749406 0 3631.37988401 0 194.74367250 0 921.46995189 0 14553
0.11750000 0.11747300 14032.02781904 0 -31.46051288 0 3527.86574290 0 688.71009274 0 1387.88583892 0 14568
0.11850000 0.11849100 13740.88389915 0 77.47533804 0 2982.60031853 0 -355.45289804 0 436.39534424 0 16015
0.11950000 0.11950300 13884.51489963 0 157.09793181 0 3664.68674845 0 -407.96749735 0 363.53505325 0 15270
0.12050000 0.12050700 13395.61493815 0 265.33470459 0 3263.27414850 0 -768.98817625 0 -387.94788685 0 15999
0.12150000 0.12150000 13486.67366510 0 288.93898994 0 4183.73258323 0 -549.25492791 0 -660.40868549 0 15670
0.12250000 0.12250700 13212.16654063 0 -39.23022908 0 4268.30295996 0 398.45790508 0 -1214.36406266 0 16887
0.12350000 0.12352200 13332.83876343 0 -44.18766138 0 4251.71052933 0 253.96844596 0 -949.28667384 0 16407
0.12450000 0.12449800 13366.00144230 0 -108.93751460 0 3640.10865601 0 490.36954507 0 -338.34694498 0 16306
0.12550000 0.12549900 13427.77940930 0 60.93536877 0 3700.02330193 0 501.02374886 0 -719.39167086 0 17523
0.12650000 0.12650100 13471.81146119 0 -15.56649492 0 3435.90862900 0 376.98534779 0 455.16054036 0 17154
0.12750000 0.12750600 13157.59785165 0 77.45792486 0 3230.66602947 0 396.47590819 0 362.58231943 0 18007
0.12850000 0.12850300 13461.71847197 0 66.27467098 0 2813.03809958 0 115.62683730 0 1162.45726095 0 17496
0.12950000 0.12949900 13120.10960596 0 -46.93162350 0 2841.63120532 0 390.41013258 0 670.28650549 0 18405
0.13050000 0.13049000 13222.14861788 0 271.21303897 0 2903.07643641 0 -169.82951679 0 992.42255701 0 18100
0.13150000 0.13148800 12845.71339346 0 346.01096207 0 3100.75483962 0 -780.43761886 0 984.70862953 0 19059
0.13250000 0.13249300 12616.23652860 0 224.53684574 0 3412.58384182 0 -180.92515022 0 325.11071054 0 18957
0.13350000 0.13349100 12222.72086088 0 197.23697357 0 3841.36951584 0 -211.76422333 0 370.36501233 0 19468
0.13450000 0.13450700 12288.71348272 0 28.29929993 0 3846.01672736 0 119.38120747 0 1.40324715 0 19953
0.13550000 0.13551000 12015.64821386 0 51.00320190 0 4016.07805016 0 358.38541051 0 -90.10155665 0 19956
0.13650000 0.13649900 12109.47974004 0 217.79894359 0 3848.95589455 0 -433.18777009 0 -407.40073718 0 19723
0.13750000 0.13749600 11717.62775186 0 247.57326180 0 3785.63625117 0 -129.87569802 0 -541.90700993 0 20946
0.13850000 0.13851100 11210.98187526 0 510.77623834 0 4724.22879291 0 -528.38462261 0 -442.31471606 0 20955
0.13950000 0.13949800 10971.64493632 0 269.72238211 0 4637.05198490 0 -281.49790590 0 -91.52788458 0 20506
0.14050000 0.14048300 10837.60782120 0 -277.80010084 0 4319.96575535 0 1435.01233475 0 326.19986609 0 21447
0.14150000 0.14148400 10926.35957918 0 -242.31381621 0 3724.00246973 0 744.66629046 0 39.52381306 0 21771
0.14250000 0.14249400 11124.47053907 0 18.77795099 0 2897.66393230 0 391.35288432 0 205.11837812 0 22470
0.14350000 0.14350900 11026.37999326 0 183.18442704 0 2836.92853781 0 303.90323286 0 608.54957592 0 22519
0.14450000 0.14449900 10681.55468014 0 202.30343234 0 2844.83656123 0 -438.41726945 0 359.12741158 0 22218
0.14550000 0.14550500 10719.64185046 0 125.48136579 0 2838.65876453 0 -252.54322715 0 117.86060437 0 23559
0.14650000 0.14650700 10272.44478950 0 238.51729949 0 3133.15222590 0 47.09621687 0 -396.78867994 0 23044
0.14750000 0.14750500 10144.87384221 0 200.60093360 0 2973.59426661 0 -157.09349534 0 303.27990759 0 23649
0.14850000 0.14849900 9950.60043646 0 -6.31363059 0 2695.26067919 0 446.01473936 0 50.91613601 0 23640
0.14950000 0.14949500 9977.48549786 0 -73.38900835 0 2653.34704592 0 667.75993082 0 479.21180094 0 24457
0.15050000 0.15050000 10033.48495126 0 -1.57415140 0 2148.15411613 0 562.90597311 0 576.08564245 0 24591
0.15150000 0.15149900 9765.03362032 0 240.00462900 0 2369.22385370 0 -172.12983104 0 1219.41055728 0 25020
0.15250000 0.15250500 9714.62413019 0 151.81741295 0 2179.36474434 0 -82.52127809 0 1119.85597347 0 25297
0.15350000 0.15350100 9499.42163580 0 81.83484391 0 2642.97677678 0 -197.93571898 0 1195.02101519 0 25452
0.15450000 0.15450400 9554.36742549 0 29.63423639 0 2722.12355820 0 -178.09911324 0 1026.68437350 0 26061
0.15550000 0.15549900 9428.68198167 0 85.02023568 0 2657.94989266 0 -117.35151843 0 747.00320566 0 26128
0.15650000 0.15649500 9545.82720384 0 -70.61454543 0 2485.90324560 0 335.68173036 0 827.36114579 0 26331
0.15750000 0.15749700 9554.73343499 0 -55.22340234 0 2349.70334707 0 314.36666806 0 406.56224269 0 27345
0.15850000 0.15849900 9543.54241726 0 148.31259471 0 2330.58212353 0 -17.65785101 0 801.07389990 0 26980
0.15950000 0.15949700 9433.28482840 0 202.70937014 0 2424.99039196 0 -173.65487062 0 597.31419341 0 27777
0.16050000 0.16050000 9093.55037468 0 176.13486226 0 2663.50658233 0 -156.99811104 0 786.83391214 0 28224
0.16150000 0.16150500 9002.81329245 0 67.33521123 0 2457.97561168 0 141.95844798 0 652.70474009 0 28075
0.16250000 0.16249700 8981.90638620 0 11.92481131 0 2576.66251022 0 236.02732578 0 535.48298866 0 28590
0.16350000 0.16349900 8945.54944260 0 12.82696927 0 2292.52822680 0 83.75938841 0 986.90246829 0 29163
0.16450000 0.16449100 8881.13177073 0 42.58709075 0 2300.69134776 0 88.03160656 0 331.21197799 0 28996
0.16550000 0.16550500 8953.11363892 0 6.77067663 0 2256.42638074 0 -69.82995416 0 388.82963701 0 30777
0.16650000 0.16650700 8961.76477254 0 82.69130614 0 2172.42165505 0 -323.13315013 0 -154.91185690 0 29211
0.16750000 0.16749900 8897.29164468 0 54.68326105 0 2202.37897801 0 -52.36497906 0 261.64466337 0 30922
0.16850000 0.16850800 8761.53539404 0 88.62531833 0 2466.67111009 0 -17.87845492 0 -151.11201282 0 30867
0.16950000 0.16949900 8760.39300075 0 91.58544789 0 2376.25567257 0 -69.43344387 0 -364.62309967 0 30852
0.17050000 0.17049200 8627.77555884 0 158.95570730 0 2765.66759742 0 -217.70355930 0 -511.47165639 0 31257
0.17150000 0.17149500 8525.61454375 0 176.84248062 0 2721.67991032 0 -163.98889248 0 -647.72701090 0 32608
0.17250000 0.17250900 8196.40563593 0 156.36813105 0 3078.05115946 0 -297.27180620 0 -599.36495572 0 32361
0.17350000 0.17350400 8174.63361632 0 157.01474784 0 3327.45890524 0 69.30057133 0 -685.03668831 0 32508
0.17450000 0.17449800 7941.40792690 0 50.86156732 0 3158.31815178 0 284.95835935 0 -357.70330190 0 32791
0.17550000 0.17549800 8121.90606603 0 -86.75345703 0 2889.26789621 0 593.25814268 0 -237.70098740 0 33633
0.17650000 0.17650100 8004.37265197 0 -37.20763840 0 2462.30117849 0 423.03599752 0 264.12465501 0 33984
0.17750000 0.17750300 8168.93274109 0 27.54077297 0 2309.96358841 0 303.14237675 0 617.09201581 0 34069
0.17850000 0.17849800 7932.66806370 0 58.96790134 0 1946.84889152 0 192.24371670 0 462.81901185 0 34536
