### header ###
fiducial parameters:
Omega_m = 0.31
Omega_nu = 0
Omega_de = 0.69
Omega_k = 0
H_0 = 100
w_de = -1
zeff = 0
beta = 0
fgrowth = 0
b_1 = 2
gamma = 0.55
Lx = 3500 Ly = 3500 Lz = 3500
nx = 700 ny = 700 nz = 700
xoffset = 1379.75464 yoffset = 22.6059522 zoffset = 368.141391
bins = 400 dk = 0.001
kx_ny = 0.628318531 ky_ny = 0.628318531 kz_ny = 0.628318531
############################
A(data) = 3.29357558 (not used)
A(ran) = 3.29093887 (used)
Ngal = 185657
weighted Ngal = 0
Nran = 9399747
weighted Nran = 0
SN(data) = 6669.52442
SN(ran) = 130.898354
SN(data+ran) = 6800.42277
############################
13 columns: k_central k_mean P_0(k) sigma^{lin}_{P_0(k)} P^img_1(k) sigma^{lin}_{P_1(k)} P_2(k) sigma^{lin}_{P_2(k)} P^img_3(k) sigma^{lin}_{P_3(k)} P_4(k) sigma^{lin}_{P_4(k)} N_modes
### header ###
0.00050000 0 0 0 0 0 0 0 0 0 0 0 0
0.00150000 0.00179520 17742.80958201 0 -21885.48255414 0 -34782.54818947 0 37722.26994060 0 -10639.82959722 0 3
0.00250000 0.00253879 26471.13793238 0 -15817.71052771 0 2154.06572410 0 -50951.18418862 0 -20335.37686866 0 6
0.00350000 0.00331552 44398.83776752 0 -14167.45133378 0 -56074.20805901 0 28942.14570048 0 35592.98195048 0 7
0.00450000 0.00420575 54343.87042311 0 -12255.88353976 0 -31446.20523548 0 -9370.80811599 0 -119.41004458 0 24
0.00550000 0.00557378 67827.21672913 0 -1038.25471016 0 -46597.44573857 0 -17028.86923445 0 7941.89593956 0 45
0.00650000 0.00659388 59479.76008196 0 -3978.09070062 0 -8858.03989868 0 4216.08560473 0 -9582.57233933 0 40
0.00750000 0.00754703 58274.25788566 0 2941.64052820 0 -31325.42210071 0 -12674.57622455 0 -963.51113393 0 57
0.00850000 0.00846663 61521.53852816 0 -7678.50219444 0 -39495.19777277 0 617.17852714 0 3128.74902071 0 75
0.00950000 0.00948925 61440.35096650 0 -6532.58190814 0 -38656.25963561 0 -3349.29747203 0 36.42049615 0 112
0.01050000 0.01054430 68108.04583586 0 -4490.09362534 0 -39330.49349809 0 -11224.62404751 0 -19086.95174017 0 105
0.01150000 0.01145670 71329.81672538 0 -985.10791262 0 -46971.88454754 0 -14117.98459539 0 -16535.64370617 0 144
0.01250000 0.01249090 71095.79246977 0 2435.69339701 0 -23309.25950638 0 -32032.59681813 0 -28653.55275589 0 169
0.01350000 0.01339930 68589.18195947 0 5006.63284961 0 -20130.63337299 0 -28555.95022274 0 -33061.08351114 0 180
0.01450000 0.01448870 58771.03259697 0 3092.49189789 0 -6208.92968999 0 -18810.78093615 0 -39590.91480244 0 267
0.01550000 0.01550050 62968.71790596 0 2891.49722680 0 16968.75494699 0 -24904.50636345 0 -44344.49090248 0 238
0.01650000 0.01653350 60987.38648313 0 1184.62856365 0 13303.66891545 0 3832.37455511 0 -42331.43865637 0 315
0.01750000 0.01747870 72084.35085377 0 -6436.06631230 0 18246.57174740 0 821.55601331 0 -33766.70546099 0 297
0.01850000 0.01844180 66376.26634436 0 -2422.08449836 0 9391.69283985 0 2237.77098747 0 -31900.72248642 0 388
0.01950000 0.01947590 82932.53967685 0 -5347.22132550 0 11175.93369291 0 7074.15396392 0 -25580.73664138 0 399
0.02050000 0.02045430 85010.58633707 0 -3778.70425308 0 10317.96306178 0 -2767.33127696 0 -29416.18345805 0 462
0.02150000 0.02154770 85702.23337876 0 3784.62695225 0 13767.05912395 0 -9542.40002398 0 -14094.02760998 0 571
0.02250000 0.02255340 81140.97863381 0 5651.24212504 0 25345.71417805 0 -6832.12186412 0 -21924.74539134 0 510
0.02350000 0.02348930 76796.44587722 0 3075.89946726 0 30241.70124690 0 1524.09682864 0 2505.88958250 0 555
0.02450000 0.02439640 71004.84465480 0 2500.46598719 0 32768.05408777 0 8211.27893104 0 -9232.96672032 0 592
0.02550000 0.02547300 70553.65476294 0 1532.04921685 0 27268.70590493 0 8781.72137248 0 8970.39372377 0 837
0.02650000 0.02652900 68026.52553829 0 1018.71313026 0 27319.17085104 0 9472.13729131 0 2625.14213208 0 723
0.02750000 0.02749970 64077.50486487 0 3209.30438415 0 32797.00211180 0 -6216.47170392 0 22036.21192067 0 826
0.02850000 0.02848090 61850.50342964 0 4520.32822822 0 24454.20376735 0 3209.28220176 0 8779.31458274 0 831
0.02950000 0.02946900 58128.51955776 0 1462.39650002 0 30980.59678759 0 2460.83714049 0 16715.21018476 0 996
0.03050000 0.03053250 55638.87857879 0 2036.19957413 0 24539.49507188 0 819.76811236 0 9490.81486697 0 1041
0.03150000 0.03150510 53494.39564885 0 447.07949426 0 30432.58074638 0 9249.04895590 0 12198.20931562 0 1036
0.03250000 0.03246190 51640.72390289 0 1666.15287915 0 22012.36584723 0 399.66351819 0 11908.17451543 0 1059
0.03350000 0.03345080 50442.43098461 0 323.61118072 0 17330.99343932 0 6747.83985851 0 12690.65846013 0 1302
0.03450000 0.03451200 49627.89348073 0 -85.94224688 0 15031.89922393 0 7303.97465589 0 16229.74849433 0 1339
0.03550000 0.03553350 49482.93153662 0 -986.92021421 0 12427.68618048 0 5961.89546037 0 18422.69995494 0 1365
0.03650000 0.03647120 50384.86767245 0 -2329.67264538 0 2607.07457226 0 9551.11770478 0 23606.61449657 0 1308
0.03750000 0.03744890 51298.89321295 0 90.77490322 0 609.93597553 0 2935.69564663 0 16048.18560029 0 1579
0.03850000 0.03847530 51095.03701304 0 1317.05745521 0 508.56909015 0 -4349.01360016 0 14631.83975000 0 1662
0.03950000 0.03950240 47530.21540191 0 3000.09113612 0 4505.31074755 0 -7356.61347660 0 10610.79284361 0 1683
0.04050000 0.04050350 44949.95934388 0 3542.65030843 0 13688.75527350 0 -6086.66033484 0 9465.99276820 0 1822
0.04150000 0.04152450 41476.86193151 0 715.75154002 0 13692.63719243 0 -2443.92306515 0 6327.92714205 0 1887
0.04250000 0.04250150 41276.11126675 0 992.56119697 0 17495.14315416 0 1420.94869702 0 365.04456516 0 1920
0.04350000 0.04349210 41010.14436393 0 639.84227899 0 18509.21129113 0 -803.67700383 0 3121.30682756 0 2005
0.04450000 0.04448520 39671.65871622 0 725.93769530 0 19054.78726902 0 1324.05600048 0 507.44777013 0 2151
0.04550000 0.04548030 39673.54421970 0 1004.24577296 0 18741.01730735 0 -1640.69858216 0 4399.99983253 0 2274
0.04650000 0.04648670 37354.92949767 0 1029.32407838 0 18967.94319691 0 -192.40786642 0 -58.85332928 0 2311
0.04750000 0.04749250 38928.88125660 0 226.25043567 0 18512.31682628 0 969.35064912 0 1537.10680266 0 2568
0.04850000 0.04851840 37781.71875624 0 -1173.12699241 0 19318.75775638 0 2937.74751807 0 -407.90427752 0 2493
0.04950000 0.04949480 39535.90246557 0 -186.57611506 0 13316.86743982 0 2232.61358089 0 -2563.65253620 0 2644
0.05050000 0.05050630 39348.90488503 0 -486.54419125 0 16252.92909596 0 871.01831522 0 -1661.92713312 0 2829
0.05150000 0.05149060 38669.90180786 0 1200.63316084 0 10342.23060070 0 -672.57461942 0 -3085.59317339 0 2784
0.05250000 0.05249300 38041.47458877 0 273.31149344 0 14623.41044032 0 24.54770256 0 -1977.30531834 0 3055
0.05350000 0.05348950 37282.61489357 0 643.87171084 0 12734.24686413 0 -244.95906668 0 -8847.68072073 0 3009
0.05450000 0.05448610 36513.66220915 0 1131.67918941 0 11016.24263925 0 -286.62758449 0 -6858.92928714 0 3336
0.05550000 0.05550870 34105.54152775 0 1428.86781164 0 13539.57867454 0 -2068.78551077 0 -8930.21031722 0 3349
0.05650000 0.05647670 32959.82088300 0 898.78512678 0 10528.31870310 0 558.64029877 0 -8142.96824904 0 3324
0.05750000 0.05747970 32189.86999086 0 -35.45722570 0 10397.56458228 0 3538.00309691 0 -10699.17859209 0 3639
0.05850000 0.05849280 31437.55410186 0 209.06684423 0 9778.55378940 0 1316.85781366 0 -10087.52126279 0 3846
0.05950000 0.05951020 31265.86237310 0 440.90613404 0 5681.32145117 0 1803.66153892 0 -6241.84836254 0 3787
0.06050000 0.06049470 29936.13877098 0 39.10301305 0 6163.06759061 0 1224.94506455 0 -7001.80608623 0 3930
0.06150000 0.06148310 29621.03786568 0 860.38962118 0 3870.84991732 0 610.51049954 0 -2811.67388236 0 4083
0.06250000 0.06249100 28820.14253405 0 -77.11820150 0 3380.69665059 0 2565.19421258 0 -3059.80614048 0 4303
0.06350000 0.06350600 29033.75898727 0 -144.24767103 0 1844.56587326 0 2004.54529804 0 274.20100743 0 4470
0.06450000 0.06451750 28926.95076066 0 -179.38791032 0 1171.92914314 0 276.79302016 0 -2356.81280432 0 4479
0.06550000 0.06550280 28654.55096361 0 468.50214117 0 2786.79632760 0 -1037.41510655 0 -91.46045010 0 4636
0.06650000 0.06648880 28017.80534681 0 745.58242333 0 2995.92084606 0 -1781.80078973 0 -744.56979705 0 4653
0.06750000 0.06749660 27724.55409950 0 179.49327669 0 3935.40068356 0 -947.30689519 0 -131.24435173 0 5220
0.06850000 0.06852730 28292.97794310 0 -624.30573030 0 2971.02110891 0 1255.47912975 0 -1536.76297555 0 5029
0.06950000 0.06949320 28855.19071640 0 -377.84602467 0 3964.52616675 0 54.82045916 0 -1826.07684795 0 5040
0.07050000 0.07048030 28143.24678430 0 850.08035362 0 3906.00901165 0 -873.95970065 0 -2209.59934722 0 5475
0.07150000 0.07148790 27880.60724056 0 819.35551983 0 4642.81940731 0 -893.58890101 0 -1442.11070080 0 5509
0.07250000 0.07249820 26170.89923100 0 1102.75889337 0 5636.60174507 0 -913.52754576 0 -2651.05116816 0 5916
0.07350000 0.07351270 25379.20959283 0 943.36286555 0 7061.99801207 0 -734.40360593 0 -1932.17523796 0 5721
0.07450000 0.07449140 24160.95252004 0 592.96533508 0 7309.12097127 0 208.38140826 0 -1182.53232742 0 6028
0.07550000 0.07549160 23373.58844868 0 402.29989571 0 7678.16945853 0 750.46254999 0 -919.63435880 0 6183
0.07650000 0.07648840 23232.39751153 0 -117.83620374 0 5458.56585166 0 1762.28028310 0 188.29525059 0 6330
0.07750000 0.07749960 23635.22978469 0 -162.19544593 0 6208.55258930 0 806.07048413 0 142.79694247 0 6583
0.07850000 0.07848650 23070.46603609 0 392.46311313 0 5352.85565355 0 -60.73805638 0 -676.85582144 0 6549
0.07950000 0.07947320 23055.27109627 0 402.11245448 0 5062.24411111 0 -746.41980870 0 122.18062558 0 6828
0.08050000 0.08048110 22164.98071724 0 517.08602028 0 6687.18210240 0 -939.38445321 0 -1128.00800323 0 7147
0.08150000 0.08149960 21175.97868536 0 335.86806246 0 6680.29446910 0 -51.71082027 0 -611.84809789 0 7386
0.08250000 0.08250610 21478.32471417 0 162.44721610 0 6993.79824203 0 652.47404319 0 -1353.24803085 0 7227
0.08350000 0.08350160 21155.23814707 0 -68.61413715 0 5764.22814835 0 681.86793334 0 -1740.88536419 0 7798
0.08450000 0.08449610 21191.61727306 0 124.34895458 0 5738.37456827 0 226.25154479 0 170.07019576 0 7371
0.08550000 0.08548940 20556.20259990 0 34.58279573 0 4292.41522213 0 588.38134339 0 -2042.56592118 0 8256
0.08650000 0.08650700 20885.61114926 0 369.56533703 0 4924.69108656 0 17.32023498 0 -612.80526818 0 8037
0.08750000 0.08749060 19810.98507695 0 520.94464770 0 4699.09614063 0 13.47025869 0 -1784.00793792 0 8155
0.08850000 0.08849210 19907.25666646 0 323.16753284 0 4401.00913145 0 -15.65966097 0 241.69049094 0 8718
0.08950000 0.08949900 18966.94498919 0 175.11779950 0 4856.00330386 0 476.44565642 0 -560.22079433 0 8571
0.09050000 0.09049190 19217.49512825 0 -176.27904782 0 4215.88596319 0 1211.14761555 0 303.53500512 0 8932
0.09150000 0.09150830 18739.90818766 0 448.32503568 0 4509.95795907 0 -251.14462722 0 59.79231001 0 9285
0.09250000 0.09250820 18730.70249419 0 688.11449546 0 4456.57602816 0 -883.04450007 0 -573.52135771 0 9204
0.09350000 0.09350330 17701.43941739 0 297.97831545 0 5613.21041071 0 -881.08468557 0 219.47593257 0 9349
0.09450000 0.09448040 17346.18837914 0 312.71407972 0 5986.30718485 0 -496.44863012 0 -1796.54099048 0 9564
0.09550000 0.09549270 17487.82296417 0 106.10460108 0 6573.98534635 0 -525.75711806 0 -1051.82700787 0 10155
0.09650000 0.09649430 17363.60155835 0 -78.29298108 0 6350.32026869 0 136.70565711 0 -3411.75200205 0 9913
0.09750000 0.09749140 17224.07430074 0 247.23054381 0 6482.49406272 0 -25.85724018 0 -2129.44326688 0 10476
0.09850000 0.09850240 17200.78278715 0 220.18909653 0 6072.69651788 0 -531.25058790 0 -4173.47322606 0 10575
0.09950000 0.09950330 16710.55188204 0 201.30078813 0 6708.19992062 0 428.69583532 0 -2586.47821952 0 10882
0.10050000 0.10051200 16471.31476387 0 180.96840589 0 6278.40494768 0 120.60789385 0 -3057.36607716 0 10875
0.10150000 0.10150300 16225.75566343 0 -79.68836457 0 5580.23628218 0 902.73470201 0 -3656.10216201 0 11118
0.10250000 0.10250800 16541.74386449 0 57.06398647 0 5359.66564847 0 687.97696462 0 -2446.41858446 0 11575
0.10350000 0.10349800 16022.23219943 0 202.04168009 0 4629.52106217 0 -4.21588596 0 -2954.77250539 0 11364
0.10450000 0.10450100 15725.76450501 0 406.07755739 0 4813.16910124 0 85.71820470 0 -2396.37510383 0 12093
0.10550000 0.10551000 15667.20298512 0 62.54991431 0 4872.19645140 0 346.56330368 0 -1762.90139013 0 12067
0.10650000 0.10649700 15285.22216222 0 -243.23105819 0 4118.91562827 0 890.84937536 0 -1124.49209379 0 12054
0.10750000 0.10749900 15660.10461907 0 294.33374813 0 4932.04455013 0 207.69153581 0 -976.02311320 0 12807
0.10850000 0.10850100 15331.69427744 0 147.73696159 0 3861.73295343 0 1.42125925 0 -733.39319788 0 12736
0.10950000 0.10950300 15216.45674114 0 110.42273678 0 4677.52376256 0 608.30889694 0 840.08274869 0 12933
0.11050000 0.11050200 14994.85462612 0 26.61898359 0 4426.28596929 0 172.83301292 0 498.16332917 0 13428
0.11150000 0.11150900 15025.57724167 0 154.65232289 0 4400.29929484 0 91.90010515 0 934.03295068 0 13453
0.11250000 0.11250000 14831.03764719 0 322.98009161 0 4861.58217592 0 -63.80399595 0 456.94511395 0 13668
0.11350000 0.11349100 14393.04627971 0 231.91470995 0 5021.83888063 0 -282.85768665 0 1824.47971559 0 13791
0.11450000 0.11448600 14022.04574179 0 199.23117078 0 4933.97441840 0 389.11800813 0 679.92919212 0 14205
0.11550000 0.11549300 14291.45091566 0 -77.16079170 0 4296.31932345 0 311.53508548 0 1211.50253385 0 14776
0.11650000 0.11649800 14072.51068790 0 -122.34033882 0 4634.96683987 0 558.21217857 0 864.52220116 0 14553
0.11750000 0.11747300 14193.73747055 0 125.04548175 0 4088.85848454 0 -173.60496023 0 624.29796646 0 14568
0.11850000 0.11849100 14230.00568457 0 -27.44405773 0 3854.49040182 0 -64.91433567 0 784.18866167 0 16015
0.11950000 0.11950300 13965.81337326 0 207.85790377 0 3758.62918660 0 -137.33120061 0 21.45603141 0 15270
0.12050000 0.12050700 14038.46071327 0 303.43185699 0 4723.97369538 0 -244.26586687 0 553.91212151 0 15999
0.12150000 0.12150000 13596.92016277 0 72.20513399 0 5065.80438533 0 -229.44026391 0 810.32950376 0 15670
0.12250000 0.12250700 13423.78657840 0 302.45804990 0 5506.16926896 0 282.57375201 0 1785.09487523 0 16887
0.12350000 0.12352200 13634.29749648 0 -3.86876477 0 5181.78503182 0 310.42042019 0 1142.21582652 0 16407
0.12450000 0.12449800 13565.42116343 0 -92.59141945 0 5395.21293469 0 263.77528230 0 2294.94610774 0 16306
0.12550000 0.12549900 13480.90624269 0 165.01926467 0 5831.54062263 0 232.64561983 0 2499.05740518 0 17523
0.12650000 0.12650100 13353.46838975 0 283.89360445 0 5233.45891840 0 -499.26690327 0 2341.04112226 0 17154
0.12750000 0.12750600 13045.24402656 0 151.46138552 0 5873.05497281 0 117.00769132 0 1951.03027277 0 18007
0.12850000 0.12850300 12988.56801016 0 2.07104811 0 5317.20854655 0 426.38332076 0 1990.80330502 0 17496
0.12950000 0.12949900 12783.15904267 0 43.06367948 0 4824.73721966 0 481.96685427 0 1982.95073758 0 18405
0.13050000 0.13049000 12759.86752908 0 111.17372173 0 4383.58486104 0 783.09285141 0 1353.11493649 0 18100
0.13150000 0.13148800 12549.13478707 0 124.60627035 0 3595.36676752 0 148.44014348 0 1500.52803513 0 19059
0.13250000 0.13249300 12153.17905601 0 234.35033680 0 3974.57479118 0 -4.06145214 0 1310.84638492 0 18957
0.13350000 0.13349100 11794.93339459 0 299.77952583 0 3703.31738742 0 -436.70257040 0 1100.11918850 0 19468
0.13450000 0.13450700 11402.30502262 0 301.08163236 0 3942.16631370 0 -141.03011480 0 465.06276100 0 19953
0.13550000 0.13551000 11300.04418676 0 -30.20321479 0 4059.47790382 0 197.21811853 0 764.93656201 0 19956
0.13650000 0.13649900 11136.22720783 0 39.88083869 0 3705.76854195 0 484.97145952 0 958.12857605 0 19723
0.13750000 0.13749600 11437.68594089 0 -123.13225028 0 3413.99242383 0 649.79995561 0 1003.83318043 0 20946
0.13850000 0.13851100 11491.36733411 0 -32.09692576 0 3211.47825875 0 209.83879154 0 1279.59139192 0 20955
0.13950000 0.13949800 11257.78672638 0 277.31874289 0 3298.67724916 0 -181.61502267 0 1339.47276424 0 20506
0.14050000 0.14048300 11144.54560554 0 121.39980532 0 3379.80935483 0 -236.65730576 0 1741.18482651 0 21447
0.14150000 0.14148400 10979.75260129 0 89.53901114 0 3988.53860814 0 -166.48552091 0 1065.58231032 0 21771
0.14250000 0.14249400 11063.92369493 0 80.81567383 0 3150.48776673 0 220.47857677 0 1030.44650751 0 22470
0.14350000 0.14350900 10788.44054513 0 -70.81596157 0 3382.97034597 0 262.98447996 0 1219.51037805 0 22519
0.14450000 0.14449900 11008.03515350 0 -74.78539005 0 2797.69897420 0 420.04802906 0 1103.91570521 0 22218
0.14550000 0.14550500 11045.75631433 0 92.38057580 0 2788.95911101 0 401.40150875 0 865.49600826 0 23559
0.14650000 0.14650700 10703.70380044 0 208.20283999 0 2148.44248725 0 -376.65815748 0 396.23966569 0 23044
0.14750000 0.14750500 10436.64996032 0 218.19711756 0 2440.97280676 0 87.28372715 0 965.60737015 0 23649
0.14850000 0.14849900 10253.95576419 0 68.98491587 0 2448.00462562 0 335.86584423 0 488.01488396 0 23640
0.14950000 0.14949500 10069.38715578 0 140.59201252 0 1958.96047859 0 231.25145637 0 763.11095099 0 24457
0.15050000 0.15050000 10013.25460802 0 83.81240433 0 2205.16286844 0 150.70496589 0 494.64741974 0 24591
0.15150000 0.15149900 9647.55566224 0 231.46107999 0 1659.42052261 0 -284.80530083 0 566.47068381 0 25020
0.15250000 0.15250500 9504.94505188 0 185.72874762 0 2185.32071710 0 -200.21828731 0 388.44588160 0 25297
0.15350000 0.15350100 9170.87819980 0 153.14613834 0 2088.99367161 0 -213.65305417 0 -152.20227748 0 25452
0.15450000 0.15450400 9318.11383929 0 95.39882322 0 2073.93182615 0 50.45906778 0 -222.42286360 0 26061
0.15550000 0.15549900 8967.43237418 0 94.25188255 0 2439.18712405 0 -208.65092435 0 -699.42640723 0 26128
0.15650000 0.15649500 8902.42686887 0 260.54774399 0 2442.51448313 0 -232.06333199 0 -373.25870562 0 26331
0.15750000 0.15749700 8611.27185778 0 159.07216487 0 2381.16907281 0 14.57105999 0 -833.15296884 0 27345
0.15850000 0.15849900 8541.46386419 0 96.22722472 0 2768.31839349 0 28.40444447 0 -145.83482131 0 26980
0.15950000 0.15949700 8291.25755223 0 50.95184966 0 2641.98966025 0 223.16264644 0 -298.94990430 0 27777
0.16050000 0.16050000 8364.17108097 0 88.13253645 0 2653.62432585 0 -6.38306148 0 -285.97542211 0 28224
0.16150000 0.16150500 8405.10868891 0 -87.12556668 0 2364.24390627 0 202.53191099 0 -355.64588486 0 28075
0.16250000 0.16249700 8448.41981299 0 -117.42915681 0 2539.55136523 0 246.77913210 0 -4.78912339 0 28590
0.16350000 0.16349900 8589.32237902 0 -109.68838863 0 1901.23079847 0 292.88301957 0 82.44907440 0 29163
0.16450000 0.16449100 8774.03517300 0 39.04201147 0 1777.65268207 0 115.22089950 0 -183.72456833 0 28996
0.16550000 0.16550500 8723.80314202 0 120.87075522 0 1814.37563517 0 38.15127744 0 -339.31964296 0 30777
0.16650000 0.16650700 8369.33957875 0 257.21040283 0 1799.40251929 0 -232.35724871 0 -191.07470455 0 29211
0.16750000 0.16749900 8139.78507551 0 157.88984328 0 1896.37285421 0 -80.44145684 0 101.04668253 0 30922
0.16850000 0.16850800 8013.48961586 0 50.83040105 0 2265.24388231 0 182.27494889 0 -101.69485208 0 30867
0.16950000 0.16949900 8037.18041254 0 -3.78975109 0 1714.18885314 0 263.67657065 0 152.90324113 0 30852
0.17050000 0.17049200 8032.66629539 0 -69.27195604 0 1696.48730281 0 375.55347427 0 283.64737987 0 31257
0.17150000 0.17149500 8168.60000518 0 -60.02267417 0 1280.98888273 0 214.20095930 0 337.40086588 0 32608
0.17250000 0.17250900 8238.77400828 0 43.75144460 0 1307.43029626 0 13.17922569 0 570.51786158 0 32361
0.17350000 0.17350400 8130.79011479 0 177.99263774 0 1227.40731028 0 -177.59224553 0 246.72478523 0 32508
0.17450000 0.17449800 7919.21444180 0 151.98045354 0 1790.24119061 0 -327.32118610 0 411.47120646 0 32791
0.17550000 0.17549800 7664.19455037 0 344.67780020 0 1895.80720316 0 -375.03773361 0 -39.36509803 0 33633
0.17650000 0.17650100 7492.36972725 0 161.93591192 0 2544.79750139 0 -296.40447460 0 417.60352926 0 33984
0.17750000 0.17750300 7177.59046666 0 95.22458052 0 2501.17582379 0 -34.97830782 0 -290.60156036 0 34069
0.17850000 0.17849800 7294.97969516 0 -26.41912022 0 2342.72698419 0 126.38418922 0 -100.91336635 0 34536
