### header ###
fiducial parameters:
Omega_m = 0.31
Omega_nu = 0
Omega_de = 0.69
Omega_k = 0
H_0 = 100
w_de = -1
zeff = 0
beta = 0
fgrowth = 0
b_1 = 2
gamma = 0.55
Lx = 3500 Ly = 3500 Lz = 3500
nx = 700 ny = 700 nz = 700
xoffset = 1379.75464 yoffset = 22.6059522 zoffset = 368.141391
bins = 400 dk = 0.001
kx_ny = 0.628318531 ky_ny = 0.628318531 kz_ny = 0.628318531
############################
A(data) = 3.3386366 (not used)
A(ran) = 3.34216024 (used)
Ngal = 187694
weighted Ngal = 0
Nran = 9399747
weighted Nran = 0
SN(data) = 6617.59196
SN(ran) = 132.935703
SN(data+ran) = 6750.52766
############################
13 columns: k_central k_mean P_0(k) sigma^{lin}_{P_0(k)} P^img_1(k) sigma^{lin}_{P_1(k)} P_2(k) sigma^{lin}_{P_2(k)} P^img_3(k) sigma^{lin}_{P_3(k)} P_4(k) sigma^{lin}_{P_4(k)} N_modes
### header ###
0.00050000 0 0 0 0 0 0 0 0 0 0 0 0
0.00150000 0.00179520 19846.58781915 0 -37146.63681899 0 -46954.58228030 0 40791.86960799 0 17606.05512364 0 3
0.00250000 0.00253879 34377.49767692 0 -44377.09902150 0 -29382.57713129 0 -40534.11019091 0 -15007.94223852 0 6
0.00350000 0.00331552 56512.53216240 0 -22886.68490266 0 -57826.06261698 0 -8485.09840130 0 -41689.81291292 0 7
0.00450000 0.00420575 104141.23739321 0 -37318.43945972 0 -89898.80956806 0 -19126.65822524 0 20044.67659664 0 24
0.00550000 0.00557378 160155.77481264 0 -49832.41515246 0 -138803.00244792 0 -8741.23850362 0 5083.68339481 0 45
0.00650000 0.00659388 210320.14948976 0 -34470.99646720 0 -141990.61245084 0 -42376.80165189 0 -80214.53095272 0 40
0.00750000 0.00754703 197463.23398738 0 11183.03205895 0 -121875.61766554 0 -109717.55848287 0 -25655.60222078 0 57
0.00850000 0.00846663 158652.91762616 0 60830.00239844 0 -38860.67039537 0 -126409.69897798 0 -48321.90504008 0 75
0.00950000 0.00948925 122338.12057828 0 15769.35290901 0 3708.92953308 0 -17330.77161538 0 -25717.04745187 0 112
0.01050000 0.01054430 99830.53278732 0 5058.12927704 0 -3595.99896575 0 7281.86990037 0 -44993.76957182 0 105
0.01150000 0.01145670 99238.70651816 0 -344.62234422 0 16029.33056548 0 11273.53622605 0 -37267.75268966 0 144
0.01250000 0.01249090 104222.20313094 0 -3427.61241368 0 -20005.19193551 0 515.58759957 0 -31097.27617949 0 169
0.01350000 0.01339930 96083.92645821 0 138.82074836 0 -4622.84416161 0 -12222.38812497 0 -26425.33128899 0 180
0.01450000 0.01448870 95077.17851122 0 6775.07983822 0 -7927.81011944 0 -13973.68812310 0 -27857.53755091 0 267
0.01550000 0.01550050 88037.26307227 0 10628.31693479 0 14107.44795829 0 -17911.06303972 0 -39252.07873567 0 238
0.01650000 0.01653350 68129.78458188 0 12841.72056256 0 21097.89665885 0 -13732.12185356 0 -24687.78437508 0 315
0.01750000 0.01747870 65573.70733319 0 7085.02333693 0 35048.40418032 0 6374.26616290 0 -3304.21175644 0 297
0.01850000 0.01844180 60809.26186014 0 -3455.51786520 0 21833.57575242 0 22054.95604351 0 -11543.38504780 0 388
0.01950000 0.01947590 63867.21577074 0 -3964.96981463 0 16378.37053344 0 15641.47140820 0 -4879.89374208 0 399
0.02050000 0.02045430 60885.01473530 0 -67.33864950 0 10430.49434602 0 3425.70472781 0 6394.85142444 0 462
0.02150000 0.02154770 63257.75449843 0 1079.92100974 0 7973.48366847 0 -3293.99676405 0 2562.84287883 0 571
0.02250000 0.02255340 61726.72567170 0 913.18150042 0 7241.98595614 0 1903.90377693 0 -4629.15505267 0 510
0.02350000 0.02348930 58612.20665667 0 2796.50112493 0 7512.95498879 0 -5016.28219095 0 5135.19091344 0 555
0.02450000 0.02439640 57856.67432056 0 1454.06701111 0 8454.32032977 0 2616.69064001 0 -1834.09578334 0 592
0.02550000 0.02547300 56291.48460722 0 -969.84864386 0 4488.40776340 0 6710.86180789 0 3486.51776067 0 837
0.02650000 0.02652900 56752.21292845 0 770.68402026 0 3026.93183273 0 -512.50868330 0 -3161.74533164 0 723
0.02750000 0.02749970 54458.88613547 0 1184.36237492 0 3404.66472720 0 -4732.85774414 0 2293.88135283 0 826
0.02850000 0.02848090 56844.15895115 0 -666.31585698 0 5252.77978348 0 1333.46133549 0 -5628.81572481 0 831
0.02950000 0.02946900 53836.55907470 0 121.21014585 0 6122.30744183 0 -3089.10908282 0 -4957.34357037 0 996
0.03050000 0.03053250 54129.36667414 0 -556.02832189 0 6120.39975595 0 -1793.05835463 0 -7379.25060958 0 1041
0.03150000 0.03150510 57809.53673353 0 434.46325774 0 10456.37010850 0 589.74777885 0 -2953.94066561 0 1036
0.03250000 0.03246190 54841.19969427 0 -2.58885174 0 4905.51440703 0 2974.21537364 0 -3859.82526756 0 1059
0.03350000 0.03345080 56081.08460111 0 1543.70606484 0 12155.50820737 0 -4489.74979823 0 -3934.97921808 0 1302
0.03450000 0.03451200 54546.50659136 0 2676.53873874 0 12474.04738373 0 -4313.36649316 0 -3844.80778689 0 1339
0.03550000 0.03553350 48274.43471714 0 3368.10814205 0 21825.25735471 0 -2859.26620846 0 -1961.14544438 0 1365
0.03650000 0.03647120 48280.09122758 0 2562.77633164 0 22652.43882311 0 -1941.31438424 0 -165.09801217 0 1308
0.03750000 0.03744890 44946.63198479 0 539.89950328 0 25669.13348106 0 3169.03224803 0 -2117.84187487 0 1579
0.03850000 0.03847530 45460.37622744 0 -267.76700408 0 22252.82299707 0 5649.50080712 0 4629.67633893 0 1662
0.03950000 0.03950240 44341.71810324 0 -27.92053555 0 18581.08224736 0 7032.21814826 0 8816.37027175 0 1683
0.04050000 0.04050350 45870.41777861 0 -1659.34288423 0 13690.08621713 0 7569.17626612 0 9201.34571782 0 1822
0.04150000 0.04152450 46489.63930423 0 -450.37801624 0 9000.53959707 0 5558.68608651 0 10894.41693197 0 1887
0.04250000 0.04250150 46534.78047581 0 236.72163471 0 8694.98821235 0 -1838.74299486 0 11821.55226726 0 1920
0.04350000 0.04349210 44803.00098431 0 1278.12735392 0 4779.77350723 0 -756.79895080 0 10526.81030032 0 2005
0.04450000 0.04448520 44832.83630411 0 930.09003016 0 10661.32433690 0 -713.49115408 0 6686.57208657 0 2151
0.04550000 0.04548030 43688.55751496 0 26.40203978 0 7959.94131700 0 -2838.59221735 0 5704.63514715 0 2274
0.04650000 0.04648670 42773.64467870 0 1412.88539684 0 10800.65195297 0 -745.31401636 0 -1737.08108364 0 2311
0.04750000 0.04749250 40932.83872120 0 2619.77399276 0 15424.41668392 0 -6564.59110253 0 -1467.80900413 0 2568
0.04850000 0.04851840 37761.08912992 0 2165.31219781 0 14781.45999684 0 -2798.16480448 0 -5969.39310950 0 2493
0.04950000 0.04949480 36785.72927029 0 1745.93185880 0 19826.06910480 0 -851.50224507 0 -6237.33424538 0 2644
0.05050000 0.05050630 33278.36005936 0 1455.97469698 0 17653.41453461 0 -339.80876474 0 -10858.33726829 0 2829
0.05150000 0.05149060 32122.76824932 0 1103.57409635 0 19415.69481771 0 1425.08571348 0 -2804.69751948 0 2784
0.05250000 0.05249300 32157.59460774 0 -1315.83742354 0 15742.84494831 0 3652.20915188 0 -7381.71285530 0 3055
0.05350000 0.05348950 33913.10926070 0 -905.49641005 0 16219.65550511 0 4100.89243323 0 -9706.54973881 0 3009
0.05450000 0.05448610 33931.18791173 0 -450.79726348 0 9242.38314653 0 208.73521745 0 -7691.37907409 0 3336
0.05550000 0.05550870 33397.14677867 0 737.01780105 0 12202.42397047 0 -610.27314792 0 -5074.10060065 0 3349
0.05650000 0.05647670 32913.12694385 0 723.66067256 0 10876.65992565 0 -757.89919754 0 -6200.77766024 0 3324
0.05750000 0.05747970 33695.27815264 0 -641.53479564 0 11508.44777741 0 3609.40822286 0 -2853.85370435 0 3639
0.05850000 0.05849280 33106.11377075 0 -445.55445468 0 11814.45390122 0 2600.17584775 0 -1460.33353738 0 3846
0.05950000 0.05951020 34381.71233176 0 720.63055756 0 12414.37674415 0 1089.06791986 0 4267.13838428 0 3787
0.06050000 0.06049470 32931.31650685 0 422.85853837 0 10081.18818933 0 512.81701858 0 2893.80419576 0 3930
0.06150000 0.06148310 33114.76490437 0 645.19378151 0 15317.83028125 0 -399.06459356 0 11369.03143178 0 4083
0.06250000 0.06249100 32384.96414518 0 302.90724337 0 13173.45826328 0 -96.88559817 0 6449.23156307 0 4303
0.06350000 0.06350600 33090.91883093 0 188.23868549 0 15896.67984998 0 1651.36831362 0 11012.64909144 0 4470
0.06450000 0.06451750 32195.08285342 0 627.14396760 0 14362.43457613 0 -820.71419146 0 5057.90745310 0 4479
0.06550000 0.06550280 31414.15167630 0 1048.52072206 0 18230.82224773 0 -2180.31858728 0 9067.74115938 0 4636
0.06650000 0.06648880 30393.87246903 0 952.59739613 0 18220.50743457 0 -463.93367715 0 6744.83414414 0 4653
0.06750000 0.06749660 30249.35417280 0 257.89805704 0 18544.14856152 0 500.80525228 0 5805.55394818 0 5220
0.06850000 0.06852730 29830.77239997 0 129.44203222 0 19725.91559635 0 1816.05040591 0 7556.17738329 0 5029
0.06950000 0.06949320 29435.92578861 0 199.47961359 0 16080.23915947 0 2262.38235350 0 4908.35375345 0 5040
0.07050000 0.07048030 29350.85630802 0 -150.17591580 0 14885.16268830 0 876.56391369 0 5276.79222487 0 5475
0.07150000 0.07148790 28726.97647968 0 865.59693815 0 14857.98925578 0 -33.09069701 0 3840.11621058 0 5509
0.07250000 0.07249820 28096.55284515 0 540.58161190 0 15576.69881802 0 618.81336957 0 6903.68226683 0 5916
0.07350000 0.07351270 27033.23979372 0 89.22169199 0 13826.50793959 0 1838.44353255 0 4001.99223004 0 5721
0.07450000 0.07449140 27159.67943893 0 21.78810184 0 11451.10628919 0 1588.52559171 0 3100.96557236 0 6028
0.07550000 0.07549160 26550.99455041 0 79.19602634 0 10114.60596573 0 1315.10540454 0 3808.78357920 0 6183
0.07650000 0.07648840 26194.52348050 0 158.41556601 0 9219.44655124 0 1799.94598794 0 3919.75100467 0 6330
0.07750000 0.07749960 25875.31883233 0 179.20379645 0 8121.66205970 0 775.94790234 0 3858.23922639 0 6583
0.07850000 0.07848650 25764.51777481 0 97.99793432 0 7102.85798163 0 1355.94319171 0 3008.52044580 0 6549
0.07950000 0.07947320 25311.22055554 0 189.69717788 0 6775.67876285 0 493.98971176 0 4867.83761100 0 6828
0.08050000 0.08048110 24800.69276001 0 424.80837079 0 5395.67876496 0 -139.17788490 0 2543.26691621 0 7147
0.08150000 0.08149960 24654.73260817 0 300.27973882 0 6457.72741994 0 30.74989989 0 3231.49786924 0 7386
0.08250000 0.08250610 23720.07744135 0 426.17591538 0 5659.41633719 0 -121.10810684 0 2815.37834214 0 7227
0.08350000 0.08350160 23166.73762560 0 424.00980461 0 6568.66157181 0 -42.34718816 0 1755.70320331 0 7798
0.08450000 0.08449610 23218.97716323 0 572.86697709 0 6978.37038708 0 -1122.88387024 0 2375.95621025 0 7371
0.08550000 0.08548940 21915.87243378 0 544.40696572 0 6483.18171693 0 -341.79187075 0 -1390.24826387 0 8256
0.08650000 0.08650700 22017.24597389 0 192.59198029 0 8335.87743756 0 -633.74766626 0 1157.17785120 0 8037
0.08750000 0.08749060 21391.36973010 0 -42.74957678 0 6670.98895486 0 399.44391249 0 -2211.71776584 0 8155
0.08850000 0.08849210 21894.91007155 0 -29.97872897 0 7091.33422800 0 673.52069852 0 -905.24685812 0 8718
0.08950000 0.08949900 21558.73589205 0 223.26801281 0 6741.12968436 0 -172.33390906 0 -2487.18982444 0 8571
0.09050000 0.09049190 21222.89444845 0 596.77294300 0 6894.44329977 0 -140.22600302 0 -1970.37332025 0 8932
0.09150000 0.09150830 20298.44318282 0 591.65657384 0 6906.00032699 0 -114.76172394 0 -2154.19881847 0 9285
0.09250000 0.09250820 19438.32085949 0 817.62640223 0 7860.51982755 0 -320.14961815 0 -1127.43126098 0 9204
0.09350000 0.09350330 18771.85083487 0 543.05716706 0 7338.14663369 0 712.10142710 0 -167.66007867 0 9349
0.09450000 0.09448040 17891.32070915 0 155.67825860 0 7786.91864461 0 1073.46926047 0 -402.50286461 0 9564
0.09550000 0.09549270 18271.63785250 0 -125.38265414 0 6404.81131930 0 832.46642374 0 1326.64024937 0 10155
0.09650000 0.09649430 17740.03678277 0 189.72157852 0 5834.63506658 0 1005.28058163 0 912.07127160 0 9913
0.09750000 0.09749140 17747.02423685 0 82.35601926 0 5910.84268081 0 -166.52434010 0 2309.68630848 0 10476
0.09850000 0.09850240 17436.58163427 0 34.51347575 0 6111.33824805 0 349.31392053 0 47.66253338 0 10575
0.09950000 0.09950330 17331.76982311 0 513.53240078 0 6142.41578190 0 -780.90788561 0 828.17191229 0 10882
0.10050000 0.10051200 16738.83443426 0 476.71184515 0 6232.54284830 0 -659.39716832 0 -39.38639313 0 10875
0.10150000 0.10150300 16290.75007755 0 164.88506119 0 5983.20164970 0 348.50537227 0 -282.86434137 0 11118
0.10250000 0.10250800 16093.21585990 0 123.33965566 0 6315.22772155 0 403.71735068 0 416.84267314 0 11575
0.10350000 0.10349800 15661.65738665 0 392.91674309 0 6194.87714346 0 -118.74457277 0 -1452.51424354 0 11364
0.10450000 0.10450100 15436.39517663 0 573.72321750 0 6618.32795175 0 -874.60520831 0 -892.97112134 0 12093
0.10550000 0.10551000 14669.54981963 0 83.57937828 0 6165.45219796 0 208.49232023 0 -1495.19316939 0 12067
0.10650000 0.10649700 14884.49721648 0 -120.51250956 0 6539.09244075 0 142.15032569 0 -956.82646953 0 12054
0.10750000 0.10749900 14701.60337881 0 217.92094676 0 6526.23774349 0 -47.86383861 0 -2153.40025229 0 12807
0.10850000 0.10850100 14568.06536755 0 164.72202060 0 6002.75542992 0 338.75731927 0 -2005.31059063 0 12736
0.10950000 0.10950300 14563.62888877 0 -85.05417474 0 5971.02351545 0 509.26894467 0 -1488.89336953 0 12933
0.11050000 0.11050200 14613.20653913 0 -210.86472726 0 5098.98924660 0 1020.44002962 0 -1454.11137590 0 13428
0.11150000 0.11150900 14751.62467704 0 -97.91663584 0 5056.58760066 0 943.80207695 0 -216.19515651 0 13453
0.11250000 0.11250000 15007.38767867 0 -0.78274015 0 3802.36177617 0 523.42353022 0 -521.53691762 0 13668
0.11350000 0.11349100 14723.56394877 0 -68.76176098 0 4020.78071767 0 385.46456786 0 134.89113728 0 13791
0.11450000 0.11448600 14900.35762812 0 249.63067883 0 3649.63599419 0 -228.51525808 0 -19.56065676 0 14205
0.11550000 0.11549300 14285.46166931 0 213.21717013 0 3971.90181272 0 -96.19073468 0 387.00735335 0 14776
0.11650000 0.11649800 14372.63847732 0 195.59103994 0 4383.47394907 0 -732.51477509 0 -32.84181055 0 14553
0.11750000 0.11747300 14101.23688800 0 317.55760542 0 4883.15455398 0 -419.31046447 0 -775.58411108 0 14568
0.11850000 0.11849100 13758.62981427 0 246.12696972 0 5291.11096013 0 -585.74052939 0 -990.16882579 0 16015
0.11950000 0.11950300 13765.28453244 0 -8.21723490 0 5275.64983159 0 165.94537962 0 -926.66063207 0 15270
0.12050000 0.12050700 13802.77277812 0 -237.42038011 0 5691.86917946 0 720.83574470 0 -424.87159062 0 15999
0.12150000 0.12150000 13946.73651451 0 -31.57264488 0 4785.68511520 0 573.31173409 0 -747.81840864 0 15670
0.12250000 0.12250700 14156.24922486 0 -3.31406074 0 4938.15579965 0 497.23055951 0 314.69829485 0 16887
0.12350000 0.12352200 14119.09371509 0 226.38242091 0 4371.48436517 0 -182.10414445 0 -229.13525599 0 16407
0.12450000 0.12449800 13689.30983334 0 222.40733592 0 5031.05566529 0 -387.57855000 0 -73.31891199 0 16306
0.12550000 0.12549900 13663.80008036 0 187.19389473 0 4964.59721318 0 -246.06264078 0 -80.01899315 0 17523
0.12650000 0.12650100 13211.05742094 0 199.44523088 0 4891.91659957 0 308.91312652 0 -457.18801116 0 17154
0.12750000 0.12750600 13114.89674340 0 90.97864850 0 5064.90599838 0 228.13372091 0 -399.41840274 0 18007
0.12850000 0.12850300 12740.45793442 0 280.78030546 0 4872.86192322 0 199.26333525 0 -649.09122812 0 17496
0.12950000 0.12949900 12428.12982836 0 335.26470135 0 4951.48741838 0 -149.64353835 0 -107.38618888 0 18405
0.13050000 0.13049000 12125.67288758 0 272.38981497 0 4866.28484343 0 41.08933551 0 -23.69478951 0 18100
0.13150000 0.13148800 12055.35469893 0 -29.58720971 0 4908.60885098 0 421.84036649 0 281.62767291 0 19059
0.13250000 0.13249300 11807.46644714 0 -140.68850593 0 4314.78616637 0 555.27412049 0 -147.73585247 0 18957
0.13350000 0.13349100 12131.99486984 0 -75.98845218 0 4142.53987777 0 310.57458782 0 238.87554515 0 19468
0.13450000 0.13450700 12411.93668082 0 -44.15039496 0 3711.91306506 0 417.57691038 0 372.96146154 0 19953
0.13550000 0.13551000 12310.67405268 0 -14.97633233 0 3337.09715539 0 265.97023018 0 363.12689720 0 19956
0.13650000 0.13649900 12046.37082940 0 218.11171535 0 3546.55440975 0 -42.94300726 0 723.29799042 0 19723
0.13750000 0.13749600 12012.43176674 0 195.14961030 0 3467.27453397 0 117.16296808 0 796.80378908 0 20946
0.13850000 0.13851100 11677.92126678 0 120.04557017 0 3617.37170227 0 232.15982540 0 1066.62931931 0 20955
0.13950000 0.13949800 11588.41530741 0 92.46753078 0 3492.65119259 0 100.19820597 0 1298.09150843 0 20506
0.14050000 0.14048300 11347.73633363 0 226.68631971 0 3711.30304922 0 10.22257877 0 1192.68077263 0 21447
0.14150000 0.14148400 11307.91893659 0 288.46761407 0 3579.37326152 0 -331.25745189 0 1309.54871487 0 21771
0.14250000 0.14249400 10759.29287955 0 131.18113191 0 3785.17042090 0 -76.87197693 0 649.36296245 0 22470
0.14350000 0.14350900 10737.13266804 0 146.94726837 0 3989.38153911 0 -154.96287640 0 828.02439937 0 22519
0.14450000 0.14449900 10906.42869826 0 -129.93337225 0 3845.01851963 0 124.50866782 0 169.73080514 0 22218
0.14550000 0.14550500 10671.68351485 0 -27.42886279 0 3232.82881288 0 325.71850814 0 -459.09347880 0 23559
0.14650000 0.14650700 10818.89697195 0 263.30501555 0 3649.80236215 0 -571.22991642 0 -783.48437066 0 23044
0.14750000 0.14750500 10364.40190340 0 240.53256998 0 3212.84247598 0 -325.99135158 0 -351.44121210 0 23649
0.14850000 0.14849900 10140.08244512 0 127.29477649 0 3684.96145647 0 639.73247614 0 -815.72980755 0 23640
0.14950000 0.14949500 10023.10359091 0 28.55284469 0 3095.12051157 0 345.32441698 0 -237.03995206 0 24457
0.15050000 0.15050000 9935.19476390 0 42.17372184 0 2677.79204400 0 716.01329227 0 83.40313916 0 24591
0.15150000 0.15149900 9813.66851894 0 139.05366350 0 2961.48267954 0 201.58583189 0 588.60427644 0 25020
0.15250000 0.15250500 9679.81995417 0 166.96355150 0 2509.26130637 0 -48.08799170 0 360.34744325 0 25297
0.15350000 0.15350100 9401.09817486 0 158.44107576 0 2839.16895959 0 -66.25248859 0 595.42314433 0 25452
0.15450000 0.15450400 9290.16402298 0 165.44960312 0 2806.92685007 0 -93.96816973 0 922.34393821 0 26061
0.15550000 0.15549900 9223.36174376 0 -81.52673046 0 2626.00724545 0 274.46165056 0 878.80544459 0 26128
0.15650000 0.15649500 9316.57216292 0 -59.43417526 0 2807.81414582 0 121.02159550 0 623.07349832 0 26331
0.15750000 0.15749700 9225.64653033 0 220.44308494 0 2742.76427572 0 -173.15354852 0 82.34559353 0 27345
0.15850000 0.15849900 9129.43039681 0 83.22778734 0 2664.75988758 0 36.45144059 0 676.56634120 0 26980
0.15950000 0.15949700 8996.58003976 0 -4.99455454 0 2501.08709422 0 193.85526762 0 340.63949539 0 27777
0.16050000 0.16050000 8962.80734506 0 28.76324469 0 2395.03306900 0 255.19402322 0 489.40017446 0 28224
0.16150000 0.16150500 8901.04046925 0 107.62941883 0 2264.56731930 0 77.16212264 0 263.68211625 0 28075
0.16250000 0.16249700 8857.81807474 0 -8.62793084 0 1987.26521320 0 228.11042939 0 465.52082743 0 28590
0.16350000 0.16349900 8767.93501468 0 18.15329478 0 1937.44355651 0 187.48892057 0 300.86313578 0 29163
0.16450000 0.16449100 8664.49851194 0 113.65482249 0 1843.64530392 0 -240.53589734 0 119.70174306 0 28996
0.16550000 0.16550500 8552.62160832 0 171.09613148 0 1838.42135015 0 24.50001041 0 460.95901813 0 30777
0.16650000 0.16650700 8501.49119039 0 38.20828619 0 1989.71636772 0 100.28627007 0 28.53154959 0 29211
0.16750000 0.16749900 8395.41498278 0 104.15621051 0 2144.59384191 0 -100.25033459 0 298.59387688 0 30922
0.16850000 0.16850800 8274.04401457 0 121.07372413 0 2062.01988063 0 -115.18208031 0 134.57281993 0 30867
0.16950000 0.16949900 8222.00411849 0 69.37765515 0 2340.14273530 0 -154.28409515 0 538.37779106 0 30852
0.17050000 0.17049200 8194.59777083 0 0.94780600 0 2437.70090366 0 129.48196053 0 -77.99074596 0 31257
0.17150000 0.17149500 8271.40430970 0 21.48342666 0 2364.03317353 0 -79.04951163 0 -39.78878176 0 32608
0.17250000 0.17250900 8221.79338575 0 132.21261322 0 2344.46830211 0 -123.01801095 0 -72.60064607 0 32361
0.17350000 0.17350400 8043.19184129 0 125.17746700 0 2403.41801389 0 -138.20962341 0 -222.53488469 0 32508
0.17450000 0.17449800 7907.39122586 0 69.90093782 0 2538.20933040 0 35.56458849 0 -126.89327516 0 32791
0.17550000 0.17549800 7900.57013973 0 43.26254464 0 2412.44624821 0 48.71863715 0 -849.69881644 0 33633
0.17650000 0.17650100 7836.30774462 0 47.97231051 0 2344.47939331 0 99.24680309 0 -122.16620703 0 33984
0.17750000 0.17750300 7734.09127354 0 58.98952918 0 2062.41916372 0 -107.61777308 0 -992.88727816 0 34069
