### header ###
fiducial parameters:
Omega_m = 0.31
Omega_nu = 0
Omega_de = 0.69
Omega_k = 0
H_0 = 100
w_de = -1
zeff = 0
beta = 0
fgrowth = 0
b_1 = 2
gamma = 0.55
Lx = 3500 Ly = 3500 Lz = 3500
nx = 700 ny = 700 nz = 700
xoffset = 1379.75464 yoffset = 22.6059522 zoffset = 368.141391
bins = 400 dk = 0.001
kx_ny = 0.628318531 ky_ny = 0.628318531 kz_ny = 0.628318531
############################
A(data) = 3.35829535 (not used)
A(ran) = 3.35655464 (used)
Ngal = 188942
weighted Ngal = 0
Nran = 9399747
weighted Nran = 0
SN(data) = 6680.56177
SN(ran) = 133.508246
SN(data+ran) = 6814.07001
############################
13 columns: k_central k_mean P_0(k) sigma^{lin}_{P_0(k)} P^img_1(k) sigma^{lin}_{P_1(k)} P_2(k) sigma^{lin}_{P_2(k)} P^img_3(k) sigma^{lin}_{P_3(k)} P_4(k) sigma^{lin}_{P_4(k)} N_modes
### header ###
0.00050000 0 0 0 0 0 0 0 0 0 0 0 0
0.00150000 0.00179520 41039.09238797 0 -36016.33293799 0 -59980.41671220 0 57687.31174316 0 -21403.90278265 0 3
0.00250000 0.00253879 62053.91598167 0 -23792.72478136 0 -1006.04143774 0 -79361.17425953 0 18735.47170888 0 6
0.00350000 0.00331552 83706.59431187 0 -14476.78481667 0 -58480.99779677 0 9115.43330626 0 -9273.36085961 0 7
0.00450000 0.00420575 88308.99739750 0 -4846.08777378 0 -8942.19990113 0 -39347.35211745 0 2641.55710357 0 24
0.00550000 0.00557378 79099.75474746 0 15651.00983758 0 -822.96015884 0 -28246.17309198 0 17076.00682148 0 45
0.00650000 0.00659388 72850.19800304 0 7093.69665295 0 42034.41640210 0 7780.53011516 0 10643.20132109 0 40
0.00750000 0.00754703 57165.24910280 0 2993.65824189 0 20949.94009156 0 17293.28336970 0 -12947.86331736 0 57
0.00850000 0.00846663 75990.00494711 0 -6830.73546450 0 22982.95649217 0 11808.24283093 0 2734.09095971 0 75
0.00950000 0.00948925 60955.22201198 0 4082.29249594 0 17957.97880281 0 298.22343090 0 18663.48984068 0 112
0.01050000 0.01054430 67796.05046571 0 -1784.07448511 0 16595.86890559 0 9395.36402604 0 -836.23853983 0 105
0.01150000 0.01145670 73777.31115594 0 -4528.94608825 0 10785.64556350 0 14880.17164967 0 28716.43984258 0 144
0.01250000 0.01249090 68151.74515183 0 870.66894251 0 7710.87739833 0 9945.15465876 0 6462.34135787 0 169
0.01350000 0.01339930 76129.75402866 0 9117.50736009 0 10364.85664248 0 -9608.14863949 0 17415.50836007 0 180
0.01450000 0.01448870 61800.70395534 0 3261.06700031 0 15677.96144616 0 3769.44310363 0 29323.12831565 0 267
0.01550000 0.01550050 59326.25791620 0 -1933.96092066 0 19760.85286674 0 15929.50979295 0 13547.34251241 0 238
0.01650000 0.01653350 61326.99893369 0 379.45979383 0 7463.59916237 0 3141.17116130 0 28557.05934244 0 315
0.01750000 0.01747870 59662.76483160 0 1955.54438993 0 11086.12827122 0 -348.57413769 0 10464.34467910 0 297
0.01850000 0.01844180 57694.52102117 0 4264.43213223 0 12765.52403953 0 -4810.55157876 0 25207.07421619 0 388
0.01950000 0.01947590 52749.51086181 0 3867.50037585 0 23742.25983524 0 -8691.79394763 0 10347.35473369 0 399
0.02050000 0.02045430 50228.14905957 0 2272.41988674 0 26577.61342309 0 4076.99090380 0 10051.64124066 0 462
0.02150000 0.02154770 52203.60214802 0 -2642.18930179 0 29553.38156429 0 7581.14366762 0 16198.24949500 0 571
0.02250000 0.02255340 55665.05380359 0 -2966.09661747 0 24180.91667455 0 3914.60468928 0 3785.10387372 0 510
0.02350000 0.02348930 60471.20217716 0 -1254.62510759 0 18522.18799156 0 7351.02351334 0 12501.22081625 0 555
0.02450000 0.02439640 59950.13774453 0 -427.72091911 0 20947.50002823 0 -1592.70697296 0 8120.51966641 0 592
0.02550000 0.02547300 61694.33937661 0 1669.72424457 0 25543.13748373 0 -2425.87768771 0 15367.40793161 0 837
0.02650000 0.02652900 61872.68582354 0 594.39942685 0 29217.20738479 0 1645.95580951 0 6389.20600519 0 723
0.02750000 0.02749970 61119.59355075 0 1246.71708416 0 32892.94096540 0 -2852.21220720 0 1365.32634433 0 826
0.02850000 0.02848090 59127.50366688 0 3167.31311250 0 36078.44364090 0 -1258.56248250 0 2893.00562958 0 831
0.02950000 0.02946900 55258.22869953 0 1915.31661859 0 40678.51757518 0 -770.58087213 0 5900.92715074 0 996
0.03050000 0.03053250 54156.54010666 0 1294.98597328 0 36628.45609757 0 2836.45161634 0 500.74757806 0 1041
0.03150000 0.03150510 54377.36583790 0 531.27166118 0 38199.41323331 0 3804.94602506 0 -3926.17280770 0 1036
0.03250000 0.03246190 52385.27595403 0 1352.84874776 0 37490.57483635 0 4968.53458809 0 5140.40377600 0 1059
0.03350000 0.03345080 51099.69531576 0 735.91200871 0 29504.02573788 0 3077.14168131 0 -1882.76395555 0 1302
0.03450000 0.03451200 50166.81474044 0 -341.82181699 0 24182.46944212 0 8589.21146705 0 2635.23512131 0 1339
0.03550000 0.03553350 49618.02231545 0 60.58344509 0 21595.55866591 0 4453.40394583 0 915.65150998 0 1365
0.03650000 0.03647120 48208.10935939 0 813.97628931 0 14742.08624767 0 2790.62279055 0 -1815.86185556 0 1308
0.03750000 0.03744890 46446.27272416 0 1935.95733612 0 14827.04481629 0 -1138.24517801 0 1017.22801899 0 1579
0.03850000 0.03847530 43357.04163817 0 1271.04007907 0 10569.66668532 0 2114.53669818 0 -808.06024486 0 1662
0.03950000 0.03950240 41807.71233648 0 263.61778730 0 13245.66195541 0 2588.43027019 0 1702.08835727 0 1683
0.04050000 0.04050350 41190.93087419 0 298.23008562 0 7919.42517455 0 2021.78101810 0 -5876.59306464 0 1822
0.04150000 0.04152450 41284.54057643 0 389.45296228 0 5744.13089948 0 2550.85329492 0 328.61220142 0 1887
0.04250000 0.04250150 39363.32344106 0 157.64583694 0 5426.64538684 0 -1067.16613325 0 -3938.39530674 0 1920
0.04350000 0.04349210 40933.39328105 0 1092.90325576 0 7229.99637224 0 -797.31287502 0 818.67452034 0 2005
0.04450000 0.04448520 39130.07556924 0 -1078.88841930 0 6224.80119283 0 1738.70039839 0 -3482.26983224 0 2151
0.04550000 0.04548030 39396.04247206 0 167.71664377 0 4547.59039032 0 -1755.99157443 0 -2944.80151933 0 2274
0.04650000 0.04648670 39562.07769037 0 420.48169486 0 4875.63472245 0 366.05275496 0 -4570.52698561 0 2311
0.04750000 0.04749250 40329.47760722 0 137.55191543 0 7891.13153113 0 -288.96117233 0 -3219.99629801 0 2568
0.04850000 0.04851840 39022.71278278 0 823.94394801 0 7540.78280193 0 -851.03863303 0 -5545.80920685 0 2493
0.04950000 0.04949480 38527.82357495 0 1663.65735984 0 8797.88124644 0 -2568.66575722 0 -6268.79997112 0 2644
0.05050000 0.05050630 36445.11861201 0 747.54889255 0 8947.05784539 0 620.59239756 0 -953.42147206 0 2829
0.05150000 0.05149060 35141.90297060 0 203.90278294 0 10168.80864522 0 1602.87760056 0 -2540.44975219 0 2784
0.05250000 0.05249300 35953.00220342 0 -332.62943296 0 6244.11096671 0 3346.81304391 0 548.92773760 0 3055
0.05350000 0.05348950 36322.89362164 0 -313.96183937 0 5238.67178096 0 3104.50366419 0 676.42437388 0 3009
0.05450000 0.05448610 35348.08832186 0 417.39057827 0 6171.86290979 0 85.61616569 0 4525.38581403 0 3336
0.05550000 0.05550870 34804.50875943 0 878.88419209 0 3886.29995467 0 -1604.67437447 0 1079.91990062 0 3349
0.05650000 0.05647670 34568.82082428 0 943.21978911 0 10129.85636154 0 -2208.15749162 0 3424.52906093 0 3324
0.05750000 0.05747970 32774.26515806 0 574.54396607 0 6649.66058313 0 696.16781357 0 4011.75248335 0 3639
0.05850000 0.05849280 33293.44408721 0 228.27901559 0 10529.62746434 0 936.83902351 0 4098.75183222 0 3846
0.05950000 0.05951020 32245.21506363 0 889.41084712 0 10315.57845444 0 -1619.70294633 0 4784.93091381 0 3787
0.06050000 0.06049470 32658.69488586 0 742.71313068 0 13929.98880712 0 316.35199231 0 5048.65739485 0 3930
0.06150000 0.06148310 31236.80343710 0 -13.89826798 0 11430.58757484 0 208.07307299 0 4888.91088520 0 4083
0.06250000 0.06249100 32230.35285972 0 -755.71201350 0 11857.26592144 0 2134.60067346 0 6396.23782406 0 4303
0.06350000 0.06350600 32935.30933775 0 -449.42971890 0 11219.18936101 0 1330.05633803 0 4948.61479837 0 4470
0.06450000 0.06451750 33193.29057876 0 629.26238622 0 10061.74532108 0 -419.11304116 0 3178.03829995 0 4479
0.06550000 0.06550280 32485.89403740 0 973.55421276 0 10931.40607379 0 -1420.47177555 0 2841.25410462 0 4636
0.06650000 0.06648880 30157.85179797 0 520.94242946 0 9836.17255755 0 -169.09195219 0 -367.77521785 0 4653
0.06750000 0.06749660 30713.74258902 0 372.96257066 0 11558.35816368 0 -195.49232829 0 985.45173973 0 5220
0.06850000 0.06852730 29927.82037327 0 330.71952884 0 10753.04853567 0 -239.14173388 0 -3362.71782034 0 5029
0.06950000 0.06949320 29763.00518662 0 285.16909209 0 9560.63395176 0 1157.68804626 0 -4162.07147559 0 5040
0.07050000 0.07048030 28857.96351564 0 -230.31535935 0 8489.84543359 0 369.18047250 0 -3329.74369181 0 5475
0.07150000 0.07148790 28976.41749905 0 595.41981697 0 7961.52735816 0 -575.21054701 0 -5711.65587482 0 5509
0.07250000 0.07249820 28835.44838584 0 285.90000197 0 8938.21816142 0 85.13813510 0 -4760.99611080 0 5916
0.07350000 0.07351270 27074.16631046 0 957.77587598 0 7442.31515542 0 -184.49318828 0 -5280.40795508 0 5721
0.07450000 0.07449140 26704.38580421 0 615.84647439 0 8329.31144896 0 -231.21485542 0 -4894.81140198 0 6028
0.07550000 0.07549160 25635.08350643 0 503.43164772 0 8927.55952115 0 565.33383613 0 -4606.88392920 0 6183
0.07650000 0.07648840 25528.60801572 0 440.00996533 0 8391.77707018 0 1564.03622885 0 -2440.41824691 0 6330
0.07750000 0.07749960 24581.86344422 0 -6.57457318 0 7610.41333637 0 997.66314757 0 -2258.64462013 0 6583
0.07850000 0.07848650 24448.32543297 0 170.89205346 0 8103.17303439 0 1491.99890467 0 421.47324787 0 6549
0.07950000 0.07947320 24457.86386234 0 -90.06584299 0 5566.59410993 0 804.87928957 0 493.20223677 0 6828
0.08050000 0.08048110 24619.79533779 0 60.97995538 0 5908.23624953 0 445.54225437 0 883.12102933 0 7147
0.08150000 0.08149960 24344.06818165 0 121.53733616 0 6404.35658022 0 647.76915744 0 1581.22758412 0 7386
0.08250000 0.08250610 24388.43296945 0 271.49031890 0 6419.11896336 0 -739.41460871 0 1498.53161967 0 7227
0.08350000 0.08350160 23972.29125995 0 456.97062370 0 6589.21355976 0 -569.22573714 0 1046.19600718 0 7798
0.08450000 0.08449610 23288.74079203 0 720.06823387 0 8656.26884380 0 -1577.75603948 0 1862.76652745 0 7371
0.08550000 0.08548940 22582.12063446 0 839.12668751 0 9420.87377902 0 -807.72861807 0 650.26467676 0 8256
0.08650000 0.08650700 22005.71112906 0 89.61287851 0 10413.43608511 0 784.16980663 0 2586.53367551 0 8037
0.08750000 0.08749060 21955.46800688 0 -38.27494428 0 9423.44693671 0 1314.43993273 0 1887.75499418 0 8155
0.08850000 0.08849210 22207.90364943 0 131.01143659 0 9227.85367853 0 968.08847091 0 2565.06111822 0 8718
0.08950000 0.08949900 21532.78249119 0 567.18495690 0 10141.79048945 0 -447.14160497 0 1948.24638233 0 8571
0.09050000 0.09049190 20563.19005397 0 819.97329950 0 9635.84335827 0 -690.82185664 0 2799.29610656 0 8932
0.09150000 0.09150830 20066.41534266 0 446.24432713 0 10184.92415439 0 242.11417466 0 2032.78348547 0 9285
0.09250000 0.09250820 19202.74383631 0 187.44455578 0 9251.85502872 0 736.25139934 0 1198.48146863 0 9204
0.09350000 0.09350330 19254.76154999 0 -11.11681761 0 9036.25325125 0 1069.76590981 0 2061.95333345 0 9349
0.09450000 0.09448040 19206.95849115 0 -40.48087245 0 7618.08844466 0 1573.74102618 0 728.52638066 0 9564
0.09550000 0.09549270 18714.95299452 0 82.63873387 0 6710.24070086 0 203.58446558 0 1301.62960025 0 10155
0.09650000 0.09649430 18774.06907426 0 195.67866040 0 6208.05348543 0 136.20433500 0 1108.95776335 0 9913
0.09750000 0.09749140 18518.19516066 0 -24.99157226 0 6243.01293822 0 82.31808737 0 1210.02740466 0 10476
0.09850000 0.09850240 18465.73379910 0 -28.49328496 0 5350.03848952 0 1078.26398491 0 65.83257587 0 10575
0.09950000 0.09950330 18468.06295045 0 254.06826673 0 5460.88391182 0 -392.42540306 0 437.23938433 0 10882
0.10050000 0.10051200 18181.68824525 0 465.44984377 0 5747.09224907 0 -378.89414279 0 513.78528007 0 10875
0.10150000 0.10150300 17461.53682740 0 284.05997240 0 6062.34843113 0 -238.64817562 0 922.57130775 0 11118
0.10250000 0.10250800 17463.08959498 0 125.54347650 0 5698.16897933 0 309.23477123 0 979.26617919 0 11575
0.10350000 0.10349800 17219.19417409 0 226.52660647 0 6969.60834149 0 131.78449302 0 42.27753544 0 11364
0.10450000 0.10450100 16851.63190722 0 564.18478812 0 6579.27584729 0 -995.12548171 0 417.11551659 0 12093
0.10550000 0.10551000 16184.27458685 0 416.59312121 0 7491.23842516 0 56.42346985 0 -365.60577972 0 12067
0.10650000 0.10649700 16180.17084398 0 31.21340101 0 7231.52695742 0 145.17156774 0 -224.03108716 0 12054
0.10750000 0.10749900 15560.17293457 0 125.73646332 0 7380.00481097 0 249.85028453 0 -525.70942591 0 12807
0.10850000 0.10850100 15806.28659485 0 53.31072543 0 6267.84612818 0 499.54640143 0 -81.77506236 0 12736
0.10950000 0.10950300 15567.71494849 0 -111.43325574 0 6655.83837983 0 816.82118133 0 -566.18674917 0 12933
0.11050000 0.11050200 15897.56714573 0 -96.03512519 0 4761.07374918 0 668.63169890 0 -576.01687703 0 13428
0.11150000 0.11150900 15676.51959056 0 -11.15175488 0 5325.53803546 0 453.15414283 0 702.65283642 0 13453
0.11250000 0.11250000 15877.60299123 0 -61.97028836 0 3983.83594064 0 298.30217840 0 -676.97006077 0 13668
0.11350000 0.11349100 15870.61553715 0 8.87195935 0 4098.92929137 0 582.56179235 0 1297.41494541 0 13791
0.11450000 0.11448600 15793.75354230 0 79.84219947 0 4058.66824644 0 230.10351749 0 -241.08047511 0 14205
0.11550000 0.11549300 15600.98853934 0 185.79307656 0 3837.37668493 0 614.78948332 0 1448.26631511 0 14776
0.11650000 0.11649800 15504.60603786 0 36.12369572 0 3085.36025825 0 567.03966222 0 1767.74824320 0 14553
0.11750000 0.11747300 15054.08161782 0 175.03905200 0 3406.81641940 0 455.51878602 0 2587.40988007 0 14568
0.11850000 0.11849100 14874.95878711 0 540.45739049 0 3821.91555639 0 -60.72940524 0 2920.24560929 0 16015
0.11950000 0.11950300 14330.93557680 0 286.76844269 0 3600.47980932 0 75.94852387 0 3153.91494659 0 15270
0.12050000 0.12050700 13843.92111880 0 214.75441003 0 4125.22651933 0 50.00477235 0 3539.98842116 0 15999
0.12150000 0.12150000 13906.80820550 0 92.93169737 0 3799.58897693 0 -184.86252513 0 2938.53499305 0 15670
0.12250000 0.12250700 13780.03582438 0 49.95763477 0 4046.80066571 0 242.74193641 0 2996.46431471 0 16887
0.12350000 0.12352200 13421.12469114 0 209.29975937 0 3916.90056705 0 -174.10295498 0 2135.57669879 0 16407
0.12450000 0.12449800 13415.02453281 0 282.40627494 0 4055.50725531 0 -640.29812718 0 2172.88748532 0 16306
0.12550000 0.12549900 13188.09864325 0 36.29183827 0 4220.65517787 0 294.96150988 0 1206.94405191 0 17523
0.12650000 0.12650100 13194.30971354 0 -21.93018008 0 3773.16974580 0 185.98495427 0 2031.55236261 0 17154
0.12750000 0.12750600 13074.85752241 0 3.21079060 0 3628.78454393 0 170.08683256 0 477.57806763 0 18007
0.12850000 0.12850300 13386.29833272 0 -59.66953046 0 3592.20577639 0 183.12009809 0 1166.33917988 0 17496
0.12950000 0.12949900 12999.21555923 0 33.09413528 0 2881.58169672 0 262.33786318 0 234.68085447 0 18405
0.13050000 0.13049000 13371.87977669 0 54.19802118 0 2864.02433195 0 352.20761381 0 1045.14234347 0 18100
0.13150000 0.13148800 13020.84339327 0 63.61611107 0 2515.08418477 0 -55.95830505 0 433.30533677 0 19059
0.13250000 0.13249300 12887.74902990 0 387.94234126 0 3134.08388645 0 -507.47438901 0 298.50071083 0 18957
0.13350000 0.13349100 12319.10336236 0 383.42489674 0 3208.16199086 0 -356.31579316 0 161.19391085 0 19468
0.13450000 0.13450700 12003.22607327 0 212.96207260 0 3402.20248147 0 -175.34405991 0 228.64169773 0 19953
0.13550000 0.13551000 11874.12454080 0 -53.99327769 0 3778.95935061 0 332.21794955 0 338.83495765 0 19956
0.13650000 0.13649900 12059.12570589 0 -91.86217325 0 3197.86936010 0 410.70924123 0 159.64668887 0 19723
0.13750000 0.13749600 12389.08881510 0 -185.24849879 0 3064.14279849 0 526.63443173 0 374.13491018 0 20946
0.13850000 0.13851100 12406.28017037 0 -90.43285070 0 2342.61607222 0 344.59794358 0 956.41387700 0 20955
0.13950000 0.13949800 12405.83652250 0 64.58925269 0 2702.12613010 0 22.45557008 0 1014.10917440 0 20506
0.14050000 0.14048300 12161.60836570 0 421.97124261 0 2895.06859221 0 -441.28434386 0 1064.16152799 0 21447
0.14150000 0.14148400 11841.29459783 0 390.64859331 0 3538.08073529 0 -251.94097516 0 738.13024810 0 21771
0.14250000 0.14249400 11445.11704284 0 197.96011961 0 3709.68373447 0 -380.85506641 0 976.30482961 0 22470
0.14350000 0.14350900 11083.33328959 0 198.92061727 0 3958.01563414 0 -21.88825535 0 368.29206762 0 22519
0.14450000 0.14449900 10954.73086097 0 245.09659752 0 4142.35132742 0 -176.72602305 0 578.11200413 0 22218
0.14550000 0.14550500 10793.05448306 0 25.75109743 0 3918.80825293 0 -17.97805387 0 162.26532047 0 23559
0.14650000 0.14650700 10627.28545347 0 11.54460508 0 3737.92192190 0 373.06793703 0 38.46416010 0 23044
0.14750000 0.14750500 10679.14789040 0 33.46092116 0 3304.97704903 0 217.69690458 0 216.09089926 0 23649
0.14850000 0.14849900 10659.35010385 0 75.78060315 0 3184.51555897 0 436.12250080 0 67.86437224 0 23640
0.14950000 0.14949500 10550.25709066 0 36.06979251 0 2992.94840528 0 338.79946582 0 788.74936185 0 24457
0.15050000 0.15050000 10426.92298060 0 -11.27176163 0 2576.14122397 0 392.56847950 0 731.51213088 0 24591
0.15150000 0.15149900 10445.48964429 0 62.00411651 0 2591.39161977 0 268.76188445 0 909.63564475 0 25020
0.15250000 0.15250500 10467.61658220 0 51.77437283 0 2090.18042968 0 -114.27371128 0 634.50408589 0 25297
0.15350000 0.15350100 10375.70383309 0 107.12321660 0 2852.41184875 0 -224.42815201 0 961.95060252 0 25452
0.15450000 0.15450400 10244.84989150 0 139.14461131 0 2694.39556583 0 -214.78990186 0 546.10946446 0 26061
0.15550000 0.15549900 10026.28676444 0 137.05613893 0 2933.51068084 0 1.25591169 0 573.10100135 0 26128
0.15650000 0.15649500 9993.96701653 0 136.99624647 0 2738.60507686 0 73.03364640 0 220.41424783 0 26331
0.15750000 0.15749700 9853.28627444 0 80.21508551 0 2917.91645793 0 -65.25405904 0 524.60585181 0 27345
0.15850000 0.15849900 9649.88481360 0 86.64265597 0 2806.22810466 0 422.10544610 0 524.39622819 0 26980
0.15950000 0.15949700 9660.09980599 0 137.40662075 0 2668.91908644 0 -181.65606010 0 455.41785613 0 27777
0.16050000 0.16050000 9381.73294499 0 161.62092193 0 2685.83316178 0 -136.51156116 0 93.64031395 0 28224
0.16150000 0.16150500 9223.25083179 0 118.91094072 0 2801.52543715 0 -56.37777412 0 -16.28720089 0 28075
0.16250000 0.16249700 9058.74619866 0 189.17145515 0 3068.40181812 0 -277.96868704 0 -595.74589816 0 28590
0.16350000 0.16349900 8781.54391333 0 273.50448026 0 2927.75434962 0 -410.13915371 0 -670.69133418 0 29163
0.16450000 0.16449100 8698.51521298 0 -28.16032723 0 3098.69187699 0 175.60803040 0 -863.44080946 0 28996
0.16550000 0.16550500 8548.25167672 0 -22.93470979 0 2865.03363088 0 239.18831691 0 -1177.35273845 0 30777
0.16650000 0.16650700 8783.09668090 0 22.66297546 0 2528.03870280 0 415.33427036 0 -1117.75973724 0 29211
0.16750000 0.16749900 8535.98481290 0 -10.42480456 0 2181.29461261 0 279.10997120 0 -914.74868654 0 30922
0.16850000 0.16850800 8582.82293761 0 114.60755631 0 2118.47407310 0 220.58727050 0 -658.19266434 0 30867
0.16950000 0.16949900 8514.12406371 0 38.61599859 0 1865.51714430 0 13.15959427 0 -733.91559326 0 30852
0.17050000 0.17049200 8229.96759790 0 117.74414680 0 1851.57550973 0 67.49880639 0 -738.55836830 0 31257
0.17150000 0.17149500 8191.80278920 0 224.33609507 0 2091.92174760 0 -123.64577270 0 -373.54264026 0 32608
0.17250000 0.17250900 7995.15586731 0 62.07077460 0 1845.17588909 0 69.98756007 0 -349.39377714 0 32361
0.17350000 0.17350400 8043.55785079 0 -2.00871559 0 2350.85683155 0 126.46182760 0 -397.45969736 0 32508
0.17450000 0.17449800 8030.02659051 0 -46.98452851 0 1835.09399107 0 211.59120066 0 -304.95467833 0 32791
0.17550000 0.17549800 8156.89879240 0 -27.07239172 0 1816.73806012 0 50.45529677 0 -356.82044262 0 33633
0.17650000 0.17650100 8088.72120476 0 50.49722150 0 1912.65473133 0 -168.16029165 0 -50.01076160 0 33984
0.17750000 0.17750300 8189.36272587 0 30.43535355 0 1749.50322422 0 144.72791986 0 -180.35173534 0 34069
0.17850000 0.17849800 8089.44213256 0 6.27736238 0 1864.91821966 0 335.50427120 0 126.60934052 0 34536
