### header ###
fiducial parameters:
Omega_m = 0.31
Omega_nu = 0
Omega_de = 0.69
Omega_k = 0
H_0 = 100
w_de = -1
zeff = 0
beta = 0
fgrowth = 0
b_1 = 2
gamma = 0.55
Lx = 3500 Ly = 3500 Lz = 3500
nx = 700 ny = 700 nz = 700
xoffset = 1379.75464 yoffset = 22.6059522 zoffset = 368.141391
bins = 400 dk = 0.001
kx_ny = 0.628318531 ky_ny = 0.628318531 kz_ny = 0.628318531
############################
A(data) = 3.30598147 (not used)
A(ran) = 3.30249742 (used)
Ngal = 185498
weighted Ngal = 0
Nran = 9399747
weighted Nran = 0
SN(data) = 6699.7543
SN(ran) = 131.358099
SN(data+ran) = 6831.1124
############################
13 columns: k_central k_mean P_0(k) sigma^{lin}_{P_0(k)} P^img_1(k) sigma^{lin}_{P_1(k)} P_2(k) sigma^{lin}_{P_2(k)} P^img_3(k) sigma^{lin}_{P_3(k)} P_4(k) sigma^{lin}_{P_4(k)} N_modes
### header ###
0.00050000 0 0 0 0 0 0 0 0 0 0 0 0
0.00150000 0.00179520 35624.03730194 0 -17198.34272382 0 -39553.75929266 0 56222.27553827 0 -57814.41686018 0 3
0.00250000 0.00253879 58252.96278752 0 -16654.76316139 0 987.10987367 0 -30307.13930890 0 41174.84863861 0 6
0.00350000 0.00331552 56045.14912300 0 -521.66890286 0 -17946.11122207 0 -31915.80651427 0 -3019.55618676 0 7
0.00450000 0.00420575 53484.85721947 0 10857.27251339 0 6223.52570518 0 -31075.31560953 0 8658.23198566 0 24
0.00550000 0.00557378 40091.23869677 0 1824.60171876 0 11893.97778333 0 3602.25440083 0 3986.80838142 0 45
0.00650000 0.00659388 37734.24843330 0 1843.81167187 0 21706.02698752 0 8868.77617733 0 -6525.73863962 0 40
0.00750000 0.00754703 50105.48042132 0 -10041.68134580 0 -8902.40468648 0 14768.70512034 0 2664.42715167 0 57
0.00850000 0.00846663 51708.60202822 0 -4599.17554732 0 11814.23207728 0 -330.71398324 0 -31600.26196109 0 75
0.00950000 0.00948925 58184.86283825 0 3905.76500532 0 -1116.62843516 0 -18429.24376114 0 -2915.46530340 0 112
0.01050000 0.01054430 55723.72623544 0 -3622.77311518 0 18415.37976495 0 -23681.48007597 0 -26704.49671617 0 105
0.01150000 0.01145670 59656.77558525 0 -2648.61110483 0 18996.11483716 0 -6650.63660846 0 -40824.92137490 0 144
0.01250000 0.01249090 72809.71513418 0 -6624.10646536 0 18653.39685146 0 -14274.92503221 0 -41645.00447725 0 169
0.01350000 0.01339930 76785.02194436 0 -5536.88079331 0 26483.11642509 0 -9051.43709987 0 -45361.11001475 0 180
0.01450000 0.01448870 90362.19977656 0 -408.41114522 0 25165.14949173 0 -9063.61523412 0 -39452.05301664 0 267
0.01550000 0.01550050 86979.82835523 0 -2847.27662456 0 18654.61688312 0 -5532.58850009 0 -72715.66178406 0 238
0.01650000 0.01653350 91256.03933862 0 6112.97974519 0 41204.35122249 0 -11371.91514298 0 -35750.14421124 0 315
0.01750000 0.01747870 80126.02320107 0 11495.69290092 0 49723.94324630 0 -18913.37450793 0 -45460.26531547 0 297
0.01850000 0.01844180 82778.48295124 0 -135.39911410 0 54424.17068902 0 12445.87574348 0 -32178.88970588 0 388
0.01950000 0.01947590 79023.00366457 0 -4764.82257374 0 46276.24467495 0 22905.53993747 0 -24813.22581256 0 399
0.02050000 0.02045430 82861.22328048 0 -2307.63443705 0 26811.08311885 0 16583.11402910 0 -19601.02871872 0 462
0.02150000 0.02154770 83390.49519885 0 5419.53592960 0 30363.26076545 0 1716.28508936 0 -2997.79525835 0 571
0.02250000 0.02255340 72536.09530547 0 3970.17158599 0 21802.63131294 0 -5881.46210010 0 863.43526386 0 510
0.02350000 0.02348930 69596.26264237 0 3163.42010238 0 28135.81568234 0 8325.16334131 0 -1818.69011078 0 555
0.02450000 0.02439640 68474.05533515 0 405.44092268 0 18981.14172128 0 5508.35423476 0 -1765.75182775 0 592
0.02550000 0.02547300 66190.15605957 0 -755.08647000 0 23011.79360423 0 6303.89251826 0 7709.70173145 0 837
0.02650000 0.02652900 67858.49390452 0 2416.33925834 0 10322.03353106 0 1351.28488899 0 -5499.51455079 0 723
0.02750000 0.02749970 62545.92147829 0 4652.09164796 0 31062.44982107 0 1091.37821618 0 13342.15536886 0 826
0.02850000 0.02848090 56446.53954056 0 4200.41374344 0 16586.88503607 0 -4297.61699350 0 2945.77754466 0 831
0.02950000 0.02946900 55027.30997906 0 2695.75978305 0 33978.10367482 0 2432.67659144 0 22753.70145125 0 996
0.03050000 0.03053250 51950.50103366 0 -1063.32746998 0 25092.28032778 0 6178.25143923 0 13403.93333587 0 1041
0.03150000 0.03150510 54331.44828253 0 245.50586269 0 30736.81227867 0 10705.40075358 0 21603.21159181 0 1036
0.03250000 0.03246190 54397.32999241 0 -1693.03794056 0 23626.68956304 0 135.73185001 0 20389.39099780 0 1059
0.03350000 0.03345080 55021.54255665 0 331.50367647 0 22558.71820890 0 4014.18145549 0 13132.42083457 0 1302
0.03450000 0.03451200 55492.25295513 0 2381.93436540 0 22086.89869072 0 -5508.12131962 0 16646.22293974 0 1339
0.03550000 0.03553350 50412.81748876 0 1756.42413111 0 20050.66584300 0 -758.44266619 0 5338.95838377 0 1365
0.03650000 0.03647120 51073.85282687 0 1312.89825635 0 28941.25840472 0 2456.79994480 0 13087.94513481 0 1308
0.03750000 0.03744890 47967.54129758 0 1027.81234823 0 20426.99015545 0 2587.64279520 0 2107.09450503 0 1579
0.03850000 0.03847530 49146.31370924 0 538.78261975 0 25076.41991614 0 2832.15932312 0 11433.69310998 0 1662
0.03950000 0.03950240 44437.76786881 0 1486.46439739 0 17881.78227977 0 2640.03760959 0 3667.65918923 0 1683
0.04050000 0.04050350 45342.69862782 0 558.74122866 0 20201.72794543 0 3181.89803649 0 11132.67802481 0 1822
0.04150000 0.04152450 43609.58819269 0 -1211.28070991 0 13902.92628657 0 3713.08873193 0 9872.07476207 0 1887
0.04250000 0.04250150 45579.93933054 0 729.61553620 0 16480.74228127 0 1335.46884214 0 2009.93561976 0 1920
0.04350000 0.04349210 42600.84383025 0 850.16686495 0 11970.83977819 0 -809.02850635 0 6248.42544233 0 2005
0.04450000 0.04448520 41969.31107601 0 1495.44826692 0 14107.44795829 0 -1649.20553022 0 4229.12885234 0 2151
0.04550000 0.04548030 41449.91032293 0 -322.35898458 0 12596.60511000 0 2122.04543851 0 4960.49347030 0 2274
0.04650000 0.04648670 41862.83558531 0 -893.71866801 0 11656.62616864 0 5525.53449883 0 652.83561621 0 2311
0.04750000 0.04749250 42474.73692094 0 186.01711874 0 8683.55318829 0 -1316.44743938 0 -2048.38879958 0 2568
0.04850000 0.04851840 40951.58284404 0 1898.09198973 0 11022.87517502 0 -3391.55493240 0 1234.32821717 0 2493
0.04950000 0.04949480 38630.41714672 0 1406.30831705 0 11695.55626993 0 -2056.76265328 0 -2526.58575600 0 2644
0.05050000 0.05050630 36425.37628144 0 1438.14005229 0 13872.09275905 0 -1090.14931156 0 -364.19830683 0 2829
0.05150000 0.05149060 37224.60793353 0 589.70119582 0 13081.40132861 0 2133.02572349 0 -4829.26242801 0 2784
0.05250000 0.05249300 34948.13975991 0 112.97382299 0 12125.89471152 0 5022.23816372 0 227.01794650 0 3055
0.05350000 0.05348950 33615.86518249 0 995.07002572 0 10573.47096588 0 1076.19547668 0 -984.21174391 0 3009
0.05450000 0.05448610 33501.18220605 0 821.96416935 0 9196.33249680 0 1728.51867959 0 5310.78674352 0 3336
0.05550000 0.05550870 31238.68894058 0 544.33043647 0 7671.65892592 0 2791.75409264 0 3797.98075337 0 3349
0.05650000 0.05647670 30841.95682574 0 227.11000343 0 7486.21411294 0 646.36057543 0 6612.39416138 0 3324
0.05750000 0.05747970 30249.79782067 0 355.47951691 0 6095.78838992 0 1314.97231018 0 3585.26268710 0 3639
0.05850000 0.05849280 30371.57916317 0 -171.36675669 0 5833.50376449 0 1035.53403955 0 5629.91375331 0 3846
0.05950000 0.05951020 29892.21763106 0 179.60973426 0 4494.79629284 0 -11.63433286 0 6137.53565524 0 3787
0.06050000 0.06049470 29958.76481275 0 693.59465588 0 6711.53837090 0 -1066.60159132 0 5391.40865414 0 3930
0.06150000 0.06148310 30039.39781457 0 -29.82489407 0 5213.74986142 0 523.68639159 0 5134.20379691 0 4083
0.06250000 0.06249100 29800.27160836 0 -383.43487882 0 6333.72783806 0 1697.80715524 0 7104.61039074 0 4303
0.06350000 0.06350600 30205.65485682 0 -519.22773041 0 3639.31008983 0 1409.09220748 0 7831.82690105 0 4470
0.06450000 0.06451750 31321.09653390 0 -63.44741397 0 3189.40677682 0 1123.07242058 0 5355.80591193 0 4479
0.06550000 0.06550280 30809.57053065 0 547.76094368 0 4869.40146977 0 -2135.33269246 0 4894.54521325 0 4636
0.06650000 0.06648880 29989.82016421 0 451.04348805 0 5394.15927098 0 -1304.09184598 0 4456.90876407 0 4653
0.06750000 0.06749660 29940.90798567 0 278.76503498 0 4635.61012930 0 -1362.34281235 0 1811.22573524 0 5220
0.06850000 0.06852730 29794.83692186 0 456.15652985 0 6072.21959641 0 -1940.48254447 0 -1139.13247376 0 5029
0.06950000 0.06949320 28869.05471259 0 305.18093875 0 6891.85905088 0 -411.75403198 0 -3928.46868547 0 5040
0.07050000 0.07048030 29034.53537106 0 239.89149879 0 7164.89104616 0 -25.13575782 0 -2740.02475007 0 5475
0.07150000 0.07148790 28151.45427004 0 685.55353809 0 6335.00332570 0 -493.16785406 0 -4118.48307159 0 5509
0.07250000 0.07249820 27538.11107880 0 221.49009394 0 7083.67021091 0 1742.16085184 0 -2274.95977084 0 5916
0.07350000 0.07351270 27375.18139563 0 350.19899804 0 7455.77986852 0 827.62733452 0 -2366.76160798 0 5721
0.07450000 0.07449140 26535.91052256 0 905.70603367 0 6255.11343409 0 7.70980155 0 -398.75736740 0 6028
0.07550000 0.07549160 24933.34347551 0 791.90148003 0 8424.31864202 0 -418.61393730 0 1279.19210883 0 6183
0.07650000 0.07648840 24199.21714951 0 725.51733893 0 8418.10757173 0 -17.49259218 0 1355.03371356 0 6330
0.07750000 0.07749960 23889.44001875 0 129.98217351 0 9104.57502445 0 1015.96029518 0 3016.45065161 0 6583
0.07850000 0.07848650 23730.05951860 0 -264.21782106 0 8426.08214234 0 1228.68279792 0 3056.62296696 0 6549
0.07950000 0.07947320 23957.42905604 0 2.85884474 0 8002.11004779 0 679.40014202 0 2450.17850023 0 6828
0.08050000 0.08048110 24106.93839090 0 281.29826436 0 6570.68016966 0 518.20955853 0 3321.35874692 0 7147
0.08150000 0.08149960 23287.07711249 0 656.36594420 0 7249.91616196 0 -605.35974767 0 3675.96649575 0 7386
0.08250000 0.08250610 22499.71304113 0 331.86524949 0 7866.91944819 0 -27.99850666 0 2959.97427675 0 7227
0.08350000 0.08350160 22073.81107832 0 564.56854354 0 7834.57751789 0 -216.66098679 0 1680.62689117 0 7798
0.08450000 0.08449610 21500.17437216 0 427.50796813 0 8723.93623638 0 -39.88538608 0 3120.74117652 0 7371
0.08550000 0.08548940 20782.35210567 0 593.48329398 0 8277.33810006 0 96.38959985 0 1722.48506845 0 8256
0.08650000 0.08650700 20841.80092131 0 27.62440059 0 8646.02057782 0 115.39059481 0 2649.72022452 0 8037
0.08750000 0.08749060 20201.17338558 0 14.55442320 0 8829.94589681 0 112.52906600 0 1595.04721552 0 8155
0.08850000 0.08849210 20666.89274544 0 62.91925117 0 8074.49119908 0 440.85955102 0 2564.32909922 0 8718
0.08950000 0.08949900 20536.90391721 0 -425.92747256 0 7488.06634284 0 2146.09115350 0 2496.53970347 0 8571
0.09050000 0.09049190 20863.09601945 0 96.82138014 0 6258.81789387 0 394.53162136 0 2378.92865103 0 8932
0.09150000 0.09150830 20335.26595669 0 777.85558821 0 6710.62889275 0 -1187.43463647 0 683.56599559 0 9285
0.09250000 0.09250820 19383.41943459 0 860.63695487 0 7062.15328883 0 -638.20521832 0 2479.76981368 0 9204
0.09350000 0.09350330 18704.86000530 0 161.37358824 0 7680.96444016 0 317.30694437 0 1683.31096083 0 9349
0.09450000 0.09448040 18299.80949275 0 92.33754195 0 7507.80867340 0 669.36039054 0 1230.35756866 0 9564
0.09550000 0.09549270 18218.28919518 0 322.37673050 0 7284.33214609 0 553.31430599 0 837.93992944 0 10155
0.09650000 0.09649430 17967.18449627 0 65.09057479 0 6905.68977348 0 451.91636525 0 1914.55132601 0 9913
0.09750000 0.09749140 17570.67420537 0 114.24154681 0 6944.98588427 0 152.82893011 0 1942.54550710 0 10476
0.09850000 0.09850240 17898.64089913 0 305.25746801 0 6822.98271784 0 -609.43021695 0 358.42533882 0 10575
0.09950000 0.09950330 17115.04783474 0 387.26245088 0 7259.02203466 0 -366.27125154 0 803.69585886 0 10882
0.10050000 0.10051200 16572.13374413 0 544.96485293 0 7689.52684420 0 -286.27599355 0 897.65160645 0 10875
0.10150000 0.10150300 16445.47227498 0 58.43452568 0 7640.37065933 0 -20.83192976 0 50.15849634 0 11118
0.10250000 0.10250800 16089.11211703 0 88.65559730 0 8256.89702409 0 711.20525839 0 762.51202635 0 11575
0.10350000 0.10349800 15943.92834898 0 257.96904070 0 7063.45095887 0 506.71907849 0 111.61958785 0 11364
0.10450000 0.10450100 15755.04526495 0 3.20548901 0 7011.81034588 0 188.28637763 0 498.47166444 0 12093
0.10550000 0.10551000 15507.15701316 0 129.86349771 0 6676.65655650 0 416.65745016 0 -31.08441039 0 12067
0.10650000 0.10649700 15723.54626562 0 -11.30503523 0 6362.91986842 0 377.78724133 0 918.10599186 0 12054
0.10750000 0.10749900 15492.40572122 0 -23.07456978 0 5625.66582488 0 502.12066824 0 280.24903713 0 12807
0.10850000 0.10850100 15445.37904616 0 44.29568964 0 5034.19447403 0 928.61157361 0 714.06900544 0 12736
0.10950000 0.10950300 15438.16976814 0 71.43817772 0 4660.56532243 0 546.13719245 0 1132.59975876 0 12933
0.11050000 0.11050200 14995.63100991 0 327.04279705 0 4472.61389895 0 382.11724462 0 1155.49198926 0 13428
0.11150000 0.11150900 14660.01139025 0 298.32436080 0 4095.90139460 0 495.78981302 0 2237.23861002 0 13453
0.11250000 0.11250000 14100.01685634 0 90.48830669 0 4033.22504065 0 239.55654465 0 1829.32656866 0 13668
0.11350000 0.11349100 14219.35813550 0 208.09636450 0 3837.75378563 0 43.27252672 0 2221.72202549 0 13791
0.11450000 0.11448600 13750.97688838 0 309.25251715 0 4158.17846546 0 -33.32283576 0 1634.16586715 0 14205
0.11550000 0.11549300 13435.21051126 0 47.52389342 0 4159.43177072 0 100.65982158 0 2242.60674934 0 14776
0.11650000 0.11649800 13241.89094845 0 -98.71076554 0 3148.33607453 0 485.44061715 0 810.26184745 0 14553
0.11750000 0.11747300 13873.42370268 0 -100.53914936 0 3461.46274677 0 308.76672272 0 1630.97160243 0 14568
0.11850000 0.11849100 13448.96359548 0 75.79025249 0 2810.67567463 0 172.01559171 0 1535.86458860 0 16015
0.11950000 0.11950300 13758.29707836 0 223.59742136 0 3241.14721059 0 43.20043394 0 1147.62833063 0 15270
0.12050000 0.12050700 13163.80892194 0 308.68686610 0 2957.02401837 0 -772.74254642 0 471.38917974 0 15999
0.12150000 0.12150000 12995.77728817 0 447.20260655 0 4194.79050659 0 -714.65129328 0 773.42021855 0 15670
0.12250000 0.12250700 12463.62165860 0 146.83857464 0 4017.66409133 0 -128.23641912 0 1365.00469961 0 16887
0.12350000 0.12352200 12615.23832088 0 -162.88199102 0 4585.65537824 0 520.62078475 0 111.75933693 0 16407
0.12450000 0.12449800 12878.09968855 0 -8.40306791 0 3652.43097582 0 140.48110055 0 275.54747874 0 16306
0.12550000 0.12549900 12842.38603438 0 -97.77655402 0 3754.48107894 0 282.89761496 0 360.49717441 0 17523
0.12650000 0.12650100 12764.52583180 0 -38.41402789 0 3315.32513578 0 227.31186321 0 -211.01113106 0 17154
0.12750000 0.12750600 12896.84381139 0 184.07061367 0 3374.68522184 0 -123.60917175 0 -421.93353254 0 18007
0.12850000 0.12850300 12544.80922026 0 362.40486028 0 3626.12265666 0 -764.41749399 0 -1055.58914187 0 17496
0.12950000 0.12949900 11910.83640270 0 282.85990489 0 3678.16255274 0 2.04082460 0 -610.86985432 0 18405
0.13050000 0.13049000 11938.00983522 0 -29.85140203 0 3234.05993574 0 264.48400979 0 -1060.50476036 0 18100
0.13150000 0.13148800 12245.23599069 0 -276.20296848 0 3336.60914272 0 685.57682960 0 -452.37997729 0 19059
0.13250000 0.13249300 12360.91717486 0 -114.34136758 0 3102.59597831 0 772.27449791 0 -430.66119542 0 18957
0.13350000 0.13349100 12505.32455912 0 76.86576586 0 2566.35878826 0 173.91995023 0 -94.53093706 0 19468
0.13450000 0.13450700 12245.56872659 0 195.62320441 0 2730.02049043 0 -506.67360459 0 519.90651167 0 19953
0.13550000 0.13551000 11812.34657380 0 404.62017411 0 3852.48289518 0 -211.78307837 0 676.27353360 0 19956
0.13650000 0.13649900 11592.51905028 0 313.54037389 0 3520.16845221 0 -55.50611695 0 1352.77110938 0 19723
0.13750000 0.13749600 11296.93865161 0 105.41672504 0 3883.66024980 0 332.49412035 0 1181.03501583 0 20946
0.13850000 0.13851100 11215.08561813 0 9.63268237 0 3991.48886653 0 586.95390634 0 2145.61423203 0 20955
0.13950000 0.13949800 11164.95340793 0 12.80667238 0 3055.75785360 0 560.63005950 0 1977.91533417 0 20506
0.14050000 0.14048300 11014.71205407 0 -18.44255320 0 2959.05370741 0 423.14912773 0 2549.98818156 0 21447
0.14150000 0.14148400 10966.74262727 0 191.59709992 0 2811.27459927 0 -106.75310336 0 1924.52231206 0 21771
0.14250000 0.14249400 10863.94941395 0 124.77374743 0 2756.43972156 0 -219.05003061 0 1722.98417232 0 22470
0.14350000 0.14350900 10700.56499171 0 42.79094695 0 2556.76490290 0 -86.59740388 0 1011.35855756 0 22519
0.14450000 0.14449900 10539.68717997 0 171.63072718 0 2813.17119395 0 -329.59931795 0 304.27256972 0 22218
0.14550000 0.14550500 10469.91245997 0 201.57363158 0 2659.42502185 0 -556.50524336 0 155.89231871 0 23559
0.14650000 0.14650700 10233.52577941 0 105.71829469 0 2983.35451992 0 -86.50523604 0 -590.87131710 0 23044
0.14750000 0.14750500 10186.24400682 0 51.46271019 0 3119.66533041 0 12.44909219 0 -274.80325943 0 23649
0.14850000 0.14849900 9964.19824392 0 179.22154237 0 2720.55969943 0 235.09677435 0 -994.94247696 0 23640
0.14950000 0.14949500 9804.05245118 0 201.48046552 0 3277.19360067 0 69.05612135 0 -106.43090409 0 24457
0.15050000 0.15050000 9496.42701263 0 107.91856634 0 2891.36413243 0 315.23399966 0 -428.72910891 0 24591
0.15150000 0.15149900 9519.30815193 0 53.60253482 0 3060.84871300 0 167.12104650 0 273.47120667 0 25020
0.15250000 0.15250500 9393.75580248 0 108.92531428 0 2840.69954477 0 -81.52806141 0 -16.16153763 0 25297
0.15350000 0.15350100 9227.75385775 0 124.73049176 0 3041.82731023 0 -16.10940901 0 -434.22479700 0 25452
0.15450000 0.15450400 9119.33740759 0 113.53060108 0 3081.79998403 0 -323.79418547 0 -134.12695381 0 26061
0.15550000 0.15549900 8980.50889538 0 135.60208301 0 2925.79120776 0 152.01261801 0 -493.36305913 0 26128
0.15650000 0.15649500 8958.30431909 0 -10.38621829 0 3010.74977638 0 338.73180952 0 -228.39103668 0 26331
0.15750000 0.15749700 8861.95509121 0 -72.38658597 0 1944.25355143 0 631.69024923 0 -537.75779315 0 27345
0.15850000 0.15849900 8994.63908030 0 -110.75114713 0 1980.79904538 0 568.48373606 0 31.67812216 0 26980
0.15950000 0.15949700 8928.31372255 0 5.01067005 0 1242.85734762 0 330.53097849 0 -234.71412806 0 27777
0.16050000 0.16050000 8970.04989666 0 155.46530762 0 1363.80685034 0 -96.19694576 0 368.71242399 0 28224
0.16150000 0.16150500 8748.45887283 0 219.48258729 0 1260.20397965 0 -381.95531314 0 -183.90313660 0 28075
0.16250000 0.16249700 8638.71147903 0 14.71835109 0 1542.30857403 0 -286.43127031 0 -442.45557426 0 28590
0.16350000 0.16349900 8537.93686356 0 50.33806282 0 1821.18563010 0 -101.37875297 0 -330.39455677 0 29163
0.16450000 0.16449100 8541.88532967 0 136.49714260 0 2025.19710676 0 -320.50897293 0 -701.16772515 0 28996
0.16550000 0.16550500 8385.37744954 0 88.99243695 0 2099.09775203 0 -108.18697330 0 -395.81043637 0 30777
0.16650000 0.16650700 8460.56467365 0 1.69461289 0 2161.20845494 0 294.51120728 0 -891.05899898 0 29211
0.16750000 0.16749900 8530.32830245 0 -25.57785293 0 2395.76508800 0 42.27032616 0 -690.72979970 0 30922
0.16850000 0.16850800 8412.97234754 0 89.41534429 0 2088.49456774 0 -157.33750167 0 -638.75534168 0 30867
0.16950000 0.16949900 8353.67880866 0 95.35201837 0 2606.37582685 0 -236.98782343 0 22.12693791 0 30852
0.17050000 0.17049200 8347.90029505 0 50.77827243 0 2455.84610187 0 1.97287993 0 -994.86483858 0 31257
0.17150000 0.17149500 8369.94959458 0 5.64043930 0 2529.91311509 0 170.16225270 0 -412.04240311 0 32608
0.17250000 0.17250900 8379.63220952 0 67.60683465 0 2399.07026469 0 177.89947169 0 -301.13708834 0 32361
0.17350000 0.17350400 8279.67834262 0 12.33196915 0 2193.38401728 0 306.74923400 0 -184.18818036 0 32508
0.17450000 0.17449800 8236.71104564 0 69.59881362 0 2180.85096473 0 256.84439333 0 39.01139976 0 32791
0.17550000 0.17549800 8279.47870108 0 1.41162100 0 1924.04539059 0 239.59869119 0 108.25917700 0 33633
0.17650000 0.17650100 8096.62922819 0 167.98061426 0 2105.25336633 0 -82.17478910 0 496.44530276 0 33984
0.17750000 0.17750300 7897.04313910 0 147.81903645 0 2052.98055512 0 -63.28071328 0 356.10949690 0 34069
0.17850000 0.17849800 7822.41047484 0 39.89292810 0 1961.25635635 0 122.35143001 0 438.43390624 0 34536
