### header ###
fiducial parameters:
Omega_m = 0.31
Omega_nu = 0
Omega_de = 0.69
Omega_k = 0
H_0 = 100
w_de = -1
zeff = 0
beta = 0
fgrowth = 0
b_1 = 2
gamma = 0.55
Lx = 3500 Ly = 3500 Lz = 3500
nx = 700 ny = 700 nz = 700
xoffset = 1379.75464 yoffset = 22.6059522 zoffset = 368.141391
bins = 400 dk = 0.001
kx_ny = 0.628318531 ky_ny = 0.628318531 kz_ny = 0.628318531
############################
A(data) = 3.36380765 (not used)
A(ran) = 3.36680283 (used)
Ngal = 188976
weighted Ngal = 0
Nran = 9399747
weighted Nran = 0
SN(data) = 6608.36355
SN(ran) = 133.915871
SN(data+ran) = 6742.27942
############################
13 columns: k_central k_mean P_0(k) sigma^{lin}_{P_0(k)} P^img_1(k) sigma^{lin}_{P_1(k)} P_2(k) sigma^{lin}_{P_2(k)} P^img_3(k) sigma^{lin}_{P_3(k)} P_4(k) sigma^{lin}_{P_4(k)} N_modes
### header ###
0.00050000 0 0 0 0 0 0 0 0 0 0 0 0
0.00150000 0.00179520 30330.09808658 0 -31898.06059915 0 -32519.05671628 0 30164.39560417 0 62685.89238378 0 3
0.00250000 0.00253879 65337.02119031 0 -48889.99614777 0 -48990.03874424 0 -30784.06077767 0 21777.45429587 0 6
0.00350000 0.00331552 97008.15589990 0 -44570.64040825 0 -90395.02971953 0 -16467.21102100 0 -68083.53429060 0 7
0.00450000 0.00420575 132212.61322129 0 -23822.56010115 0 -79068.36666009 0 -68032.73660858 0 -29238.05883506 0 24
0.00550000 0.00557378 122128.49695596 0 15852.53688613 0 -33802.75185107 0 -93945.32186265 0 -15736.96661392 0 45
0.00650000 0.00659388 109210.57987037 0 32928.54370761 0 -2867.85079490 0 -59166.32285620 0 -32391.17521547 0 40
0.00750000 0.00754703 70912.78772013 0 16848.52637208 0 33549.20708883 0 -25048.80283574 0 -14657.46041495 0 57
0.00850000 0.00846663 61516.88022544 0 6746.75292121 0 36188.69013857 0 21021.70013581 0 -39080.38700691 0 75
0.00950000 0.00948925 58727.88784084 0 479.61330227 0 30009.89523068 0 18121.13030991 0 -23343.08765708 0 112
0.01050000 0.01054430 53303.29432543 0 -1007.84930285 0 14641.71091529 0 9612.34111193 0 -7563.38666131 0 105
0.01150000 0.01145670 61625.01939568 0 -287.47717018 0 5985.90790176 0 13688.97709744 0 -4851.89956098 0 144
0.01250000 0.01249090 56125.11665300 0 -2646.28195347 0 1706.92411913 0 -7402.47557599 0 -13107.35472947 0 169
0.01350000 0.01339930 60013.69030305 0 627.61423435 0 1271.73882448 0 -7946.37678313 0 -14575.60738148 0 180
0.01450000 0.01448870 55418.27467149 0 2748.04368547 0 2022.43539872 0 -6158.70875021 0 -10598.81435090 0 267
0.01550000 0.01550050 48740.81954881 0 1532.99196859 0 13995.75960502 0 -7264.31253560 0 -24637.76307684 0 238
0.01650000 0.01653350 57041.02769698 0 -2292.26203808 0 -458.52339128 0 10025.86529895 0 -21988.85250970 0 315
0.01750000 0.01747870 60719.09042895 0 -4235.41756101 0 13244.22009981 0 -3331.60701290 0 -23965.85836572 0 297
0.01850000 0.01844180 63391.51433363 0 -1535.80913262 0 -2260.66321797 0 -952.52086687 0 340.58736677 0 388
0.01950000 0.01947590 67591.08514610 0 -3025.57870670 0 412.72783908 0 5271.11353204 0 -4058.08041301 0 399
0.02050000 0.02045430 66637.57494446 0 -2413.41118234 0 -7967.87152282 0 11986.25654194 0 2669.15200157 0 462
0.02150000 0.02154770 69504.64935558 0 251.76906160 0 -4153.07651487 0 4534.79114904 0 8990.14714553 0 571
0.02250000 0.02255340 71703.92279844 0 -2079.76579575 0 -10393.83794010 0 4807.95623868 0 15428.96407467 0 510
0.02350000 0.02348930 69875.20624562 0 472.27092989 0 -6491.47793225 0 -512.96453150 0 20017.94681200 0 555
0.02450000 0.02439640 74081.20995232 0 616.29677698 0 -8103.99378296 0 -4094.25989745 0 14528.69161839 0 592
0.02550000 0.02547300 66737.28480503 0 2309.42011976 0 -2304.77290823 0 -6672.44190166 0 21207.25586076 0 837
0.02650000 0.02652900 65974.54319090 0 3125.83203592 0 3796.11743229 0 -1456.14106494 0 4043.51767141 0 723
0.02750000 0.02749970 64666.22559889 0 1142.18255292 0 7158.80197903 0 -1936.42316639 0 17727.28190628 0 826
0.02850000 0.02848090 61613.26272692 0 1041.51663118 0 7291.43051214 0 -677.56454893 0 3524.19455671 0 831
0.02950000 0.02946900 64176.21651771 0 2013.90626827 0 18722.05136057 0 -3964.42634598 0 11874.56818868 0 996
0.03050000 0.03053250 58100.79156539 0 2125.88299266 0 17100.85110265 0 -3042.43732606 0 2477.67357746 0 1041
0.03150000 0.03150510 57073.63581601 0 4214.29992202 0 23314.25054501 0 -2025.74057541 0 1373.14563817 0 1036
0.03250000 0.03246190 54027.88222206 0 1209.56157439 0 27306.85962243 0 -2115.74563865 0 8724.57952580 0 1059
0.03350000 0.03345080 54837.20686337 0 -2025.44111309 0 26260.62701431 0 7881.18272747 0 3053.10705753 0 1302
0.03450000 0.03451200 54933.36754091 0 -215.56850389 0 22674.17756913 0 6791.32844174 0 9385.34867519 0 1339
0.03550000 0.03553350 58181.64639114 0 70.37819203 0 12880.98339976 0 5190.61362459 0 8163.24295706 0 1365
0.03650000 0.03647120 54213.32703503 0 870.80314600 0 20712.36665293 0 1432.76082177 0 15028.57186484 0 1308
0.03750000 0.03744890 54701.89426060 0 1677.37717046 0 14446.50584900 0 4854.93854895 0 10298.77529106 0 1579
0.03850000 0.03847530 50775.61054093 0 1804.88157058 0 19370.22091022 0 -175.12778157 0 17032.86206535 0 1662
0.03950000 0.03950240 47690.70502175 0 2035.00172486 0 9734.54391991 0 267.53852543 0 10078.68157882 0 1683
0.04050000 0.04050350 46089.24709440 0 1143.21403424 0 19720.03726197 0 462.64488006 0 12178.57789703 0 1822
0.04150000 0.04152450 45051.88744383 0 661.12961329 0 14099.24047255 0 -602.48269119 0 10348.17548227 0 1887
0.04250000 0.04250150 43588.40400651 0 680.25083683 0 13887.84225872 0 2083.30388757 0 3719.00033991 0 1920
0.04350000 0.04349210 44311.21731163 0 780.84244755 0 17333.32259068 0 -3494.24832495 0 4354.85866095 0 2005
0.04450000 0.04448520 40596.66454170 0 1367.31166858 0 15881.15217425 0 -3287.45295785 0 -5493.61403401 0 2151
0.04550000 0.04548030 40921.96934819 0 1755.73647690 0 18332.19578784 0 -3329.01167281 0 -2447.96026084 0 2274
0.04650000 0.04648670 39617.53367511 0 914.23405501 0 22568.92211009 0 -3097.08365343 0 -8215.53795067 0 2311
0.04750000 0.04749250 38965.81494243 0 1187.83391956 0 24759.43350736 0 -1166.35027108 0 -6078.33084593 0 2568
0.04850000 0.04851840 37990.78781872 0 754.16590065 0 25509.86389288 0 1284.05005309 0 -7285.34144502 0 2493
0.04950000 0.04949480 38551.55873642 0 -96.35022610 0 26793.33720373 0 3736.52443108 0 -4225.22475102 0 2644
0.05050000 0.05050630 37477.37631198 0 -363.88886243 0 24567.99944804 0 3163.05409288 0 957.05383906 0 2829
0.05150000 0.05149060 38483.45878716 0 -519.24658545 0 22486.51451677 0 5592.04840693 0 3315.81314844 0 2784
0.05250000 0.05249300 39360.32881788 0 -387.73493587 0 19894.50178997 0 3112.00131332 0 5722.17032953 0 3055
0.05350000 0.05348950 39149.15242799 0 116.61728119 0 18670.14455885 0 2469.72118925 0 5308.66832490 0 3009
0.05450000 0.05448610 39181.87145899 0 324.03597356 0 20256.74028229 0 -385.19172441 0 11122.14138771 0 3336
0.05550000 0.05550870 37830.52002281 0 1006.53943249 0 17861.92903723 0 -182.13187245 0 5455.00557744 0 3349
0.05650000 0.05647670 37685.22534279 0 860.88761592 0 18862.90956181 0 -645.08841514 0 5892.09855797 0 3324
0.05750000 0.05747970 36920.15457730 0 -290.19562255 0 17138.89390818 0 2828.45486334 0 5092.23470766 0 3639
0.05850000 0.05849280 36950.76628088 0 -189.91678358 0 16643.45014050 0 2775.67185707 0 2043.59740250 0 3846
0.05950000 0.05951020 37176.80487469 0 599.73983818 0 16039.64537864 0 -0.29427940 0 4034.27870436 0 3787
0.06050000 0.06049470 36099.84965101 0 710.79266586 0 13834.16086549 0 943.24529886 0 2191.90888809 0 3930
0.06150000 0.06148310 35034.09653626 0 618.88546235 0 15343.89459408 0 -565.00997318 0 1819.33340020 0 4083
0.06250000 0.06249100 34139.14785451 0 817.64082078 0 13228.47060015 0 -91.87470630 0 348.31460368 0 4303
0.06350000 0.06350600 32582.16562692 0 595.87233780 0 14386.72429745 0 1908.19607015 0 1833.13084921 0 4470
0.06450000 0.06451750 32675.77532916 0 -47.70956006 0 12594.27595865 0 554.67519586 0 1485.18890975 0 4479
0.06550000 0.06550280 32289.80167536 0 384.51848876 0 11233.16426916 0 1638.64671072 0 -121.62939309 0 4636
0.06650000 0.06648880 32064.53946534 0 502.11845000 0 12181.35069626 0 -307.21395515 0 811.58169989 0 4653
0.06750000 0.06749660 29907.07983497 0 833.84395041 0 10419.28114590 0 -495.57797116 0 -578.07429406 0 5220
0.06850000 0.06852730 30247.24684538 0 858.06601542 0 11656.40434470 0 116.26236289 0 842.26105977 0 5029
0.06950000 0.06949320 28550.62644821 0 36.79072031 0 10643.48969221 0 1726.95482082 0 -73.03209363 0 5040
0.07050000 0.07048030 28910.86852508 0 -252.66412120 0 10420.12407687 0 1395.20602890 0 -640.14617778 0 5475
0.07150000 0.07148790 29102.85714426 0 365.07340227 0 8525.08216630 0 1155.40325969 0 -327.77925253 0 5509
0.07250000 0.07249820 28072.92859565 0 489.32253608 0 8555.16149242 0 41.25980721 0 502.23934405 0 5916
0.07350000 0.07351270 27051.98391656 0 540.27993134 0 9075.39408528 0 -1291.01532477 0 -856.03299902 0 5721
0.07450000 0.07449140 26884.50684264 0 789.50910884 0 8200.60919958 0 220.55843339 0 850.00493348 0 6028
0.07550000 0.07549160 26250.75584902 0 400.18702269 0 9985.36024770 0 481.03297548 0 -56.59205604 0 6183
0.07650000 0.07648840 25438.32567257 0 461.99937240 0 9194.08098382 0 523.70635574 0 420.96859841 0 6330
0.07750000 0.07749960 25105.58976412 0 287.38954972 0 10314.73552347 0 362.75423299 0 2218.61649034 0 6583
0.07850000 0.07848650 24936.89265854 0 -14.47501023 0 8050.46766649 0 1154.63796710 0 1138.27845160 0 6549
0.07950000 0.07947320 24627.78099959 0 288.57298044 0 9816.44131818 0 38.44341957 0 2224.26190959 0 6828
0.08050000 0.08048110 24619.35168991 0 393.02100034 0 8885.43515514 0 -704.35755339 0 804.17278033 0 7147
0.08150000 0.08149960 24023.64350182 0 365.39061050 0 10466.69601286 0 -650.07945377 0 1315.30504609 0 7386
0.08250000 0.08250610 23420.17147587 0 402.67921464 0 9405.86738955 0 -57.07430129 0 -313.38176977 0 7227
0.08350000 0.08350160 23446.56852460 0 -116.49638715 0 9946.65197035 0 1004.34448461 0 -286.65974896 0 7798
0.08450000 0.08449610 23182.04347739 0 224.90396436 0 8809.19426732 0 1545.90212184 0 723.41666623 0 7371
0.08550000 0.08548940 22763.46170456 0 263.07210041 0 8206.72044910 0 270.20041269 0 -1299.62209360 0 8256
0.08650000 0.08650700 22605.52306002 0 204.58156419 0 7161.49713989 0 1066.84005206 0 1934.82603403 0 8037
0.08750000 0.08749060 21952.69520765 0 448.30063505 0 6611.90614871 0 360.83434680 0 -348.46211660 0 8155
0.08850000 0.08849210 21548.64290282 0 547.28291309 0 7222.33235515 0 -364.00642912 0 1326.07459833 0 8718
0.08950000 0.08949900 20763.38615889 0 437.93147502 0 6813.05609657 0 554.00528756 0 -206.15540504 0 8571
0.09050000 0.09049190 19953.39604576 0 244.34683261 0 7026.06253396 0 305.39499885 0 2225.42648527 0 8932
0.09150000 0.09150830 20193.74228363 0 -248.40842893 0 6215.19621627 0 1179.40460988 0 1443.23091169 0 9285
0.09250000 0.09250820 20525.25816041 0 -346.98920564 0 4878.07478578 0 1974.00014165 0 1820.47579349 0 9204
0.09350000 0.09350330 20467.91667219 0 301.71493970 0 4647.40007165 0 -95.81041754 0 2481.35585485 0 9349
0.09450000 0.09448040 19993.32435477 0 478.27126744 0 5112.24322695 0 -834.98967105 0 1922.27079908 0 9564
0.09550000 0.09549270 19323.74879501 0 583.69087620 0 5275.93820271 0 -408.86477518 0 2682.08433722 0 10155
0.09650000 0.09649430 18645.74392557 0 425.56257219 0 5803.15824964 0 -455.81713922 0 2014.64937846 0 9913
0.09750000 0.09749140 18223.72388169 0 571.28869977 0 6553.08953130 0 -35.15210687 0 2253.26538961 0 10476
0.09850000 0.09850240 17747.02423685 0 74.50777739 0 5826.30557767 0 380.94046862 0 586.16643135 0 10575
0.09950000 0.09950330 17442.68179259 0 111.77486460 0 6277.57310791 0 665.35646845 0 1986.32246146 0 10882
0.10050000 0.10051200 17240.26744829 0 -7.28688312 0 5595.74177551 0 -27.88326913 0 544.12414020 0 10875
0.10150000 0.10150300 17398.76065268 0 223.64400438 0 5556.49002951 0 110.21876967 0 167.89188468 0 11118
0.10250000 0.10250800 17010.34693555 0 293.00391362 0 5190.96854289 0 -885.34037784 0 -343.09175904 0 11575
0.10350000 0.10349800 16287.08998256 0 442.32802549 0 6309.47139033 0 -434.91134209 0 -1197.99345597 0 11364
0.10450000 0.10450100 16340.21681594 0 324.13579433 0 5910.32139456 0 -240.63017251 0 -1241.50422160 0 12093
0.10550000 0.10551000 15638.25496109 0 152.04810984 0 6119.14645070 0 656.16852089 0 -667.04122126 0 12067
0.10650000 0.10649700 15964.44706333 0 -30.55436209 0 5615.49519728 0 912.57481194 0 418.74481342 0 12054
0.10750000 0.10749900 15753.15976147 0 -199.56390669 0 5333.97843634 0 852.08675115 0 -693.89079083 0 12807
0.10850000 0.10850100 15770.46202871 0 169.28050254 0 4822.15297077 0 -164.57672592 0 1.10340107 0 12736
0.10950000 0.10950300 15638.58769699 0 436.23784925 0 5289.38073341 0 -667.93517174 0 -249.83586598 0 12933
0.11050000 0.11050200 15033.89563938 0 195.77626293 0 5244.37265619 0 -287.52708057 0 -105.89908120 0 13428
0.11150000 0.11150900 15030.79010423 0 166.67407126 0 6495.18239203 0 203.01326894 0 152.06585576 0 13453
0.11250000 0.11250000 14877.17702650 0 6.89102721 0 5032.39770012 0 296.32129063 0 -1014.94101418 0 13668
0.11350000 0.11349100 15017.92431577 0 -114.76172394 0 5662.47750755 0 808.05802662 0 -174.45121856 0 13791
0.11450000 0.11448600 14714.35825530 0 98.86071853 0 4497.41381532 0 295.36522945 0 -328.18408122 0 14205
0.11550000 0.11549300 14891.26284662 0 132.77604603 0 4773.78426088 0 498.66465127 0 862.50360332 0 14776
0.11650000 0.11649800 14541.55740685 0 259.25783778 0 4736.35147118 0 -31.59249812 0 311.56946819 0 14553
0.11750000 0.11747300 14178.54253073 0 266.00904937 0 4861.01652488 0 -386.77998382 0 80.21453095 0 14568
0.11850000 0.11849100 13955.49856010 0 302.57007099 0 5144.84025478 0 -562.39134158 0 183.46836168 0 16015
0.11950000 0.11950300 13481.57171450 0 158.95681642 0 5389.55642425 0 -247.18063343 0 -1001.33766112 0 15270
0.12050000 0.12050700 13509.85426672 0 154.96065816 0 5338.39273272 0 24.46939871 0 -714.45054262 0 15999
0.12150000 0.12150000 13817.19133416 0 -182.79512602 0 5077.06195023 0 462.55393225 0 -923.64382650 0 15670
0.12250000 0.12250700 13656.03624250 0 -227.87196866 0 4226.34496191 0 1033.37458350 0 -971.90606090 0 16887
0.12350000 0.12352200 13930.21063106 0 -131.94087890 0 3218.16625051 0 1120.49926289 0 -1057.68537809 0 16407
0.12450000 0.12449800 13897.71342400 0 -23.95731814 0 3171.64977051 0 348.56748297 0 -1.40035234 0 16306
0.12550000 0.12549900 13931.87431060 0 24.87378375 0 2071.04811494 0 559.75274582 0 94.69808140 0 17523
0.12650000 0.12650100 13773.60293015 0 193.93401512 0 2609.57009157 0 45.88772005 0 915.68145621 0 17154
0.12750000 0.12750600 13365.00323458 0 416.03856137 0 2580.66643232 0 -502.87486963 0 446.57040832 0 18007
0.12850000 0.12850300 12925.01545164 0 277.52393004 0 3141.51498840 0 -132.95461430 0 1233.20800628 0 17496
0.12950000 0.12949900 12772.40058163 0 165.37640122 0 3128.60483515 0 160.24894087 0 795.08243531 0 18405
0.13050000 0.13049000 12573.86815626 0 141.80317122 0 3322.46786661 0 -334.35633232 0 842.68917997 0 18100
0.13150000 0.13148800 12441.32835273 0 332.75698172 0 4100.55969732 0 -398.28599153 0 1148.24943766 0 19059
0.13250000 0.13249300 11953.31568701 0 254.99327256 0 3863.78482487 0 -205.30138287 0 468.32911850 0 18957
0.13350000 0.13349100 11806.57915138 0 279.68116784 0 4324.30241335 0 -481.39898498 0 470.65605162 0 19468
0.13450000 0.13450700 11366.25863254 0 248.65132614 0 4807.08003412 0 -106.63287479 0 -295.18887942 0 19953
0.13550000 0.13551000 11364.15130512 0 53.91852302 0 4751.09167192 0 49.83718437 0 167.04008076 0 19956
0.13650000 0.13649900 11053.35378424 0 -2.59957692 0 4907.27790735 0 532.51276612 0 91.15566401 0 19723
0.13750000 0.13749600 11267.43606773 0 -94.43344544 0 3849.80991671 0 687.02312168 0 -5.56559590 0 20946
0.13850000 0.13851100 11397.64671990 0 -53.60264573 0 3525.88041864 0 738.63711580 0 442.15611194 0 20955
0.13950000 0.13949800 11175.26822109 0 123.26312640 0 3089.57491309 0 296.99896276 0 773.00984426 0 20506
0.14050000 0.14048300 10948.37560512 0 296.81263065 0 3314.83712311 0 -57.39716603 0 1391.97849059 0 21447
0.14150000 0.14148400 10659.87139010 0 129.42206807 0 2901.45712166 0 311.26778763 0 1043.97554955 0 21771
0.14250000 0.14249400 10591.41652254 0 -31.08685045 0 2850.24906535 0 309.59190777 0 1392.87687755 0 22470
0.14350000 0.14350900 10501.10090579 0 47.83333781 0 2791.94264299 0 165.24774333 0 1042.27415994 0 22519
0.14450000 0.14449900 10603.72775115 0 105.23383120 0 2617.50029739 0 -118.92757752 0 1408.38237088 0 22218
0.14550000 0.14550500 10463.83448404 0 -0.26618762 0 2571.09472936 0 -103.56538245 0 821.97858791 0 23559
0.14650000 0.14650700 10357.01516623 0 138.73201879 0 2854.92955046 0 -292.95954883 0 506.71907849 0 23044
0.14750000 0.14750500 10263.54964955 0 203.07981612 0 3011.16015067 0 -237.06435269 0 398.46234156 0 23649
0.14850000 0.14849900 10276.48198519 0 35.16940914 0 3236.97692054 0 -343.59973586 0 310.27956199 0 23640
0.14950000 0.14949500 10269.42798393 0 -2.05245927 0 3388.62685641 0 86.99624333 0 253.37284868 0 24457
0.15050000 0.15050000 10153.54715822 0 65.05774485 0 3253.85772229 0 54.39034254 0 -473.22588195 0 24591
0.15150000 0.15149900 10219.99451914 0 178.76791241 0 3797.02691044 0 -291.20048500 0 441.33536337 0 25020
0.15250000 0.15250500 9938.83267650 0 135.85385318 0 3619.75630961 0 388.52795646 0 40.47621414 0 25297
0.15350000 0.15350100 9774.35022576 0 124.27464357 0 3770.61877050 0 137.17370562 0 866.57629084 0 25452
0.15450000 0.15450400 9713.23773057 0 76.13130680 0 3401.85865437 0 486.37005945 0 641.84202180 0 26061
0.15550000 0.15549900 9338.03362901 0 234.11520342 0 3748.30328224 0 208.10745570 0 1238.27668328 0 26128
0.15650000 0.15649500 9387.37836423 0 76.02405492 0 2750.79430231 0 243.06358112 0 1395.45003524 0 26331
0.15750000 0.15749700 9294.11248910 0 -152.33980832 0 3050.94427412 0 568.17318255 0 1247.59328872 0 27345
0.15850000 0.15849900 9234.92986218 0 118.91870456 0 2579.97877811 0 -42.04517486 0 1512.09615354 0 26980
0.15950000 0.15949700 9126.94596869 0 141.10331669 0 2415.17468266 0 12.45020131 0 1197.81599682 0 27777
0.16050000 0.16050000 8935.57845655 0 118.63366080 0 2597.81342280 0 -101.80864776 0 1059.25256422 0 28224
0.16150000 0.16150500 8848.20200699 0 140.33247851 0 2482.98626080 0 -114.59313775 0 726.29926832 0 28075
0.16250000 0.16249700 8732.05499255 0 57.82107158 0 2585.26927906 0 63.32130706 0 623.78666228 0 28590
0.16350000 0.16349900 8584.15388124 0 68.19888274 0 2410.84911585 0 203.00106862 0 1089.67682657 0 29163
0.16450000 0.16449100 8635.01811045 0 21.09057647 0 2430.70235838 0 81.89373817 0 404.44604232 0 28996
0.16550000 0.16550500 8428.26710814 0 171.30242775 0 2351.30047943 0 -40.62184156 0 476.06633749 0 30777
0.16650000 0.16650700 8268.24331857 0 227.98066239 0 2621.48203709 0 -240.27414509 0 594.57134040 0 29211
0.16750000 0.16749900 8020.69889388 0 104.68803340 0 2350.06935657 0 91.14956385 0 972.41071036 0 30922
0.16850000 0.16850800 7965.86401617 0 42.58420703 0 2635.00220617 0 200.99245286 0 569.13922580 0 30867
0.16950000 0.16949900 7940.90882303 0 27.99573386 0 2351.43357380 0 190.22290062 0 676.53639497 0 30852
0.17050000 0.17049200 7807.34862938 0 62.50155669 0 2306.24803743 0 2.73303730 0 559.57528667 0 31257
0.17150000 0.17149500 7801.51465979 0 57.39272955 0 2179.86384820 0 -103.59277770 0 627.16947735 0 32608
0.17250000 0.17250900 7790.70074276 0 69.12821413 0 2330.98140662 0 84.32725769 0 542.38171316 0 32361
0.17350000 0.17350400 7798.19839190 0 10.58788952 0 2443.50159966 0 -88.24078654 0 292.41608018 0 32508
0.17450000 0.17449800 7766.63284539 0 -34.74084529 0 2170.21450686 0 66.71110958 0 252.64859352 0 32791
0.17550000 0.17549800 7791.35512338 0 56.04281997 0 2198.14214077 0 11.00957683 0 137.70164659 0 33633
0.17650000 0.17650100 7756.29584983 0 176.61511108 0 2492.18086307 0 -321.47390707 0 189.41989796 0 33984
0.17750000 0.17750300 7556.27720407 0 93.64430678 0 2847.93100518 0 -111.00735378 0 76.90214498 0 34069
0.17850000 0.17849800 7584.77048903 0 114.34247670 0 2930.72679040 0 34.77090243 0 207.67268078 0 34536
