### header ###
fiducial parameters:
Omega_m = 0.31
Omega_nu = 0
Omega_de = 0.69
Omega_k = 0
H_0 = 100
w_de = -1
zeff = 0
beta = 0
fgrowth = 0
b_1 = 2
gamma = 0.55
Lx = 3500 Ly = 3500 Lz = 3500
nx = 700 ny = 700 nz = 700
xoffset = 1379.75464 yoffset = 22.6059522 zoffset = 368.141391
bins = 400 dk = 0.001
kx_ny = 0.628318531 ky_ny = 0.628318531 kz_ny = 0.628318531
############################
A(data) = 3.30989429 (not used)
A(ran) = 3.31452535 (used)
Ngal = 186302
weighted Ngal = 0
Nran = 9399747
weighted Nran = 0
SN(data) = 6623.80475
SN(ran) = 131.836515
SN(data+ran) = 6755.64126
############################
13 columns: k_central k_mean P_0(k) sigma^{lin}_{P_0(k)} P^img_1(k) sigma^{lin}_{P_1(k)} P_2(k) sigma^{lin}_{P_2(k)} P^img_3(k) sigma^{lin}_{P_3(k)} P_4(k) sigma^{lin}_{P_4(k)} N_modes
### header ###
0.00050000 0 0 0 0 0 0 0 0 0 0 0 0
0.00150000 0.00179520 25613.23384844 0 -25942.19874992 0 -16334.44939353 0 12563.22060719 0 36494.69626237 0 3
0.00250000 0.00253879 51810.41921620 0 -33298.54603780 0 -37978.47659010 0 234.67641799 0 39092.47641158 0 6
0.00350000 0.00331552 73717.86234030 0 -27499.73553736 0 -26304.21541831 0 -48245.81942901 0 -65636.70533186 0 7
0.00450000 0.00420575 102960.57947808 0 -21461.35518284 0 -56438.22114285 0 -21025.47114278 0 7761.61962437 0 24
0.00550000 0.00557378 107847.69358937 0 2364.32154465 0 -36141.77437548 0 -33742.97029952 0 11506.34044999 0 45
0.00650000 0.00659388 113939.86624909 0 8968.98514176 0 -32538.46631094 0 -32473.25007288 0 -18192.77944220 0 40
0.00750000 0.00754703 84366.96417817 0 9684.47825689 0 5459.73042734 0 -2955.58216276 0 -4141.76349398 0 57
0.00850000 0.00846663 84545.08880116 0 8546.09998451 0 -624.18594537 0 -13526.04741427 0 5516.25116699 0 75
0.00950000 0.00948925 66866.05360160 0 4197.45239386 0 3176.37462041 0 3593.10416335 0 1950.42025694 0 112
0.01050000 0.01054430 71854.65216497 0 1901.30843685 0 4533.79294131 0 13603.13123306 0 200.72182765 0 105
0.01150000 0.01145670 66354.30577441 0 -3697.81615373 0 -8330.40947746 0 7414.76462220 0 15104.54656394 0 144
0.01250000 0.01249090 68829.63910931 0 -57.13929570 0 -2812.45026615 0 5464.02272056 0 3243.62054751 0 169
0.01350000 0.01339930 71512.15600321 0 -5125.95194638 0 -20901.02791302 0 1061.64382629 0 4423.53535245 0 180
0.01450000 0.01448870 76235.34222361 0 -3377.66875382 0 -15109.53760256 0 1407.46180153 0 9167.80593825 0 267
0.01550000 0.01550050 72554.28486846 0 1808.38638882 0 -8202.38379109 0 -14311.52598214 0 -15721.99349804 0 238
0.01650000 0.01653350 76143.72893682 0 4389.50756021 0 -2262.37126230 0 -14832.03585492 0 -5359.87638121 0 315
0.01750000 0.01747870 74791.04655701 0 5229.69900263 0 13940.63635619 0 -1734.90720903 0 68.01587799 0 297
0.01850000 0.01844180 66638.90588810 0 -496.67710878 0 7691.27925332 0 -832.51078853 0 11472.40138733 0 388
0.01950000 0.01947590 71735.42179778 0 970.11150523 0 18068.00347653 0 1860.57047046 0 -12740.45793442 0 399
0.02050000 0.02045430 69981.68173632 0 820.23394263 0 22755.47604276 0 117.07534763 0 2215.52204639 0 462
0.02150000 0.02154770 63729.90675252 0 5022.68181159 0 31213.95557138 0 -7665.47003802 0 44.42346022 0 571
0.02250000 0.02255340 64007.29758819 0 3955.30938208 0 37930.78444323 0 -3120.57480856 0 4743.11710132 0 510
0.02350000 0.02348930 60969.30783210 0 25.19587211 0 37994.44791371 0 4159.89760099 0 -6360.22470756 0 555
0.02450000 0.02439640 62530.39380257 0 651.70542324 0 34012.37547339 0 49.50056654 0 -4763.52490370 0 592
0.02550000 0.02547300 58538.56110893 0 27.00140806 0 33644.36955865 0 1620.65678927 0 -7494.90961135 0 837
0.02650000 0.02652900 61292.06166330 0 -117.40364706 0 29738.71546530 0 4286.60343493 0 -8671.60796918 0 723
0.02750000 0.02749970 62751.99591759 0 -1053.92657145 0 27061.07869806 0 7481.57799262 0 -10182.99428612 0 826
0.02850000 0.02848090 60929.82317097 0 -98.31436616 0 19130.87288008 0 5793.84164421 0 -12088.51737781 0 831
0.02950000 0.02946900 62243.57544949 0 759.49965726 0 14085.37647636 0 1994.28594087 0 -3287.10913074 0 996
0.03050000 0.03053250 59323.81785287 0 361.19481070 0 16530.87449148 0 516.21647044 0 -4905.43676865 0 1041
0.03150000 0.03150510 58666.33169778 0 3298.81034352 0 18175.80991087 0 -2293.54861692 0 -10580.53605833 0 1036
0.03250000 0.03246190 55528.52116915 0 2119.26154808 0 19464.49608428 0 -3161.27950136 0 -5606.11204466 0 1059
0.03350000 0.03345080 53621.50076588 0 1112.80197221 0 20174.99816079 0 815.23735840 0 -10134.03774279 0 1302
0.03450000 0.03451200 50712.05798242 0 1314.21810879 0 23907.07502189 0 -2565.33839814 0 -6034.33206763 0 1339
0.03550000 0.03553350 51028.04618347 0 2011.43293135 0 21332.03182642 0 -668.96665305 0 -14066.29961761 0 1365
0.03650000 0.03647120 48149.99148738 0 2388.82199871 0 27238.87058514 0 -5215.55772652 0 -10951.90260575 0 1308
0.03750000 0.03744890 45704.04982439 0 1722.99526351 0 28754.03900024 0 -1751.72146361 0 -13325.07492556 0 1579
0.03850000 0.03847530 45069.85518289 0 1011.43397770 0 26416.23650749 0 2757.70411801 0 -15984.63304178 0 1662
0.03950000 0.03950240 43469.61728720 0 376.30102094 0 27428.08640508 0 1037.73120567 0 -14777.91081381 0 1683
0.04050000 0.04050350 43683.23374042 0 387.10273765 0 22219.77123016 0 4809.53118864 0 -13805.10192948 0 1822
0.04150000 0.04152450 42580.21420392 0 262.16816786 0 25934.98947191 0 2410.52747114 0 -7196.73387260 0 1887
0.04250000 0.04250150 41987.27881507 0 1234.36149076 0 20124.31139073 0 -486.00183172 0 -12531.83251983 0 1920
0.04350000 0.04349210 40857.64040589 0 966.77194583 0 24053.92246949 0 736.93794443 0 -1035.16026621 0 2005
0.04450000 0.04448520 38394.50738763 0 917.11887533 0 22112.07570779 0 1833.08648442 0 -7317.57246335 0 2151
0.04550000 0.04548030 39841.79767741 0 861.58192485 0 25723.03669823 0 712.62271336 0 2441.62718738 0 2274
0.04650000 0.04648670 38014.74480412 0 664.26953114 0 26269.05632399 0 1403.52442662 0 -4264.66504736 0 2311
0.04750000 0.04749250 37103.60297483 0 1159.10771947 0 25502.10005502 0 -150.42214037 0 -54.82434107 0 2568
0.04850000 0.04851840 36641.76553390 0 491.42875438 0 26289.79686228 0 2061.31004402 0 1279.99067501 0 2493
0.04950000 0.04949480 35232.29622572 0 -234.21724243 0 25092.05850384 0 1948.03564959 0 -521.91956391 0 2644
0.05050000 0.05050630 36492.92167086 0 354.84731868 0 23206.44411067 0 3468.84948394 0 3384.74493748 0 2829
0.05150000 0.05149060 35572.46323613 0 -553.17677515 0 20969.34968622 0 2748.78679566 0 -1449.50852916 0 2784
0.05250000 0.05249300 36568.89636995 0 -379.86351340 0 14686.96299884 0 2122.30053604 0 -859.68865753 0 3055
0.05350000 0.05348950 34758.92393997 0 1101.25936355 0 15936.71907096 0 -768.95601178 0 -4003.37862966 0 3009
0.05450000 0.05448610 33926.52960901 0 1309.62635325 0 14447.50405672 0 -1815.50693726 0 -4644.23908052 0 3336
0.05550000 0.05550870 32475.57922424 0 1190.38489486 0 16690.14407965 0 -624.62293853 0 -6069.77953308 0 3349
0.05650000 0.05647670 31672.35474125 0 -5.40104690 0 14220.46725519 0 1241.87023110 0 -4472.94663485 0 3324
0.05750000 0.05747970 31989.11932609 0 -844.96953006 0 13822.29328475 0 4461.09014532 0 -5500.83440323 0 3639
0.05850000 0.05849280 32812.19705162 0 -875.14534960 0 9969.11164417 0 3807.15317325 0 -3861.04529922 0 3846
0.05950000 0.05951020 33703.48563838 0 -39.41567389 0 10317.20886039 0 1973.96686806 0 1465.76822389 0 3787
0.06050000 0.06049470 33778.90577763 0 227.69229127 0 9028.52268697 0 20.18986036 0 4550.99538778 0 3930
0.06150000 0.06148310 33136.94729827 0 47.32036996 0 8496.31160141 0 3088.49906699 0 7080.70886132 0 4083
0.06250000 0.06249100 33607.87952069 0 25.59293696 0 8649.17047775 0 204.20779085 0 6899.64507114 0 4303
0.06350000 0.06350600 33286.23480919 0 573.39048159 0 11002.97756770 0 -206.96728065 0 8398.69797707 0 4470
0.06450000 0.06451750 32217.48707126 0 1058.81002547 0 12017.64462931 0 -1675.35857262 0 8114.95188555 0 4479
0.06550000 0.06550280 31731.02717311 0 591.95936352 0 12459.40700376 0 -655.93560576 0 8158.06336808 0 4636
0.06650000 0.06648880 31396.18393724 0 59.07193677 0 15050.64334677 0 730.69692791 0 5851.53805073 0 4653
0.06750000 0.06749660 30625.78939722 0 945.90829525 0 13359.56854807 0 -1078.58673874 0 5069.74176024 0 5220
0.06850000 0.06852730 30042.72517365 0 390.10290642 0 14441.95845825 0 800.27644284 0 4812.73654456 0 5029
0.06950000 0.06949320 29349.08171651 0 -176.81475263 0 11831.97799239 0 981.64191358 0 3694.04514677 0 5040
0.07050000 0.07048030 29437.70038012 0 507.42004214 0 12153.28996798 0 1405.23247095 0 4951.78688070 0 5475
0.07150000 0.07148790 29068.80716963 0 -91.18117376 0 9837.73641632 0 1802.18640972 0 2841.39829018 0 5509
0.07250000 0.07249820 29019.00769533 0 -249.30127028 0 9624.20869267 0 847.72680163 0 4047.04467204 0 5916
0.07350000 0.07351270 29089.21497201 0 -356.96573730 0 6783.55351268 0 1927.12874334 0 2549.98818156 0 5721
0.07450000 0.07449140 29329.45029791 0 47.80549891 0 6180.82459693 0 354.77078942 0 195.57551227 0 6028
0.07550000 0.07549160 28559.94305364 0 620.31622676 0 5941.63184354 0 -1283.87259394 0 739.05081745 0 6183
0.07650000 0.07648840 27442.83769702 0 1231.87706265 0 6822.19524285 0 -1740.94082017 0 -1356.49775156 0 6330
0.07750000 0.07749960 26463.37409452 0 1068.27858030 0 8032.77720736 0 -1437.99586673 0 -1234.11748443 0 6583
0.07850000 0.07848650 24518.97635753 0 889.82898524 0 8703.62825477 0 -397.22900046 0 -3802.36177617 0 6549
0.07950000 0.07947320 24076.10486338 0 720.85792709 0 10042.75719190 0 94.47781023 0 -1424.16514414 0 6828
0.08050000 0.08048110 23838.30960081 0 6.65567201 0 8682.77680451 0 1570.61330864 0 -1501.34878370 0 7147
0.08150000 0.08149960 23642.10632680 0 -209.12008198 0 9435.51415899 0 1937.68756284 0 658.18268226 0 7386
0.08250000 0.08250610 23733.05414178 0 -175.86534617 0 7327.92055010 0 1567.61868546 0 617.98929364 0 7227
0.08350000 0.08350160 23850.39900549 0 212.88887070 0 5943.50625583 0 74.82032732 0 2340.36455924 0 7798
0.08450000 0.08449610 23120.15459842 0 176.05944212 0 6479.11124765 0 431.59507421 0 2824.53967082 0 7371
0.08550000 0.08548940 23795.60849256 0 91.06637987 0 6444.59544275 0 227.98509887 0 2344.61248767 0 8256
0.08650000 0.08650700 23201.45307205 0 273.95478286 0 5849.44181451 0 187.41017307 0 1442.21052157 0 8037
0.08750000 0.08749060 22442.81520079 0 934.12611673 0 6734.75224611 0 -1316.33652741 0 -747.36256044 0 8155
0.08850000 0.08849210 21365.08359333 0 1240.53928746 0 7205.57355656 0 -1335.50211573 0 595.57287549 0 8718
0.08950000 0.08949900 20279.47723604 0 479.45691640 0 8385.57709108 0 -39.24531311 0 -615.40726299 0 8571
0.09050000 0.09049190 19085.50988456 0 264.14794652 0 7653.82428123 0 514.79790635 0 -2030.77597883 0 8932
0.09150000 0.09150830 19318.20319654 0 95.01040951 0 6823.92546958 0 1181.71157885 0 -976.09409686 0 9285
0.09250000 0.09250820 18563.89089209 0 -156.39918641 0 5702.57218452 0 1684.36462454 0 -427.30389011 0 9204
0.09350000 0.09350330 19142.96228475 0 15.47266339 0 5983.51220322 0 660.19351627 0 851.61981175 0 9349
0.09450000 0.09448040 18915.70365929 0 290.68141698 0 3897.19151008 0 335.82702504 0 -5.43517452 0 9564
0.09550000 0.09549270 18365.69120262 0 485.68351436 0 5610.14924035 0 -465.10158019 0 574.87115638 0 10155
0.09650000 0.09649430 17724.84184295 0 259.24009187 0 5271.45735914 0 -197.75049599 0 749.56749039 0 9913
0.09750000 0.09749140 17689.01727681 0 304.88924027 0 6396.45964799 0 86.16063255 0 1797.80538693 0 10476
0.09850000 0.09850240 17439.57625745 0 -41.50115165 0 5798.41121735 0 621.57840497 0 2086.48706110 0 10575
0.09950000 0.09950330 17356.05954443 0 -130.19179714 0 5474.93645835 0 1586.72881781 0 2750.57247837 0 10882
0.10050000 0.10051200 17597.07125411 0 -77.34778928 0 4313.35540197 0 714.52707188 0 2970.42218428 0 10875
0.10150000 0.10150300 17451.44383818 0 67.20455693 0 5179.84407235 0 144.19997888 0 2883.81102731 0 11118
0.10250000 0.10250800 17156.41799936 0 381.75678072 0 3725.24468379 0 -192.42561233 0 3401.03790579 0 11575
0.10350000 0.10349800 17009.23781586 0 318.23638668 0 4444.42007630 0 -368.74347934 0 1911.80070916 0 11364
0.10450000 0.10450100 16817.69284456 0 97.79418903 0 4477.70475835 0 -285.89778373 0 1926.04180604 0 12093
0.10550000 0.10551000 16071.47711388 0 150.93899015 0 4445.31846326 0 -194.54846743 0 27.60598920 0 12067
0.10650000 0.10649700 16511.68672076 0 220.25231636 0 4228.87375481 0 -224.15752680 0 996.75034206 0 12054
0.10750000 0.10749900 15951.24853896 0 134.62273032 0 4453.61467857 0 98.73106243 0 -412.66794661 0 12807
0.10850000 0.10850100 15934.27900763 0 126.03814388 0 4678.30014635 0 14.00452165 0 784.71438440 0 12736
0.10950000 0.10950300 15742.51221240 0 86.59341105 0 3971.95726870 0 653.55099841 0 -122.40023128 0 12933
0.11050000 0.11050200 15938.93731035 0 153.90810357 0 4647.16715652 0 14.89137376 0 615.45495514 0 13428
0.11150000 0.11150900 15421.53297272 0 184.32238384 0 4526.41729534 0 -189.85689112 0 480.14235237 0 13453
0.11250000 0.11250000 15168.54277033 0 361.09831728 0 5333.52369726 0 -287.97072844 0 129.60840018 0 13668
0.11350000 0.11349100 14664.00422115 0 380.02211752 0 5143.44276397 0 -493.36305913 0 390.44895177 0 13791
0.11450000 0.11448600 14611.76468353 0 117.97595282 0 5949.51768457 0 -40.14059452 0 75.90182993 0 14205
0.11550000 0.11549300 14388.49888896 0 145.18376805 0 5273.81978409 0 175.05236143 0 -178.02812958 0 14776
0.11650000 0.11649800 14147.15444337 0 90.02103456 0 5608.56319919 0 395.46439103 0 240.15325104 0 14553
0.11750000 0.11747300 14066.85417746 0 68.74789699 0 4992.77994462 0 524.89089557 0 528.40791413 0 14568
0.11850000 0.11849100 14310.19503851 0 -124.17371367 0 4845.96577062 0 696.32863592 0 1277.83898280 0 16015
0.11950000 0.11950300 14103.01147951 0 -84.85375681 0 3909.76892741 0 445.93155538 0 333.25719470 0 15270
0.12050000 0.12050700 14229.45112472 0 349.64332907 0 4151.91193919 0 98.12293211 0 1435.17870271 0 15999
0.12150000 0.12150000 13421.90107492 0 469.04117334 0 5058.81693125 0 -904.68675267 0 661.20946991 0 15670
0.12250000 0.12250700 13312.20913710 0 391.08669559 0 4841.70675099 0 -323.80084019 0 587.48073819 0 16887
0.12350000 0.12352200 12706.96251964 0 111.21254092 0 5533.65325500 0 -94.37821128 0 -137.29016318 0 16407
0.12450000 0.12449800 12612.79825755 0 210.21478312 0 4738.10388030 0 13.41813007 0 -298.19792115 0 16306
0.12550000 0.12549900 12415.37495187 0 -46.28633766 0 4735.49744901 0 597.54710854 0 -353.47644674 0 17523
0.12650000 0.12650100 12504.99182321 0 -72.57114349 0 4052.98955361 0 385.55329743 0 -1027.17127705 0 17154
0.12750000 0.12750600 12402.84189932 0 37.01553887 0 3453.23307863 0 450.39021655 0 -1338.50783011 0 18007
0.12850000 0.12850300 12228.71010723 0 244.30135870 0 3342.45420351 0 -417.08224300 0 -1256.49951987 0 17496
0.12950000 0.12949900 11928.36049387 0 259.75250517 0 3768.11215999 0 -686.03933251 0 -1607.10334660 0 18405
0.13050000 0.13049000 11833.41984800 0 -90.40689730 0 3430.11902419 0 201.12332898 0 -1867.71320129 0 18100
0.13150000 0.13148800 12075.76250132 0 -243.02032545 0 3292.68800281 0 880.37484896 0 -1071.74014287 0 19059
0.13250000 0.13249300 12607.03083514 0 -351.94475244 0 2578.39273695 0 666.31031138 0 -2114.75852212 0 18957
0.13350000 0.13349100 12805.11961263 0 -0.69854022 0 2809.25600142 0 251.12799042 0 -914.06325057 0 19468
0.13450000 0.13450700 12688.21839680 0 202.41545342 0 2736.85266775 0 -317.38458275 0 -729.34712924 0 19953
0.13550000 0.13551000 12483.14216522 0 416.72843382 0 3318.85213641 0 -497.25939662 0 -104.30327978 0 19956
0.13650000 0.13649900 11977.60540832 0 245.11101608 0 3821.60500287 0 -88.91845867 0 141.54918281 0 19723
0.13750000 0.13749600 11765.98537055 0 221.05420990 0 4311.82481679 0 547.21525679 0 738.09586539 0 20946
0.13850000 0.13851100 11668.93739726 0 85.75114556 0 4059.35590066 0 224.20743719 0 1405.64284523 0 20955
0.13950000 0.13949800 11511.22057665 0 2.58158700 0 3965.05854420 0 1016.63685819 0 2012.08731197 0 20506
0.14050000 0.14048300 11374.35520631 0 37.59882492 0 3115.75013789 0 581.05671692 0 2597.83560520 0 21447
0.14150000 0.14148400 11147.20749281 0 223.10053573 0 3148.73535762 0 0.80832643 0 2573.84534620 0 21771
0.14250000 0.14249400 11016.87483747 0 235.62471533 0 3258.43838663 0 -182.49122723 0 2475.73261799 0 22470
0.14350000 0.14350900 10702.90523426 0 41.72552657 0 2910.81809188 0 254.78364894 0 2324.47087401 0 22519
0.14450000 0.14449900 10706.52096447 0 -78.88935474 0 2735.24444419 0 48.46287415 0 1798.09375805 0 22218
0.14550000 0.14550500 10808.93707709 0 0.59256716 0 2474.31294479 0 91.40377408 0 1717.30547948 0 23559
0.14650000 0.14650700 10877.93541330 0 22.87581553 0 2574.93228350 0 -82.41169707 0 748.04134169 0 23044
0.14750000 0.14750500 10757.95084472 0 192.97795394 0 2546.10626263 0 -277.69251623 0 1078.91171081 0 23649
0.14850000 0.14849900 10501.33382093 0 164.51128785 0 2836.46270754 0 -494.33575710 0 416.12063622 0 23640
0.14950000 0.14949500 10422.15376591 0 94.40837934 0 2792.35301728 0 88.72968650 0 790.24445520 0 24457
0.15050000 0.15050000 10459.56437322 0 -1.86419729 0 2963.56782457 0 449.62270572 0 681.21355272 0 24591
0.15150000 0.15149900 10356.52715357 0 -87.69720697 0 2456.32302334 0 567.76169914 0 509.16579654 0 25020
0.15250000 0.15250500 10460.30748341 0 82.40681694 0 2318.09343577 0 58.04910659 0 850.81015438 0 25297
0.15350000 0.15350100 10169.60721140 0 288.27795460 0 2191.03268353 0 -251.19453760 0 649.70678955 0 25452
0.15450000 0.15450400 9993.45682147 0 275.22472491 0 2481.18948689 0 -149.11005177 0 1296.98238873 0 26061
0.15550000 0.15549900 9502.51607975 0 156.30491123 0 2710.63307816 0 -126.41524458 0 489.90926040 0 26128
0.15650000 0.15649500 9469.87468713 0 18.90694161 0 2343.63646234 0 425.56146307 0 1016.08562570 0 26331
0.15750000 0.15749700 9448.30230907 0 50.46605523 0 2332.43435342 0 271.97389509 0 336.59675410 0 27345
0.15850000 0.15849900 9342.34810462 0 69.63696734 0 2172.05564555 0 -153.94803188 0 693.67894897 0 26980
0.15950000 0.15949700 9269.39021110 0 106.44321532 0 2079.43305984 0 50.03527314 0 774.96854964 0 27777
0.16050000 0.16050000 9022.61107900 0 84.22433139 0 2351.97704245 0 -87.07232894 0 569.02609559 0 28224
0.16150000 0.16150500 9072.65455963 0 116.71488373 0 2134.48976149 0 -99.58397548 0 441.51282252 0 28075
0.16250000 0.16249700 9026.83682504 0 -10.29741107 0 2080.98582741 0 54.70743986 0 86.94466926 0 28590
0.16350000 0.16349900 9042.75269266 0 58.08604027 0 2405.03732865 0 123.74448435 0 800.05794626 0 29163
0.16450000 0.16449100 9025.16205430 0 76.53779916 0 2227.05689122 0 -42.72628527 0 267.91562612 0 28996
0.16550000 0.16550500 8819.69763083 0 94.06566135 0 2232.05902104 0 -65.83723417 0 697.84036607 0 30777
0.16650000 0.16650700 8755.96761317 0 147.20014766 0 2830.38473161 0 -99.57909535 0 207.92556007 0 29211
0.16750000 0.16749900 8761.92358593 0 -1.91765686 0 2356.00314694 0 215.61286867 0 645.53760862 0 30922
0.16850000 0.16850800 8628.40775707 0 5.53881066 0 2481.69968195 0 180.45599259 0 354.33490538 0 30867
0.16950000 0.16949900 8841.84675114 0 -70.93796474 0 1710.31802540 0 396.10213485 0 737.90066032 0 30852
0.17050000 0.17049200 8637.84636567 0 -28.08923266 0 1864.70748692 0 473.93571856 0 479.42697016 0 31257
0.17150000 0.17149500 8806.47692407 0 106.40450704 0 1448.89851333 0 -62.22106032 0 814.96451496 0 32608
0.17250000 0.17250900 8528.77553488 0 144.42734842 0 1730.21563273 0 94.78614550 0 940.13865460 0 32361
0.17350000 0.17350400 8432.24884784 0 95.69506909 0 1394.01927083 0 -47.51790417 0 533.30800494 0 32508
0.17450000 0.17449800 8389.39246283 0 20.64005205 0 1419.87285092 0 133.71103393 0 683.61146950 0 32791
0.17550000 0.17549800 8333.63701577 0 74.63976263 0 1338.53001250 0 -50.07697605 0 214.55255025 0 33633
0.17650000 0.17650100 8128.59405779 0 189.74376091 0 1432.86064254 0 -203.19849193 0 276.76861953 0 33984
0.17750000 0.17750300 7967.89370521 0 202.98554095 0 1713.33483097 0 -279.55361908 0 243.74568973 0 34069
0.17850000 0.17849800 7531.00036622 0 153.39014467 0 1636.35083295 0 -225.56721793 0 164.97600901 0 34536
