### header ###
fiducial parameters:
Omega_m = 0.31
Omega_nu = 0
Omega_de = 0.69
Omega_k = 0
H_0 = 100
w_de = -1
zeff = 0
beta = 0
fgrowth = 0
b_1 = 2
gamma = 0.55
Lx = 3500 Ly = 3500 Lz = 3500
nx = 700 ny = 700 nz = 700
xoffset = 1379.75464 yoffset = 22.6059522 zoffset = 368.141391
bins = 400 dk = 0.001
kx_ny = 0.628318531 ky_ny = 0.628318531 kz_ny = 0.628318531
############################
A(data) = 3.38097637 (not used)
A(ran) = 3.38430689 (used)
Ngal = 189819
weighted Ngal = 0
Nran = 9399747
weighted Nran = 0
SN(data) = 6617.29324
SN(ran) = 134.612102
SN(data+ran) = 6751.90535
############################
13 columns: k_central k_mean P_0(k) sigma^{lin}_{P_0(k)} P^img_1(k) sigma^{lin}_{P_1(k)} P_2(k) sigma^{lin}_{P_2(k)} P^img_3(k) sigma^{lin}_{P_3(k)} P_4(k) sigma^{lin}_{P_4(k)} N_modes
### header ###
0.00050000 0 0 0 0 0 0 0 0 0 0 0 0
0.00150000 0.00179520 13897.38068809 0 -10412.23823584 0 -15016.70428411 0 22382.81182530 0 5231.24067901 0 3
0.00250000 0.00253879 27625.06606288 0 -12331.74732688 0 -6955.23415025 0 -14839.24513294 0 20006.07923126 0 6
0.00350000 0.00331552 33995.07320615 0 -8496.93270844 0 -16646.00111580 0 -3780.84485409 0 2865.59928192 0 7
0.00450000 0.00420575 43960.95731201 0 -8901.32884037 0 -14859.98567123 0 -14181.53715391 0 5220.57094754 0 24
0.00550000 0.00557378 57202.40461258 0 -11681.35953784 0 -19098.81932090 0 -4906.51261476 0 9415.12853900 0 45
0.00650000 0.00659388 79079.01420916 0 -13405.37519147 0 -13393.50761073 0 -14201.61222038 0 -38734.56348606 0 40
0.00750000 0.00754703 83886.49352637 0 -7344.71262228 0 -10126.65100562 0 -16061.71686057 0 -13046.79679413 0 57
0.00850000 0.00846663 97400.11880005 0 3492.73992216 0 1700.53558969 0 -25018.19113217 0 -14372.63847732 0 75
0.00950000 0.00948925 78020.69219636 0 12054.57831515 0 27589.01967280 0 -32061.21210626 0 -1797.29519187 0 112
0.01050000 0.01054430 87042.71544193 0 15881.37399819 0 68502.22697540 0 -12258.54542702 0 -16719.75757551 0 105
0.01150000 0.01145670 63894.94376311 0 8649.52539606 0 74301.59203569 0 12090.84652917 0 -8155.74530792 0 144
0.01250000 0.01249090 67678.26195412 0 -1700.75741363 0 83043.78438224 0 22799.61900661 0 8704.49336813 0 169
0.01350000 0.01339930 69127.99230722 0 -5200.50697226 0 82407.81514923 0 16007.14817158 0 9182.33540625 0 180
0.01450000 0.01448870 79544.62265705 0 -1586.58463225 0 71792.76328600 0 20146.60469660 0 28256.48790514 0 267
0.01550000 0.01550050 83419.77595879 0 1373.97747795 0 55741.13941465 0 7191.31027729 0 -6553.94355346 0 238
0.01650000 0.01653350 85487.06415797 0 2393.71321656 0 78171.42156289 0 1413.72832781 0 41162.98105788 0 315
0.01750000 0.01747870 86352.39934387 0 -2283.69963403 0 56020.19392987 0 22224.20770894 0 10510.69479115 0 297
0.01850000 0.01844180 86802.59102800 0 1595.92342008 0 81829.40922838 0 5287.76141866 0 43912.26695740 0 388
0.01950000 0.01947590 84737.85380412 0 3292.73236759 0 60982.95000435 0 11166.72799944 0 15585.46086361 0 399
0.02050000 0.02045430 83014.94727018 0 3644.99987387 0 75176.90929884 0 13465.37856696 0 45170.56325118 0 462
0.02150000 0.02154770 78221.55377310 0 692.23709337 0 57698.95749995 0 15215.56944539 0 49498.57012431 0 571
0.02250000 0.02255340 83298.66008811 0 137.36447420 0 55160.95890229 0 19400.94352577 0 54402.21011906 0 510
0.02350000 0.02348930 78518.13237949 0 3179.09196366 0 60522.22168312 0 10785.06882125 0 47402.00116519 0 555
0.02450000 0.02439640 75523.73102741 0 3351.22734030 0 58028.92060916 0 6147.24045257 0 50862.12187713 0 592
0.02550000 0.02547300 71238.64708646 0 3765.56118469 0 55324.22132137 0 5779.71145929 0 52031.35585941 0 837
0.02650000 0.02652900 66693.47457708 0 2854.14207547 0 51789.34594200 0 2354.87184485 0 40318.38641027 0 723
0.02750000 0.02749970 69932.99138172 0 -993.22001407 0 58461.03364226 0 13238.78541331 0 55005.79305698 0 826
0.02850000 0.02848090 65805.06970153 0 -518.09753744 0 43220.39809177 0 12878.65424840 0 32756.07559506 0 831
0.02950000 0.02946900 67820.89474687 0 120.34059601 0 42167.39985351 0 7901.84562738 0 47022.68222956 0 996
0.03050000 0.03053250 65533.22446433 0 1728.16376129 0 33408.79253547 0 9053.18950899 0 35292.52142515 0 1041
0.03150000 0.03150510 65646.79832108 0 -967.45183620 0 27944.93618286 0 5882.08320713 0 34980.52605500 0 1036
0.03250000 0.03246190 65681.62467950 0 528.94694630 0 28954.45692909 0 874.08392205 0 29486.39073473 0 1059
0.03350000 0.03345080 60762.23518508 0 3179.76852668 0 21783.33263025 0 -4988.50983380 0 14946.05335955 0 1302
0.03450000 0.03451200 56871.55420761 0 3664.66456606 0 21751.16815910 0 -2897.23137562 0 4804.17414052 0 1339
0.03550000 0.03553350 55416.16734407 0 -825.70301185 0 22924.28406031 0 2692.89825424 0 2891.29758525 0 1365
0.03650000 0.03647120 55107.05568512 0 -1778.83944015 0 13126.43158822 0 5949.08512789 0 -6896.45080642 0 1308
0.03750000 0.03744890 55703.54025700 0 -300.62911152 0 10676.96292460 0 3958.30400526 0 -10238.57227402 0 1579
0.03850000 0.03847530 54437.92377324 0 2210.05408630 0 5671.39482990 0 -2488.52076808 0 -6913.24287860 0 1662
0.03950000 0.03950240 51517.72252874 0 2927.12215139 0 8888.55178149 0 -4006.82799191 0 -13153.16137287 0 1683
0.04050000 0.04050350 48256.13424217 0 2370.45497656 0 11035.21967722 0 -860.18997964 0 -11479.61066535 0 1822
0.04150000 0.04152450 45579.82841857 0 1317.46782949 0 13162.25615436 0 -283.60523333 0 -11989.02934118 0 1887
0.04250000 0.04250150 41606.96167171 0 1663.89027498 0 13785.02686301 0 236.54084820 0 -6081.80239057 0 1920
0.04350000 0.04349210 42011.45762442 0 1516.82100344 0 13111.23664840 0 2522.58183390 0 -3440.10110145 0 2005
0.04450000 0.04448520 40921.85843622 0 -688.80436791 0 12967.49473595 0 2768.29621109 0 -5100.47546699 0 2151
0.04550000 0.04548030 41301.51010776 0 -367.81403703 0 9490.49322226 0 4927.44170340 0 1820.80852940 0 2274
0.04650000 0.04648670 40164.99515648 0 -98.15243469 0 8084.78382985 0 3398.13201219 0 7361.52687685 0 2311
0.04750000 0.04749250 40243.74265481 0 548.26004754 0 6107.48960271 0 541.06740632 0 3154.07022335 0 2568
0.04850000 0.04851840 40630.93634027 0 1340.30460401 0 8392.15417087 0 -1360.10239056 0 4930.66924171 0 2493
0.04950000 0.04949480 37851.70420899 0 751.92769710 0 10021.71719129 0 -1742.53795254 0 -1286.97812908 0 2644
0.05050000 0.05050630 36378.34960638 0 2143.32944546 0 8735.90363789 0 -3594.56820134 0 1420.59377872 0 2829
0.05150000 0.05149060 34587.01038728 0 745.69333530 0 9828.38653729 0 1137.41333824 0 -2561.45647921 0 2784
0.05250000 0.05249300 34287.76989361 0 100.16360143 0 11471.62500355 0 -238.96982033 0 -1340.38224239 0 3055
0.05350000 0.05348950 33886.82312394 0 382.13831789 0 8495.77922396 0 4164.55590371 0 -2528.16070597 0 3009
0.05450000 0.05448610 33810.73751287 0 -463.36691698 0 7043.44243957 0 3005.38163706 0 300.05236928 0 3336
0.05550000 0.05550870 32796.11481605 0 347.11453617 0 4863.27912905 0 -612.25514482 0 2114.08195910 0 3349
0.05650000 0.05647670 32958.37902740 0 1669.49132943 0 6934.03887288 0 39.73876046 0 -1262.21148630 0 3324
0.05750000 0.05747970 30834.41481181 0 874.16377867 0 6540.58975234 0 -3002.94157373 0 319.89008414 0 3639
0.05850000 0.05849280 29415.40707426 0 999.71058253 0 9884.72981779 0 -1234.08421084 0 -1164.79750350 0 3846
0.05950000 0.05951020 28983.40495313 0 881.84443256 0 10819.77317651 0 -1513.63782992 0 -1435.04560834 0 3787
0.06050000 0.06049470 28455.46397839 0 283.69396290 0 11041.45292991 0 310.66442652 0 -1983.62730060 0 3930
0.06150000 0.06148310 28411.98648635 0 -152.68030807 0 12691.98940376 0 80.51377145 0 -2394.24559402 0 4083
0.06250000 0.06249100 28138.25574567 0 94.89151187 0 11041.34201794 0 270.10059192 0 -2173.77478108 0 4303
0.06350000 0.06350600 29068.58534569 0 128.58801006 0 11425.59653621 0 643.83732813 0 -2563.55271543 0 4470
0.06450000 0.06451750 29273.66157726 0 -596.69308638 0 11709.08753021 0 111.49980292 0 -2594.06459824 0 4479
0.06550000 0.06550280 29492.04724517 0 -50.54746462 0 12708.07163933 0 1485.55491924 0 292.78763528 0 4636
0.06650000 0.06648880 29930.81499644 0 -150.53637970 0 9906.40201662 0 574.10919115 0 -1073.48589727 0 4653
0.06750000 0.06749660 29587.09880302 0 -113.73246087 0 10489.71024652 0 1796.90699998 0 -815.25843168 0 5220
0.06850000 0.06852730 29631.57450278 0 805.93184417 0 10282.44904915 0 673.92330897 0 2045.66036513 0 5029
0.06950000 0.06949320 29247.48635246 0 117.43470241 0 8748.38123446 0 1118.54721223 0 1002.42238018 0 5040
0.07050000 0.07048030 27851.88104047 0 678.72801549 0 9677.52407640 0 930.28412611 0 2982.87759845 0 5475
0.07150000 0.07148790 27409.56410617 0 330.37459262 0 7063.11822296 0 365.81983982 0 3286.72093885 0 5509
0.07250000 0.07249820 26721.90989538 0 34.85874471 0 6405.76516223 0 1972.95756913 0 3034.68457940 0 5916
0.07350000 0.07351270 26834.26372047 0 166.38570014 0 7452.89615731 0 167.71331641 0 2784.85536814 0 5721
0.07450000 0.07449140 26164.90998464 0 669.03320023 0 6014.63410185 0 -1108.47085980 0 1226.65310888 0 6028
0.07550000 0.07549160 25683.33021315 0 677.56454893 0 7389.88706745 0 -569.60061959 0 1305.11223609 0 6183
0.07650000 0.07648840 24522.74736449 0 535.46857010 0 8138.25449033 0 -2417.51492521 0 -1145.83155672 0 6330
0.07750000 0.07749960 24400.07872624 0 -252.14394406 0 8851.32972453 0 183.70904065 0 -704.36198987 0 6583
0.07850000 0.07848650 25470.37923175 0 77.84046025 0 8471.95533292 0 476.46783882 0 -3474.72781832 0 6549
0.07950000 0.07947320 25091.61485596 0 -307.45019764 0 8394.52768702 0 152.92653264 0 -1928.77024049 0 6828
0.08050000 0.08048110 24915.04300055 0 -8.77854929 0 7848.28623732 0 877.14065593 0 -2660.70050950 0 7147
0.08150000 0.08149960 25798.23501354 0 414.21184123 0 7984.21994712 0 665.07364292 0 -94.91136512 0 7386
0.08250000 0.08250610 24324.21493912 0 746.94553144 0 7804.55364775 0 -414.43366517 0 -1674.63764482 0 7227
0.08350000 0.08350160 23484.05677029 0 1401.55019356 0 9465.53802913 0 -1139.50957446 0 -200.77839276 0 7798
0.08450000 0.08449610 21299.97826724 0 871.36436056 0 9533.82652874 0 -635.23055929 0 -980.06585449 0 7371
0.08550000 0.08548940 21272.13936290 0 301.73712210 0 10811.19968126 0 586.80306606 0 -621.67378926 0 8256
0.08650000 0.08650700 20820.83855908 0 -79.50369614 0 8659.40765254 0 1317.77838301 0 -138.09982056 0 8037
0.08750000 0.08749060 20734.54904682 0 42.45965289 0 9250.10261961 0 730.69360055 0 -818.89745340 0 8155
0.08850000 0.08849210 20541.67313189 0 -85.01613194 0 7342.60529486 0 1239.05306707 0 -226.10957747 0 8718
0.08950000 0.08949900 20511.06142832 0 168.77807132 0 6896.99427507 0 421.40337333 0 -493.58710131 0 8571
0.09050000 0.09049190 20267.94239121 0 262.30237135 0 6870.29776402 0 389.11357165 0 53.06194988 0 8932
0.09150000 0.09150830 19420.46403240 0 534.18088214 0 6682.77889721 0 133.73765280 0 23.15697737 0 9285
0.09250000 0.09250820 19078.63334245 0 599.32946389 0 6774.54746076 0 -379.57403316 0 326.62133157 0 9204
0.09350000 0.09350330 18391.31186757 0 136.94966344 0 6757.23410233 0 364.76617611 0 54.04474084 0 9349
0.09450000 0.09448040 18354.60000567 0 291.92363104 0 7315.36531515 0 229.09865504 0 113.45518094 0 9564
0.09550000 0.09549270 17747.68970867 0 293.14477182 0 6949.21163030 0 -749.72276715 0 -8.14616251 0 10155
0.09650000 0.09649430 17644.87431296 0 399.90974276 0 8363.32815000 0 -228.80473832 0 -631.42073314 0 9913
0.09750000 0.09749140 17302.15632726 0 249.62180588 0 7053.97907668 0 350.48404180 0 -75.20042264 0 10476
0.09850000 0.09850240 16729.18509291 0 199.24115286 0 8002.85315799 0 270.40227248 0 -991.05279419 0 10575
0.09950000 0.09950330 16981.50982348 0 -167.22086727 0 6618.07285422 0 893.58668277 0 362.71319556 0 10882
0.10050000 0.10051200 16583.66858895 0 8.70971732 0 6728.66317899 0 1208.43027230 0 759.31443427 0 10875
0.10150000 0.10150300 16722.30855080 0 14.58314940 0 5153.33611164 0 646.13764237 0 710.33570855 0 11118
0.10250000 0.10250800 16768.33701814 0 -4.34545333 0 5090.89267283 0 997.54225352 0 1367.71095167 0 11575
0.10350000 0.10349800 16377.15050178 0 391.45825069 0 5079.49092236 0 -878.94852103 0 702.30013636 0 11364
0.10450000 0.10450100 16263.24390912 0 87.99522744 0 4774.89338057 0 196.52159137 0 1251.53066364 0 12093
0.10550000 0.10551000 16060.60774087 0 -116.37660222 0 4932.47710681 0 486.57746484 0 753.31520584 0 12067
0.10650000 0.10649700 16279.21523272 0 -53.50548685 0 3990.05810212 0 228.46534770 0 560.35499782 0 12054
0.10750000 0.10749900 16200.80047030 0 -8.10596802 0 4601.20523636 0 225.26110090 0 172.64668082 0 12807
0.10850000 0.10850100 16324.13458036 0 251.33428668 0 4159.46504431 0 -182.84725465 0 493.08134273 0 12736
0.10950000 0.10950300 15789.98253534 0 66.87071190 0 4633.01478921 0 199.06258459 0 569.08266070 0 12933
0.11050000 0.11050200 15860.41163596 0 166.98462477 0 4117.42940788 0 -12.20220215 0 343.01855714 0 13428
0.11150000 0.11150900 15841.77842509 0 157.64361870 0 4667.54168531 0 -129.65165585 0 1055.13440280 0 13453
0.11250000 0.11250000 15293.09691206 0 344.29293567 0 4914.68682691 0 65.04343721 0 558.59149750 0 13668
0.11350000 0.11349100 15136.82194706 0 302.84624179 0 5137.49788240 0 257.23147610 0 1257.25372126 0 13791
0.11450000 0.11448600 14721.34570938 0 365.14327681 0 4907.76592001 0 -597.44950601 0 429.46445527 0 14205
0.11550000 0.11549300 14296.66377823 0 422.20415775 0 5838.07333764 0 -393.13967615 0 772.45417530 0 14776
0.11650000 0.11649800 13757.96434245 0 254.80472221 0 6278.41603887 0 -238.88996371 0 748.13228951 0 14553
0.11750000 0.11747300 13590.04362066 0 119.17934769 0 6133.09917646 0 306.96440322 0 1005.92608930 0 14568
0.11850000 0.11849100 13679.32775609 0 -33.57704599 0 5926.23726218 0 407.91093224 0 851.80836210 0 16015
0.11950000 0.11950300 13719.69971298 0 -186.57389682 0 5035.88033596 0 680.23530915 0 17.51466366 0 15270
0.12050000 0.12050700 13948.40019405 0 54.54550838 0 5800.64054794 0 188.77882678 0 1731.41348200 0 15999
0.12150000 0.12150000 13792.90161284 0 79.12337900 0 4679.55345161 0 167.13213769 0 586.95390634 0 15670
0.12250000 0.12250700 13739.33113158 0 4.26117132 0 5179.85516355 0 252.19829093 0 879.42544250 0 16887
0.12350000 0.12352200 13743.10213854 0 17.05471172 0 4452.10627579 0 -256.71684456 0 271.71990668 0 16407
0.12450000 0.12449800 13774.71204985 0 177.39482223 0 4962.87807765 0 -68.14520135 0 990.53816265 0 16306
0.12550000 0.12549900 13576.95600826 0 124.23027878 0 4917.63708530 0 57.49144121 0 -58.62318694 0 17523
0.12650000 0.12650100 13518.61631231 0 58.39348825 0 4791.01998094 0 41.16941395 0 92.37713753 0 17154
0.12750000 0.12750600 13314.09464059 0 116.42096701 0 4782.56848886 0 101.12731553 0 -343.00857506 0 18007
0.12850000 0.12850300 13125.87702837 0 242.01324477 0 4515.31500720 0 140.48220967 0 -81.55745308 0 17496
0.12950000 0.12949900 12882.09251945 0 30.24391949 0 4240.63042358 0 329.86883404 0 -91.39944852 0 18405
0.13050000 0.13049000 12878.54333643 0 -83.59091313 0 3711.74669710 0 713.30371285 0 -85.82700934 0 18100
0.13150000 0.13148800 12921.79900453 0 12.37001196 0 3436.55191842 0 428.44073779 0 78.66708715 0 19059
0.13250000 0.13249300 12793.58476781 0 150.53305234 0 2852.09020404 0 -94.94352959 0 -478.02282463 0 18957
0.13350000 0.13349100 12767.74227892 0 9.05092690 0 2875.99173346 0 344.69554612 0 -148.94812030 0 19468
0.13450000 0.13450700 12463.39983466 0 36.78683839 0 2716.64450691 0 180.31957086 0 -95.93785539 0 19953
0.13550000 0.13551000 12586.73394472 0 75.40161695 0 2554.73521386 0 228.92119589 0 -289.32052711 0 19956
0.13650000 0.13649900 12280.61690895 0 216.42252605 0 2230.10697038 0 131.78560214 0 -123.86094192 0 19723
0.13750000 0.13749600 11903.40530074 0 426.69831075 0 3292.72127640 0 -430.16320068 0 -320.82839940 0 20946
0.13850000 0.13851100 11655.29522501 0 338.71628184 0 2810.80876900 0 -506.18226456 0 121.98542052 0 20955
0.13950000 0.13949800 10904.06627331 0 412.64465510 0 3970.97015218 0 -489.12400366 0 -333.19730224 0 20506
0.14050000 0.14048300 10811.07767810 0 359.63317017 0 4304.08316132 0 -435.16422138 0 186.47296693 0 21447
0.14150000 0.14148400 10258.08168946 0 127.56651082 0 4162.23784355 0 348.08501590 0 -500.46253430 0 21771
0.14250000 0.14249400 10421.90975958 0 -19.98833332 0 4422.41514156 0 419.69643812 0 63.60646173 0 22470
0.14350000 0.14350900 10322.36626697 0 -125.30945224 0 3510.94057635 0 553.14904716 0 47.81570281 0 22519
0.14450000 0.14449900 10358.82303134 0 -35.32069307 0 3808.49520808 0 516.76770293 0 215.53523029 0 22218
0.14550000 0.14550500 10368.62764944 0 127.22157459 0 3070.75315187 0 -92.82544371 0 281.59772668 0 23559
0.14650000 0.14650700 10161.21117531 0 75.02717814 0 2948.70562065 0 101.39073146 0 -195.23501252 0 23044
0.14750000 0.14750500 10270.07127336 0 13.57895242 0 2850.03833260 0 -200.53216818 0 -58.01062013 0 23649
0.14850000 0.14849900 10263.06163689 0 -74.96784024 0 2716.23413262 0 225.45076037 0 -462.79350210 0 23640
0.14950000 0.14949500 10236.53149379 0 8.93037669 0 2416.05088722 0 277.37308976 0 -839.53817092 0 24457
0.15050000 0.15050000 10281.85012452 0 9.55619747 0 2511.33536020 0 54.48572683 0 -554.08736242 0 24591
0.15150000 0.15149900 10200.47401251 0 159.83302098 0 2016.71234110 0 27.27059141 0 -809.31465923 0 25020
0.15250000 0.15250500 10033.88423435 0 126.23889454 0 2539.21862933 0 -106.36812792 0 -189.25796649 0 25297
0.15350000 0.15350100 9783.86647274 0 217.27876646 0 2598.78944813 0 -274.49825151 0 -837.76357941 0 25452
0.15450000 0.15450400 9782.20279320 0 155.96330237 0 3027.60839574 0 -59.54808186 0 175.56810209 0 26061
0.15550000 0.15549900 9516.83481501 0 -17.52287115 0 2821.42304448 0 246.62718270 0 -179.95356137 0 26128
0.15650000 0.15649500 9826.05738593 0 -7.64231162 0 3259.19258802 0 239.32695687 0 530.01613768 0 26331
0.15750000 0.15749700 9707.59231133 0 35.87325650 0 2762.00750243 0 121.67708524 0 -228.90788646 0 27345
0.15850000 0.15849900 9556.36384094 0 189.11932652 0 3116.73725442 0 -193.36836407 0 591.34602033 0 26980
0.15950000 0.15949700 9374.12438388 0 170.40404079 0 2748.05477666 0 -30.60538159 0 193.56911474 0 27777
0.16050000 0.16050000 9297.89458726 0 39.45604585 0 3330.26497807 0 272.92330154 0 585.24031641 0 28224
0.16150000 0.16150500 9102.58970019 0 121.09701564 0 2844.08235984 0 80.63455458 0 59.64690442 0 28075
0.16250000 0.16249700 8984.52390868 0 209.46169085 0 3032.69925514 0 -127.93806592 0 230.55492920 0 28590
0.16350000 0.16349900 8659.17473740 0 238.17236327 0 2746.10272600 0 -85.62193311 0 -33.02670080 0 29163
0.16450000 0.16449100 8533.99948864 0 113.11135384 0 2919.16976318 0 2.11696567 0 193.25301563 0 28996
0.16550000 0.16550500 8300.36342493 0 15.28000930 0 2670.99314027 0 150.93899015 0 -39.20383203 0 30777
0.16650000 0.16650700 8420.70291182 0 8.97264524 0 2768.67331179 0 308.59480917 0 10.33960199 0 29211
0.16750000 0.16749900 8298.08972955 0 -22.50847509 0 2492.61341975 0 305.32179695 0 8.90460074 0 30922
0.16850000 0.16850800 8557.36864061 0 -102.89591780 0 2094.97182676 0 166.79496531 0 73.39100477 0 30867
0.16950000 0.16949900 8451.00406188 0 50.41969403 0 2156.15086913 0 -47.51557502 0 113.26884883 0 30852
0.17050000 0.17049200 8487.33882308 0 107.05788945 0 2128.47833274 0 -297.13427536 0 -206.86745988 0 31257
0.17150000 0.17149500 8393.28547296 0 140.45337255 0 2609.12644369 0 -290.44406536 0 -296.61187999 0 32608
0.17250000 0.17250900 8182.20890384 0 245.62453850 0 2654.44507442 0 -304.98795192 0 -511.26092364 0 32361
0.17350000 0.17350400 7936.19506433 0 171.35233813 0 3079.09373198 0 -291.19937588 0 -919.96265823 0 32508
0.17450000 0.17449800 7862.22787188 0 128.26081975 0 3105.21350079 0 55.33608890 0 -412.73893027 0 32791
0.17550000 0.17549800 7679.14548386 0 -70.17233941 0 3141.49280601 0 713.08965275 0 -405.42206765 0 33633
0.17650000 0.17650100 7916.44164257 0 -149.83874341 0 2414.42048126 0 598.19483444 0 393.90385962 0 33984
0.17750000 0.17750300 7923.02981355 0 -97.10542570 0 2186.40765440 0 567.62416830 0 352.60578778 0 34069
0.17850000 0.17849800 8089.59740932 0 33.89314511 0 1872.47132478 0 282.02473776 0 1122.36258398 0 34536
