### header ###
fiducial parameters:
Omega_m = 0.31
Omega_nu = 0
Omega_de = 0.69
Omega_k = 0
H_0 = 100
w_de = -1
zeff = 0
beta = 0
fgrowth = 0
b_1 = 2
gamma = 0.55
Lx = 3500 Ly = 3500 Lz = 3500
nx = 700 ny = 700 nz = 700
xoffset = 1379.75464 yoffset = 22.6059522 zoffset = 368.141391
bins = 400 dk = 0.001
kx_ny = 0.628318531 ky_ny = 0.628318531 kz_ny = 0.628318531
############################
A(data) = 3.35836443 (not used)
A(ran) = 3.3606813 (used)
Ngal = 188519
weighted Ngal = 0
Nran = 9399747
weighted Nran = 0
SN(data) = 6657.69324
SN(ran) = 133.672385
SN(data+ran) = 6791.36563
############################
13 columns: k_central k_mean P_0(k) sigma^{lin}_{P_0(k)} P^img_1(k) sigma^{lin}_{P_1(k)} P_2(k) sigma^{lin}_{P_2(k)} P^img_3(k) sigma^{lin}_{P_3(k)} P_4(k) sigma^{lin}_{P_4(k)} N_modes
### header ###
0.00050000 0 0 0 0 0 0 0 0 0 0 0 0
0.00150000 0.00179520 75001.22473918 0 -93600.05290165 0 -156429.13263804 0 177099.79639044 0 105607.93727765 0 3
0.00250000 0.00253879 123524.87865174 0 -81030.39940023 0 -37423.58400678 0 -164229.57145172 0 -102982.98369591 0 6
0.00350000 0.00331552 169894.95485287 0 -26622.97641861 0 -113497.32749086 0 -80305.81150361 0 21561.39777931 0 7
0.00450000 0.00420575 184690.61158180 0 21323.82434068 0 -36638.99273467 0 -150223.60794551 0 -5700.12102999 0 24
0.00550000 0.00557378 106472.27425582 0 53493.50835309 0 33038.56838133 0 -79844.41771056 0 39194.62633548 0 45
0.00650000 0.00659388 80947.88089494 0 7908.46707196 0 80541.49943876 0 89577.27576853 0 -16665.41071046 0 40
0.00750000 0.00754703 57468.03877949 0 -14265.05386693 0 51395.49753837 0 44137.75099136 0 -35065.81735953 0 57
0.00850000 0.00846663 92644.32446063 0 -14568.73083937 0 5334.46644900 0 47451.35699161 0 -16660.41967183 0 75
0.00950000 0.00948925 97603.08770421 0 -12927.56642694 0 -19206.18210736 0 321.55820016 0 -5929.78644520 0 112
0.01050000 0.01054430 99636.99140057 0 4888.56705810 0 -1926.85146342 0 -43042.82802863 0 -17091.97814509 0 105
0.01150000 0.01145670 98115.94465109 0 16504.92109062 0 8726.25429654 0 -50274.95391069 0 -27295.65751351 0 144
0.01250000 0.01249090 88881.52498397 0 12340.50937247 0 47961.10840335 0 -38654.15230819 0 -40622.83976650 0 169
0.01350000 0.01339930 81656.49746796 0 3068.22435897 0 61800.59304337 0 3603.70734763 0 -30921.59161983 0 180
0.01450000 0.01448870 77512.16081629 0 1663.80154540 0 71483.09706720 0 10676.80764784 0 -20062.97707161 0 267
0.01550000 0.01550050 82076.52109639 0 3882.82841003 0 72976.41582431 0 12606.14353938 0 -23122.37283781 0 238
0.01650000 0.01653350 82717.37045606 0 262.26244304 0 72340.66841524 0 24127.01345738 0 11604.16480708 0 315
0.01750000 0.01747870 79732.28570941 0 -1351.35143617 0 59293.09523732 0 23904.74587053 0 22773.55469379 0 297
0.01850000 0.01844180 79312.92755280 0 1877.40690743 0 58135.28518790 0 19303.00825672 0 38618.54956599 0 388
0.01950000 0.01947590 78330.46932713 0 3736.83498460 0 47185.50100076 0 9684.24534175 0 27945.15800680 0 399
0.02050000 0.02045430 71926.41220922 0 2101.79291289 0 50745.55339720 0 10335.53151775 0 35475.41526283 0 462
0.02150000 0.02154770 69855.90756293 0 1213.22166938 0 42064.91719371 0 8278.73559088 0 28368.73081826 0 571
0.02250000 0.02255340 71294.87945499 0 673.97987407 0 42899.41885209 0 3190.87081482 0 37032.28657845 0 510
0.02350000 0.02348930 67136.90063107 0 921.78716013 0 26106.12664082 0 6606.29400306 0 7955.13882872 0 555
0.02450000 0.02439640 67120.70748353 0 1104.54901256 0 30756.88734515 0 -1085.20929244 0 9406.23339905 0 592
0.02550000 0.02547300 66296.29881437 0 1582.82471648 0 30809.45961868 0 -3390.05762082 0 4106.51567008 0 837
0.02650000 0.02652900 63333.39646162 0 2034.35843544 0 37857.80436731 0 -5959.44430584 0 -3672.22876237 0 723
0.02750000 0.02749970 64877.29107681 0 2511.13571865 0 31463.84023863 0 -3128.00591052 0 -18827.75046749 0 826
0.02850000 0.02848090 59827.02545841 0 1861.04739193 0 39790.44543553 0 -1037.91088306 0 -13565.31025146 0 831
0.02950000 0.02946900 57859.66894373 0 1764.46524890 0 36176.60073390 0 5720.32919083 0 -6484.14665107 0 996
0.03050000 0.03053250 58553.20148890 0 -459.16778982 0 36693.11777577 0 8207.77411281 0 -7525.92059802 0 1041
0.03150000 0.03150510 55270.87266405 0 1398.20065208 0 33573.16407424 0 5743.16596535 0 -1288.71944700 0 1036
0.03250000 0.03246190 54922.49816790 0 1910.33667116 0 29922.27477479 0 3118.88894663 0 4533.87057969 0 1059
0.03350000 0.03345080 54157.87105029 0 2303.87452128 0 31840.38637502 0 282.87543257 0 7332.30157289 0 1302
0.03450000 0.03451200 49269.31508339 0 1949.45532280 0 36014.00378663 0 2425.67804617 0 13426.44846567 0 1339
0.03550000 0.03553350 48926.81892163 0 1474.19753357 0 33441.06791859 0 2475.46642927 0 8650.53469498 0 1365
0.03650000 0.03647120 46353.77214162 0 1148.61544715 0 31697.64267029 0 4785.56311204 0 16912.63349044 0 1308
0.03750000 0.03744890 46065.40102096 0 928.16903485 0 32880.07517694 0 3379.08842703 0 13169.02178450 0 1579
0.03850000 0.03847530 44947.63019252 0 490.85866686 0 31036.71824415 0 3313.96091855 0 17931.13810619 0 1662
0.03950000 0.03950240 43907.94139059 0 244.38343356 0 29247.70817640 0 4742.96182456 0 13536.36222743 0 1683
0.04050000 0.04050350 43578.42192926 0 195.19841157 0 25808.88256261 0 254.29341803 0 13685.64973835 0 1822
0.04150000 0.04152450 45064.75323229 0 -551.44987579 0 25148.62360828 0 5431.48114871 0 12404.39466689 0 1887
0.04250000 0.04250150 43267.09203092 0 554.92807515 0 25825.63027000 0 4121.11168526 0 12771.62419785 0 1920
0.04350000 0.04349210 43860.69289159 0 109.44770966 0 17787.95075359 0 3129.74722844 0 13774.49022591 0 2005
0.04450000 0.04448520 41700.34955002 0 443.41939927 0 20428.98657090 0 2323.57248706 0 11663.72453469 0 2151
0.04550000 0.04548030 43049.59365877 0 1998.73351084 0 19360.90430479 0 -46.78599609 0 14175.54790755 0 2274
0.04650000 0.04648670 39770.48128103 0 1014.72251760 0 17324.78236903 0 831.61129246 0 10002.57378536 0 2311
0.04750000 0.04749250 36800.03691436 0 1939.18487443 0 22047.30311762 0 -1431.52969891 0 12460.84885936 0 2568
0.04850000 0.04851840 37022.85906104 0 1076.57035914 0 22573.24767690 0 306.08819866 0 10204.66648495 0 2493
0.04950000 0.04949480 33815.06307968 0 -267.32446532 0 19738.33773693 0 1756.92323498 0 6296.61669307 0 2644
0.05050000 0.05050630 36583.64766190 0 -328.91831846 0 20539.78762841 0 3873.36761903 0 8838.35302410 0 2829
0.05150000 0.05149060 34989.06627665 0 -296.18154154 0 16118.06014107 0 1887.44444066 0 7073.32212415 0 2784
0.05250000 0.05249300 37764.19466506 0 -606.19713304 0 13374.98531183 0 3158.28487819 0 7162.12933812 0 3055
0.05350000 0.05348950 35554.38458510 0 618.62371010 0 13519.28178413 0 -443.53142036 0 3704.24904796 0 3009
0.05450000 0.05448610 34939.15589038 0 1933.73909673 0 14666.55519645 0 -3386.20897547 0 5712.65408255 0 3336
0.05550000 0.05550870 33284.12748177 0 675.27865323 0 14632.06157394 0 825.96698233 0 1094.26636387 0 3349
0.05650000 0.05647670 33613.20329522 0 -1143.58004374 0 12930.33922618 0 2535.13706885 0 1179.41570108 0 3324
0.05750000 0.05747970 33880.83387758 0 -356.03407676 0 13466.48768665 0 1143.31385501 0 -523.57880698 0 3639
0.05850000 0.05849280 33955.69945698 0 1349.07774080 0 11197.00696711 0 -1411.19953490 0 -5165.22587477 0 3846
0.05950000 0.05951020 31986.67926277 0 1866.29352808 0 14662.45145358 0 -4290.75154259 0 -603.69717725 0 3787
0.06050000 0.06049470 30473.17452721 0 941.17124503 0 14450.38776793 0 519.33531502 0 -3244.49675207 0 3930
0.06150000 0.06148310 30141.76956240 0 -188.14884679 0 16261.13658170 0 1402.13802700 0 -460.91687158 0 4083
0.06250000 0.06249100 30549.03831434 0 -594.03563559 0 12866.23210782 0 3866.65744488 0 -4131.23794808 0 4303
0.06350000 0.06350600 30162.84283660 0 80.89641774 0 12606.69809923 0 1936.68935511 0 975.10032562 0 4470
0.06450000 0.06451750 29579.55678909 0 1347.18114612 0 12221.94447709 0 -650.90907530 0 1803.35098540 0 4479
0.06550000 0.06550280 28723.31638469 0 740.21317489 0 13345.37181598 0 1201.24317667 0 2736.58647902 0 4636
0.06650000 0.06648880 27434.29747537 0 372.27380733 0 12950.85794053 0 1500.35057597 0 5114.37273676 0 4653
0.06750000 0.06749660 27334.80943874 0 -215.31673371 0 11779.29480689 0 1399.15449502 0 4144.12591893 0 5220
0.06850000 0.06852730 27762.04234519 0 143.17626140 0 10558.87495069 0 684.24366773 0 6091.51827910 0 5029
0.06950000 0.06949320 26523.59929395 0 556.41318642 0 11107.27918380 0 -700.52443573 0 1174.34702407 0 5040
0.07050000 0.07048030 27354.55176931 0 130.21176129 0 11398.64492763 0 -428.37973621 0 5912.15144205 0 5475
0.07150000 0.07148790 26718.36071236 0 -684.43665456 0 9919.16798431 0 1842.00380677 0 1033.05404791 0 5509
0.07250000 0.07249820 27859.75579030 0 -68.76919209 0 9813.60197176 0 466.80186068 0 2887.89258779 0 5916
0.07350000 0.07351270 26889.38696930 0 417.14879018 0 8764.95148270 0 421.33128055 0 82.59337087 0 5721
0.07450000 0.07449140 27027.47237131 0 292.91962052 0 8798.80181578 0 -457.57620306 0 497.99585209 0 6028
0.07550000 0.07549160 26564.30398675 0 315.80630542 0 9444.87512921 0 -140.25816749 0 265.37906938 0 6183
0.07650000 0.07648840 25874.76427248 0 164.20627994 0 7645.09550923 0 407.03472768 0 -1090.87356672 0 6330
0.07750000 0.07749960 25983.67982651 0 -117.78629335 0 8303.85715197 0 654.79986719 0 -1410.09041521 0 6583
0.07850000 0.07848650 26393.38864178 0 338.40905569 0 5965.08972509 0 542.75326826 0 -2984.86292271 0 6549
0.07950000 0.07947320 25069.09972616 0 801.49869275 0 8682.14460628 0 -601.21940385 0 -1524.49611173 0 6828
0.08050000 0.08048110 23908.62778947 0 1079.45850682 0 7817.66344255 0 -1090.57743176 0 -2909.62024261 0 7147
0.08150000 0.08149960 23095.19940528 0 702.60181692 0 8994.07342925 0 -19.86122820 0 -1720.01173153 0 7386
0.08250000 0.08250610 22274.78356702 0 169.74744193 0 8378.66727538 0 1010.05423280 0 -2122.78854871 0 7227
0.08350000 0.08350160 22190.15773431 0 351.26708031 0 9645.34851405 0 318.71552638 0 398.39468526 0 7798
0.08450000 0.08449610 21580.36372610 0 370.84858852 0 8466.13245452 0 436.74804431 0 499.56303822 0 7371
0.08550000 0.08548940 21198.82655108 0 302.43143103 0 8434.50036082 0 345.02828202 0 82.32984403 0 8256
0.08650000 0.08650700 21259.60631035 0 43.53782815 0 8547.23128660 0 837.93771120 0 1973.40121701 0 8037
0.08750000 0.08749060 20752.96043376 0 200.34916343 0 9852.64298501 0 596.84281754 0 1124.55864097 0 8155
0.08850000 0.08849210 20592.69263786 0 300.52152691 0 8716.87114393 0 -426.04725749 0 3622.50692646 0 8718
0.08950000 0.08949900 20017.61407609 0 267.15477001 0 9002.11454704 0 484.93818593 0 342.88435365 0 8571
0.09050000 0.09049190 20179.76737547 0 163.60957354 0 9666.96525690 0 -501.53616216 0 2360.41744332 0 8932
0.09150000 0.09150830 19933.32097928 0 131.22327845 0 8817.10229075 0 766.30188835 0 1199.43531157 0 9285
0.09250000 0.09250820 19497.32602725 0 442.83489319 0 10274.97358241 0 -501.19233506 0 1737.91292341 0 9204
0.09350000 0.09350330 19359.12971328 0 161.37580648 0 9015.41289218 0 281.80956854 0 1738.19020333 0 9349
0.09450000 0.09448040 19202.96566024 0 -57.46127315 0 9244.21319403 0 1428.46852855 0 733.53738344 0 9564
0.09550000 0.09549270 18932.00771880 0 220.77138437 0 8205.04567836 0 103.28455334 0 1590.15599766 0 10155
0.09650000 0.09649430 18572.09837783 0 412.70232932 0 8939.11654837 0 -267.97995506 0 784.46372335 0 9913
0.09750000 0.09749140 18773.95816229 0 -57.67832787 0 7593.75435855 0 409.26627651 0 1620.84533962 0 10476
0.09850000 0.09850240 18457.85904926 0 -246.64381950 0 7585.48032563 0 792.26859864 0 -161.92592985 0 10575
0.09950000 0.09950330 18609.80844745 0 177.88172578 0 7002.21646052 0 96.75616391 0 273.85052561 0 10882
0.10050000 0.10051200 18023.41686480 0 547.95503963 0 6959.26025474 0 -158.25474366 0 -743.02479331 0 10875
0.10150000 0.10150300 17708.53778344 0 112.90838493 0 6145.93169133 0 209.41178046 0 -150.17258844 0 11118
0.10250000 0.10250800 17454.54937333 0 49.61303128 0 6263.27655504 0 773.10522856 0 -661.61984419 0 11575
0.10350000 0.10349800 17353.17583322 0 170.38296752 0 6075.90187380 0 202.61953145 0 -531.44246561 0 11364
0.10450000 0.10450100 16760.46226831 0 423.69481462 0 5280.39686388 0 63.74609990 0 -729.59668117 0 12093
0.10550000 0.10551000 16496.38086897 0 252.88039954 0 5170.80474684 0 261.70677407 0 -583.99588411 0 12067
0.10650000 0.10649700 15925.40605007 0 318.83531131 0 5339.37984925 0 458.98034859 0 222.55263060 0 12054
0.10750000 0.10749900 15299.86254220 0 291.24263154 0 5203.70123699 0 85.46621271 0 -837.09588935 0 12807
0.10850000 0.10850100 15536.65959704 0 122.45014167 0 4991.63755134 0 642.51303921 0 294.82397904 0 12736
0.10950000 0.10950300 15024.46812197 0 -68.53483509 0 4932.88748110 0 478.17699227 0 -245.45927966 0 12933
0.11050000 0.11050200 15146.02764052 0 85.41541503 0 4188.03596765 0 120.27404883 0 567.87704759 0 13428
0.11150000 0.11150900 15354.32031921 0 -71.78366850 0 4109.46592847 0 470.54735789 0 1179.11623876 0 13453
0.11250000 0.11250000 15162.22078807 0 110.57402071 0 4355.49085917 0 -517.75260122 0 -128.17541753 0 13668
0.11350000 0.11349100 15217.01130099 0 437.12625412 0 4842.76041470 0 -462.07922902 0 888.11872267 0 13791
0.11450000 0.11448600 14463.91902821 0 321.78113322 0 5488.66736018 0 -608.57730391 0 76.91745084 0 14205
0.11550000 0.11549300 14558.97058605 0 149.05681403 0 6307.85207557 0 -530.43649405 0 773.51893020 0 14776
0.11650000 0.11649800 14180.64985815 0 195.33039681 0 6504.11080557 0 175.16660076 0 8.45827989 0 14553
0.11750000 0.11747300 14306.86767942 0 145.33682657 0 6556.25052243 0 -131.99633488 0 57.32684784 0 14568
0.11850000 0.11849100 14272.48496888 0 -50.48901401 0 6558.59076498 0 184.14270645 0 -49.42936106 0 16015
0.11950000 0.11950300 14130.07400007 0 85.89943486 0 6565.97750215 0 380.86948496 0 -581.41052610 0 15270
0.12050000 0.12050700 14072.06704003 0 110.91640596 0 5993.51646287 0 -205.70399332 0 -690.85291199 0 15999
0.12150000 0.12150000 13767.39185986 0 382.87255513 0 6149.13704725 0 -16.80604709 0 -943.65234579 0 15670
0.12250000 0.12250700 13326.84951708 0 229.85285644 0 5998.84023740 0 251.50065464 0 -527.75686087 0 16887
0.12350000 0.12352200 13057.77707911 0 50.78171070 0 5773.26747387 0 467.43184066 0 -755.67873991 0 16407
0.12450000 0.12449800 13105.91287387 0 -14.23266757 0 5672.80341191 0 764.10139488 0 213.89595139 0 16306
0.12550000 0.12549900 12946.86510963 0 44.85013857 0 4886.61500743 0 579.04366467 0 -37.25366687 0 17523
0.12650000 0.12650100 13011.74861178 0 36.30525862 0 4804.30723488 0 622.03868964 0 1247.11636725 0 17154
0.12750000 0.12750600 12939.21218374 0 -46.25395137 0 4580.03214139 0 277.98976031 0 1251.16465414 0 18007
0.12850000 0.12850300 12941.87407100 0 61.00003045 0 4489.07323522 0 87.77539991 0 1391.22428920 0 17496
0.12950000 0.12949900 12889.85635732 0 166.68516246 0 4729.69675301 0 -92.75479278 0 1198.20418871 0 18405
0.13050000 0.13049000 12704.63336828 0 370.95284577 0 4941.33897318 0 -736.28689117 0 797.55577223 0 18100
0.13150000 0.13148800 12249.00699765 0 273.30816608 0 5326.73588473 0 -664.75865293 0 918.71157121 0 19059
0.13250000 0.13249300 11789.60962005 0 414.48357555 0 6081.81348177 0 -374.77598136 0 -324.59386077 0 18957
0.13350000 0.13349100 11789.49870808 0 30.32743620 0 6271.60604395 0 -289.26950761 0 -127.10955351 0 19468
0.13450000 0.13450700 11759.33065238 0 -181.96106801 0 6065.48723986 0 1019.04142969 0 -347.62584035 0 19953
0.13550000 0.13551000 12054.35649121 0 -352.26196067 0 5108.71622632 0 801.34452511 0 -392.81803143 0 19956
0.13650000 0.13649900 12371.45381196 0 -107.61488937 0 4579.86577344 0 117.18182312 0 -532.83330171 0 19723
0.13750000 0.13749600 12433.12086699 0 147.80572701 0 4444.65299144 0 -34.19571296 0 -488.55391613 0 20946
0.13850000 0.13851100 12133.43672545 0 174.38688962 0 4622.04559543 0 125.38709062 0 172.46922166 0 20955
0.13950000 0.13949800 12092.84294462 0 228.04055485 0 4329.88128542 0 65.88204261 0 178.93317125 0 20506
0.14050000 0.14048300 11764.98716283 0 -9.32025444 0 4746.61082836 0 491.97333215 0 312.35361581 0 21447
0.14150000 0.14148400 11909.72728300 0 100.21040628 0 4208.32176687 0 352.62353369 0 735.20882682 0 21771
0.14250000 0.14249400 11544.38325553 0 106.88320310 0 4056.25036551 0 324.51511327 0 707.80913388 0 22470
0.14350000 0.14350900 11476.50513020 0 305.34619758 0 4239.57675987 0 -235.50493040 0 843.61862228 0 22519
0.14450000 0.14449900 10988.33718772 0 143.25500890 0 3921.51450498 0 -22.87060267 0 888.77532153 0 22218
0.14550000 0.14550500 10948.51979068 0 67.04506552 0 4026.03794502 0 418.27232843 0 889.18015022 0 23559
0.14650000 0.14650700 10735.14734379 0 102.62174341 0 3759.89358305 0 248.98849853 0 522.47745112 0 23044
0.14750000 0.14750500 10801.28415119 0 84.18273940 0 3393.95063094 0 292.38058835 0 940.97160349 0 23649
0.14850000 0.14849900 10500.33561320 0 109.71389839 0 3016.94975548 0 211.55016323 0 606.02965597 0 23640
0.14950000 0.14949500 10325.28325177 0 32.75818292 0 2969.93417161 0 143.08753183 0 989.66750369 0 24457
0.15050000 0.15050000 10316.04428471 0 105.36248909 0 2842.29667713 0 205.32689262 0 364.46782292 0 24591
0.15150000 0.15149900 10285.41039874 0 173.78463762 0 3207.54088384 0 -48.76777116 0 1047.38498349 0 25020
0.15250000 0.15250500 9860.49555245 0 156.89607203 0 2675.91763171 0 -104.80493462 0 665.21893760 0 25297
0.15350000 0.15350100 9948.39328827 0 89.86597963 0 3194.12053553 0 -53.77877394 0 470.91004003 0 25452
0.15450000 0.15450400 9845.81080769 0 71.57005205 0 3134.52753432 0 27.29299563 0 753.90414840 0 26061
0.15550000 0.15549900 9560.47867500 0 103.54009452 0 3081.15669461 0 236.70056143 0 450.32921497 0 26128
0.15650000 0.15649500 9781.40422702 0 -47.86760961 0 2801.88035545 0 266.98285646 0 981.93804854 0 26331
0.15750000 0.15749700 9555.67618673 0 63.61921661 0 2655.57637651 0 159.85520338 0 361.70611488 0 27345
0.15850000 0.15849900 9548.44472632 0 346.57328576 0 3050.68917659 0 -409.42598975 0 753.73334397 0 26980
0.15950000 0.15949700 9113.59216757 0 255.54339593 0 2964.74349144 0 -325.27375114 0 772.83903983 0 27777
0.16050000 0.16050000 8809.17208493 0 33.56662027 0 3340.25814652 0 183.49165319 0 833.06534838 0 28224
0.16150000 0.16150500 8861.50035213 0 30.46041965 0 3215.45999846 0 93.67946587 0 432.31045641 0 28075
0.16250000 0.16249700 8884.74750093 0 -15.98430031 0 3215.26035691 0 219.27850926 0 217.69579546 0 28590
0.16350000 0.16349900 8986.77542166 0 -32.36233810 0 3009.88466302 0 65.45880253 0 831.95068309 0 29163
0.16450000 0.16449100 8893.37645216 0 8.56293642 0 2845.93458973 0 35.41241726 0 174.35805250 0 28996
0.16550000 0.16550500 9022.38925506 0 38.23756695 0 2953.70775048 0 -182.88940120 0 134.53843722 0 30777
0.16650000 0.16650700 8910.57889863 0 203.67208604 0 3032.95435267 0 -274.49270591 0 -322.73497616 0 29211
0.16750000 0.16749900 8699.74633584 0 61.34463394 0 3152.02944311 0 -79.85484344 0 -76.51273306 0 30922
0.16850000 0.16850800 8646.09821620 0 28.50659440 0 2998.69364530 0 343.17827037 0 -316.57936185 0 30867
0.16950000 0.16949900 8662.76828521 0 52.20814954 0 2879.88474359 0 179.69513648 0 -333.63984100 0 30852
0.17050000 0.17049200 8547.56402251 0 99.51498823 0 2642.03402504 0 213.91813378 0 -258.40603386 0 31257
0.17150000 0.17149500 8357.74927794 0 112.37711660 0 2455.69082511 0 37.88531054 0 -471.48567315 0 32608
0.17250000 0.17250900 8278.02575428 0 48.49304221 0 2337.40320966 0 1.86658190 0 -41.95001239 0 32361
0.17350000 0.17350400 8256.27591706 0 39.02870203 0 2313.61259220 0 210.69725019 0 -691.68807912 0 32508
0.17450000 0.17449800 8178.02752259 0 66.79762092 0 2061.23240565 0 -12.24323958 0 -392.83466823 0 32791
0.17550000 0.17549800 8098.98056194 0 87.16593864 0 2073.63236383 0 -65.90855057 0 -1114.41019577 0 33633
0.17650000 0.17650100 7931.03765775 0 167.93846771 0 2180.03021616 0 -167.92848563 0 -627.54325069 0 33984
0.17750000 0.17750300 7762.29618738 0 101.37376193 0 2062.13079260 0 56.90959701 0 -998.19885238 0 34069
0.17850000 0.17849800 7789.66926145 0 40.75837419 0 1894.80899544 0 267.21022600 0 -732.39166280 0 34536
