### header ###
fiducial parameters:
Omega_m = 0.31
Omega_nu = 0
Omega_de = 0.69
Omega_k = 0
H_0 = 100
w_de = -1
zeff = 0
beta = 0
fgrowth = 0
b_1 = 2
gamma = 0.55
Lx = 3500 Ly = 3500 Lz = 3500
nx = 700 ny = 700 nz = 700
xoffset = 1379.75464 yoffset = 22.6059522 zoffset = 368.141391
bins = 400 dk = 0.001
kx_ny = 0.628318531 ky_ny = 0.628318531 kz_ny = 0.628318531
############################
A(data) = 3.3419065 (not used)
A(ran) = 3.34824266 (used)
Ngal = 187782
weighted Ngal = 0
Nran = 9399747
weighted Nran = 0
SN(data) = 6613.35372
SN(ran) = 133.177634
SN(data+ran) = 6746.53136
############################
13 columns: k_central k_mean P_0(k) sigma^{lin}_{P_0(k)} P^img_1(k) sigma^{lin}_{P_1(k)} P_2(k) sigma^{lin}_{P_2(k)} P^img_3(k) sigma^{lin}_{P_3(k)} P_4(k) sigma^{lin}_{P_4(k)} N_modes
### header ###
0.00050000 0 0 0 0 0 0 0 0 0 0 0 0
0.00150000 0.00179520 57699.73388374 0 -52480.32751187 0 -73718.97146000 0 98029.54422687 0 83026.70393894 0 3
0.00250000 0.00253879 80850.05653785 0 -41547.18012016 0 -13044.35673080 0 -69078.74739277 0 -11834.30714375 0 6
0.00350000 0.00331552 92262.78728561 0 522.45083225 0 -33068.40370113 0 -52866.07934173 0 -6805.08152596 0 7
0.00450000 0.00420575 92911.17865920 0 19442.09186645 0 -6633.20124685 0 -64778.35760003 0 8357.97110188 0 24
0.00550000 0.00557378 64282.24836054 0 8999.37502139 0 21067.17404330 0 -4298.75938678 0 12123.34373622 0 45
0.00650000 0.00659388 59740.73594615 0 4742.03016402 0 25521.39873771 0 18508.54581932 0 -16709.44276234 0 40
0.00750000 0.00754703 43909.27233423 0 7468.60129219 0 32203.84489901 0 21.76758313 0 -2612.91963305 0 57
0.00850000 0.00846663 53657.21442005 0 4557.28409645 0 23641.32994301 0 14093.36213817 0 -1079.09249732 0 75
0.00950000 0.00948925 52748.95630196 0 -12827.63474244 0 3738.38775217 0 31419.36453886 0 16281.43347211 0 112
0.01050000 0.01054430 71525.68726348 0 -12294.36999317 0 -1280.56741725 0 23247.48153938 0 11841.18368586 0 105
0.01150000 0.01145670 73384.90460791 0 -4139.31233946 0 -11135.11808814 0 8884.05984672 0 2205.53996914 0 144
0.01250000 0.01249090 75912.36656848 0 12626.99498964 0 5216.75557579 0 -32278.15591856 0 12347.49682655 0 169
0.01350000 0.01339930 63836.38224322 0 10893.87346332 0 10627.55164220 0 -22005.48930512 0 9673.52015430 0 180
0.01450000 0.01448870 55681.57968704 0 3738.92012962 0 42340.42252590 0 -2104.59898571 0 9733.60116817 0 267
0.01550000 0.01550050 55442.23165690 0 -1500.21748161 0 40303.30238242 0 10775.74112462 0 7780.49684157 0 238
0.01650000 0.01653350 59064.28384428 0 -1187.24608613 0 45889.16190145 0 25466.27548887 0 26235.00634936 0 315
0.01750000 0.01747870 61929.80548782 0 -5059.33821751 0 27172.76705133 0 13274.72089142 0 17134.34651743 0 297
0.01850000 0.01844180 68317.55854621 0 -828.11534718 0 40005.50374436 0 6525.13971499 0 39971.78650564 0 388
0.01950000 0.01947590 71693.60798528 0 1743.49179547 0 38756.41314405 0 7833.27984785 0 33385.61193384 0 399
0.02050000 0.02045430 70510.39909484 0 2203.96501917 0 41207.67858158 0 -1740.49717230 0 36531.29721230 0 462
0.02150000 0.02154770 66317.15026463 0 2537.53276739 0 50207.63034521 0 3027.94113165 0 35895.32797929 0 571
0.02250000 0.02255340 67266.11307552 0 2196.00153976 0 50551.56836258 0 4143.23862317 0 37815.76873087 0 510
0.02350000 0.02348930 68686.00810883 0 -2778.27828835 0 57929.76530844 0 12785.48819403 0 36608.60285503 0 555
0.02450000 0.02439640 71382.49991088 0 -2084.69028719 0 44776.82575952 0 11650.74783426 0 18536.27381169 0 592
0.02550000 0.02547300 72272.01390613 0 780.67940695 0 47159.10395203 0 -2640.22615993 0 25325.75002354 0 837
0.02650000 0.02652900 72341.88844690 0 3343.64096159 0 40753.71589049 0 2752.15851954 0 14480.88855954 0 723
0.02750000 0.02749970 69643.73296531 0 1980.99868692 0 48447.34647756 0 3268.58683184 0 18720.27676906 0 826
0.02850000 0.02848090 68411.94463224 0 -2055.96408710 0 32552.99577894 0 11006.20510601 0 5694.27596920 0 831
0.02950000 0.02946900 70501.74796122 0 -1074.87673336 0 32725.57480346 0 9943.41334084 0 11407.07423731 0 996
0.03050000 0.03053250 67591.75061792 0 1869.31033365 0 26489.43840735 0 -979.66989876 0 6899.86689508 0 1041
0.03150000 0.03150510 66940.25370918 0 2889.44535536 0 22098.32262358 0 3854.09111873 0 6583.30195178 0 1036
0.03250000 0.03246190 62354.37650700 0 2363.09042179 0 27473.78213650 0 -1934.33802136 0 7409.38539168 0 1059
0.03350000 0.03345080 58137.72525122 0 2376.07821341 0 20889.71489213 0 1701.67798298 0 7408.99719979 0 1302
0.03450000 0.03451200 60122.82768102 0 -1139.04374419 0 26982.66393564 0 10781.87455653 0 11115.93031742 0 1339
0.03550000 0.03553350 58462.58640984 0 -51.86753888 0 16976.62969683 0 422.63116883 0 4244.53452490 0 1365
0.03650000 0.03647120 58000.97079285 0 2663.51767352 0 24460.63666158 0 -3744.63209605 0 4711.45173403 0 1308
0.03750000 0.03744890 55889.98327770 0 1964.98299853 0 22844.64926622 0 -2675.88435812 0 2915.69821854 0 1579
0.03850000 0.03847530 52665.66141288 0 987.07438184 0 25913.47254983 0 -2004.98894592 0 4642.44230662 0 1662
0.03950000 0.03950240 53537.87314089 0 -344.54248760 0 26884.39593067 0 6271.81677669 0 552.42035552 0 1683
0.04050000 0.04050350 52411.11844292 0 23.54028914 0 17596.18395836 0 5018.25642401 0 -875.45923047 0 1822
0.04150000 0.04152450 52882.93796109 0 301.93232716 0 19602.69239826 0 1780.56966687 0 3821.70482365 0 1887
0.04250000 0.04250150 52069.17684100 0 570.36258482 0 10631.98812098 0 5222.06825913 0 -153.74062650 0 1920
0.04350000 0.04349210 50018.52543725 0 1582.18142706 0 15296.75700705 0 1715.99671824 0 2702.86924030 0 2005
0.04450000 0.04448520 47676.73011360 0 2682.00669884 0 8386.51984282 0 -184.30352881 0 1834.07360095 0 2151
0.04550000 0.04548030 42903.18985905 0 1802.37496007 0 11057.76808062 0 -528.34580342 0 4141.95204433 0 2274
0.04650000 0.04648670 40738.74277461 0 1623.40740611 0 10261.14285981 0 467.62704573 0 1379.61180600 0 2311
0.04750000 0.04749250 39135.28843180 0 1242.30278778 0 11049.68259805 0 -751.57610616 0 48.96486173 0 2568
0.04850000 0.04851840 37024.30091665 0 2024.80891487 0 12475.26741539 0 -2480.23564396 0 -3612.59139638 0 2493
0.04950000 0.04949480 35784.74874571 0 2117.15422066 0 13884.73672357 0 -2244.62534718 0 -2813.70357140 0 2644
0.05050000 0.05050630 33174.65736789 0 781.17518346 0 17881.11680795 0 -50.29303256 0 -2856.93705710 0 2829
0.05150000 0.05149060 32553.43942682 0 107.29457560 0 15390.03397338 0 942.78057771 0 -854.96269851 0 2784
0.05250000 0.05249300 32495.32155481 0 462.71697284 0 17964.18987310 0 2413.96574219 0 293.45199798 0 3055
0.05350000 0.05348950 33049.77049025 0 -929.94584460 0 14683.30290384 0 2759.72271585 0 2695.88178622 0 3009
0.05450000 0.05448610 34310.83958327 0 -1768.71317733 0 11425.26380030 0 6131.35785854 0 4994.78745127 0 3336
0.05550000 0.05550870 34903.66406015 0 433.96969947 0 12883.75619899 0 675.92859738 0 5330.87290119 0 3349
0.05650000 0.05647670 34472.99288265 0 786.34589947 0 8000.80128655 0 637.88579184 0 6171.80745381 0 3324
0.05750000 0.05747970 33173.43733623 0 1370.83866921 0 12723.93205097 0 -1903.42685547 0 8247.15895317 0 3639
0.05850000 0.05849280 31422.35916204 0 731.96465172 0 8816.30372457 0 209.41510782 0 3825.12091231 0 3846
0.05950000 0.05951020 31022.63242403 0 85.97308041 0 13215.05025184 0 2902.89897726 0 6701.71157040 0 3787
0.06050000 0.06049470 30620.24379874 0 367.73307130 0 6897.82611484 0 269.17447698 0 4084.62164730 0 3930
0.06150000 0.06148310 29938.46792234 0 124.57632412 0 10970.32508388 0 647.26561710 0 5108.54985837 0 4083
0.06250000 0.06249100 30656.17927686 0 33.29255679 0 7919.95755200 0 1760.05095252 0 3673.98117149 0 4303
0.06350000 0.06350600 30040.83967017 0 -479.54786421 0 6404.66713374 0 -560.33170630 0 2480.72365662 0 4470
0.06450000 0.06451750 30967.39826322 0 257.62632271 0 7984.45286225 0 -361.44103527 0 496.43753892 0 4479
0.06550000 0.06550280 30229.94457814 0 884.84571045 0 7427.88550819 0 -1459.94534549 0 1927.41711447 0 4636
0.06650000 0.06648880 29499.14561122 0 258.89515564 0 10045.74072388 0 -772.84125807 0 1378.97960777 0 4653
0.06750000 0.06749660 29550.83058900 0 -26.25075585 0 8810.15920146 0 971.37146520 0 459.63805657 0 5220
0.06850000 0.06852730 30331.76176612 0 -378.36398357 0 9377.93975563 0 1543.12932260 0 2048.30007000 0 5029
0.06950000 0.06949320 30190.79265291 0 410.85120855 0 9406.97650924 0 693.96842921 0 2630.80973372 0 5040
0.07050000 0.07048030 29891.21942334 0 83.77757797 0 9814.98837138 0 165.57937012 0 4136.59499620 0 5475
0.07150000 0.07148790 29209.44354693 0 425.46607877 0 8644.61199581 0 1005.71757479 0 3094.79886686 0 5509
0.07250000 0.07249820 28790.97268607 0 362.99602108 0 8957.98267438 0 -233.98876378 0 4289.91970282 0 5916
0.07350000 0.07351270 29158.53495294 0 314.73822316 0 9106.01688005 0 -113.59493002 0 4240.88552111 0 5721
0.07450000 0.07449140 27847.11182578 0 391.35842992 0 8051.52133020 0 482.16538669 0 1242.53570291 0 6028
0.07550000 0.07549160 27076.27363788 0 1131.27990632 0 9897.38487350 0 -1658.97687473 0 1594.28192293 0 6183
0.07650000 0.07648840 26258.51968689 0 949.08370494 0 9728.36612321 0 -1028.81831980 0 -1050.73008849 0 6330
0.07750000 0.07749960 24842.83930842 0 313.95851201 0 10074.34492081 0 1015.72294356 0 181.18912071 0 6583
0.07850000 0.07848650 24481.70993578 0 361.76157086 0 9350.42249600 0 401.64107861 0 -2949.92565232 0 6549
0.07950000 0.07947320 23038.96703676 0 768.72531488 0 9850.10310091 0 -373.49383899 0 -365.63905331 0 6828
0.08050000 0.08048110 23143.55702398 0 554.03634292 0 9918.97943396 0 168.12369070 0 -669.67759878 0 7147
0.08150000 0.08149960 22199.03069187 0 324.64266203 0 9587.75192830 0 264.51284690 0 -368.16451886 0 7386
0.08250000 0.08250610 22216.55478305 0 19.92655535 0 9483.25067065 0 870.58132206 0 -525.49980229 0 7227
0.08350000 0.08350160 22560.93644829 0 -485.46612690 0 8556.45916246 0 2432.25512596 0 -74.04937822 0 7798
0.08450000 0.08449610 22156.44049559 0 -469.23526929 0 6901.24220350 0 1212.86675108 0 2579.67931579 0 7371
0.08550000 0.08548940 22974.19444658 0 35.76999745 0 5069.13174441 0 584.69019304 0 -11.70797841 0 8256
0.08650000 0.08650700 22591.65906383 0 655.29786193 0 6573.97425515 0 -7.97633411 0 2161.69646760 0 8037
0.08750000 0.08749060 21848.32704436 0 668.16254127 0 5387.21618169 0 -642.36552629 0 370.22526325 0 8155
0.08850000 0.08849210 20973.34251712 0 521.10547006 0 6676.47909735 0 -380.38036318 0 1433.06028409 0 8718
0.08950000 0.08949900 19712.16251214 0 754.02171509 0 6862.50065256 0 -314.99332069 0 -489.58207009 0 8571
0.09050000 0.09049190 19456.95407036 0 568.54141028 0 7160.55438815 0 -796.06178800 0 -861.68063651 0 8932
0.09150000 0.09150830 18415.71250086 0 634.96215233 0 7686.79840975 0 -181.01942539 0 -757.59086227 0 9285
0.09250000 0.09250820 18142.53632002 0 410.26892071 0 7510.06018638 0 -46.42575401 0 -1087.42753183 0 9204
0.09350000 0.09350330 17459.76223589 0 128.59022830 0 7802.55723230 0 534.22413781 0 -637.34010495 0 9349
0.09450000 0.09448040 17221.07967757 0 146.35832581 0 7489.79656956 0 852.45276064 0 -720.89896452 0 9564
0.09550000 0.09549270 17542.83530103 0 -177.63328296 0 7201.65836404 0 1360.02475218 0 2018.20965268 0 10155
0.09650000 0.09649430 17467.85880966 0 -274.13556937 0 6627.12327093 0 1511.47504651 0 1523.49790400 0 9913
0.09750000 0.09749140 17900.85913852 0 -10.73673338 0 5919.56036161 0 420.76341127 0 3178.77031895 0 10476
0.09850000 0.09850240 17631.01031677 0 246.54621696 0 6242.02582169 0 -639.03262161 0 2554.02537725 0 10575
0.09950000 0.09950330 17480.05912631 0 470.07487290 0 7771.14696254 0 -709.56708860 0 3499.36136674 0 10882
0.10050000 0.10051200 17295.72343303 0 142.68270314 0 7568.06714642 0 -229.83954700 0 3480.96107100 0 10875
0.10150000 0.10150300 17062.36464924 0 66.04253223 0 8538.45814982 0 338.98912529 0 2602.60481989 0 11118
0.10250000 0.10250800 17230.50719497 0 -23.29861196 0 8069.72198439 0 -382.94464791 0 2719.06238784 0 11575
0.10350000 0.10349800 17166.06734070 0 102.89613962 0 8269.43007664 0 642.50194801 0 1733.55408301 0 11364
0.10450000 0.10450100 17082.10697981 0 115.10000545 0 8185.73590447 0 -37.98524222 0 2803.96550048 0 12093
0.10550000 0.10551000 16819.80017198 0 114.16834491 0 7978.55234548 0 443.93070345 0 2506.95433740 0 12067
0.10650000 0.10649700 17330.32796751 0 -140.44560872 0 7702.12644394 0 821.57819570 0 2499.12395236 0 12054
0.10750000 0.10749900 16780.53733478 0 252.28591138 0 7142.56446670 0 -319.72926179 0 1450.02981542 0 12807
0.10850000 0.10850100 16451.57243330 0 516.90190641 0 7474.12470827 0 -494.50656153 0 1677.31062328 0 12736
0.10950000 0.10950300 15988.73678465 0 463.71407145 0 7696.92467257 0 -599.99604483 0 951.22541507 0 12933
0.11050000 0.11050200 15543.97978703 0 -95.25929597 0 7658.70440788 0 1102.79327608 0 1410.83352540 0 13428
0.11150000 0.11150900 15739.96123710 0 -160.24561351 0 7150.42812534 0 1682.14638515 0 2300.62480058 0 13453
0.11250000 0.11250000 15962.78338379 0 -117.62325276 0 6495.12693605 0 426.05945781 0 1144.54497787 0 13668
0.11350000 0.11349100 15675.29955889 0 362.54682760 0 5656.34407564 0 459.70238551 0 1983.82694214 0 13791
0.11450000 0.11448600 15246.95753275 0 361.31126826 0 6275.63214844 0 -913.46099858 0 2121.04723079 0 14205
0.11550000 0.11549300 14921.43090232 0 334.70348679 0 6846.98406803 0 -383.34836748 0 2892.17378981 0 14776
0.11650000 0.11649800 14785.12009183 0 138.06543785 0 7222.13271361 0 305.10219125 0 1543.48424091 0 14553
0.11750000 0.11747300 14418.44512072 0 272.50738166 0 6993.74278605 0 -134.99761277 0 1704.82788291 0 14568
0.11850000 0.11849100 14254.84996573 0 87.28816363 0 7124.34163012 0 384.90002593 0 2135.96489068 0 16015
0.11950000 0.11950300 14065.52323383 0 -65.57847655 0 6909.08367974 0 538.01289068 0 1939.41778956 0 15270
0.12050000 0.12050700 14186.97184041 0 160.63824188 0 6691.56312520 0 358.00165509 0 1536.34151007 0 15999
0.12150000 0.12150000 14105.89519072 0 373.87870353 0 6518.69572956 0 -613.59939789 0 1208.15299237 0 15670
0.12250000 0.12250700 13272.83538794 0 348.13714453 0 6517.40915071 0 130.73526579 0 1615.34410593 0 16887
0.12350000 0.12352200 13284.48114473 0 -20.63295368 0 6553.08953130 0 583.13298899 0 1033.42227565 0 16407
0.12450000 0.12449800 13086.61419118 0 -214.50263986 0 5033.02989835 0 826.69123749 0 1304.74622660 0 16306
0.12550000 0.12549900 13398.83138527 0 -55.20521278 0 5130.52151952 0 1217.36977704 0 533.35569709 0 17523
0.12650000 0.12650100 13351.47197430 0 -131.33197218 0 3891.11353415 0 524.38957347 0 1684.93027559 0 17154
0.12750000 0.12750600 13345.26090401 0 -59.06594752 0 3295.87117633 0 837.82569011 0 1842.99092330 0 18007
0.12850000 0.12850300 13371.54704078 0 99.73248661 0 3159.99292252 0 -280.38545885 0 1587.53847518 0 17496
0.12950000 0.12949900 13132.97539442 0 238.49733534 0 3291.49015354 0 -269.47283017 0 1319.74152487 0 18405
0.13050000 0.13049000 12980.47143638 0 390.65192067 0 4078.63240095 0 -702.34782851 0 1006.43628436 0 18100
0.13150000 0.13148800 12576.19730762 0 149.87756260 0 4032.10482975 0 -243.36526168 0 1770.07739456 0 19059
0.13250000 0.13249300 12422.91696580 0 131.08242025 0 4686.90691518 0 252.26927459 0 271.79754505 0 18957
0.13350000 0.13349100 12359.03167137 0 154.91962073 0 3677.20870980 0 -212.24669040 0 522.53512534 0 19468
0.13450000 0.13450700 12093.39750446 0 288.54414333 0 4538.98362148 0 -61.73737322 0 564.39552086 0 19953
0.13550000 0.13551000 11810.01742244 0 89.05188577 0 4074.67284364 0 -81.68489093 0 -127.82715395 0 19956
0.13650000 0.13649900 11722.61879048 0 67.31735441 0 4201.35649518 0 103.70757159 0 -177.55231723 0 19723
0.13750000 0.13749600 11547.26696673 0 6.10841017 0 3768.85527019 0 206.78094854 0 -651.31723135 0 20946
0.13850000 0.13851100 11531.96111494 0 118.38743623 0 3696.40757172 0 150.38664854 0 -304.73285439 0 20955
0.13950000 0.13949800 11439.90418027 0 132.48767491 0 3250.97401108 0 279.29963067 0 -330.74282036 0 20506
0.14050000 0.14048300 11222.29489615 0 71.87428358 0 3509.62072392 0 288.17036999 0 -798.51294253 0 21447
0.14150000 0.14148400 11158.74233764 0 206.20087894 0 3282.43973683 0 -104.02777445 0 -99.78417158 0 21771
0.14250000 0.14249400 10687.28882896 0 267.68160187 0 3449.00733259 0 8.73196626 0 -274.24869958 0 22470
0.14350000 0.14350900 10583.63050228 0 131.88653203 0 3643.53583587 0 -91.75370135 0 -87.55401962 0 22519
0.14450000 0.14449900 10468.58151634 0 176.62065668 0 3823.72342149 0 -38.70472817 0 -212.52064296 0 22218
0.14550000 0.14550500 10230.97480412 0 141.73107844 0 3776.27528095 0 -16.20346236 0 -204.78342397 0 23559
0.14650000 0.14650700 10034.50534137 0 99.95220322 0 3854.96732329 0 289.62775327 0 -136.95964552 0 23044
0.14750000 0.14750500 10032.70856747 0 -27.98530814 0 3679.21621645 0 371.26007193 0 266.13992549 0 23649
0.14850000 0.14849900 9937.10244978 0 26.72845370 0 3616.24040018 0 388.66215994 0 292.17540121 0 23640
0.14950000 0.14949500 10065.99324951 0 40.19982151 0 2699.98552909 0 244.38454268 0 237.61558518 0 24457
0.15050000 0.15050000 9721.30103075 0 64.11100028 0 2935.32963713 0 189.88905559 0 418.75923198 0 24591
0.15150000 0.15149900 9920.36583358 0 -0.95184763 0 2707.39444865 0 29.26467771 0 688.41063042 0 25020
0.15250000 0.15250500 9906.87893809 0 -50.58162551 0 2667.84324033 0 326.36956140 0 296.75384731 0 25297
0.15350000 0.15350100 9934.46274490 0 60.70478278 0 2407.32211522 0 -105.02875497 0 38.50896854 0 25452
0.15450000 0.15450400 9704.76405610 0 126.69585186 0 2370.13333185 0 -274.77664055 0 36.72106759 0 26061
0.15550000 0.15549900 9689.89076100 0 81.60714164 0 2678.43533342 0 5.39516857 0 -188.41281728 0 26128
0.15650000 0.15649500 9633.40329494 0 105.38356236 0 2735.29990017 0 -146.17199370 0 -17.24437119 0 26331
0.15750000 0.15749700 9546.11557496 0 150.14264221 0 2560.43608909 0 101.84247591 0 -455.02079128 0 27345
0.15850000 0.15849900 9427.81686831 0 101.97789943 0 2774.13018069 0 -220.15804118 0 -460.22478089 0 26980
0.15950000 0.15949700 9114.87874641 0 113.68920520 0 2728.93355313 0 24.97260631 0 -707.82355244 0 27777
0.16050000 0.16050000 9272.26283111 0 -32.72978946 0 2526.69666797 0 296.74719259 0 -515.92033548 0 28224
0.16150000 0.16150500 9211.69380457 0 -77.01028415 0 2465.77272313 0 425.15663438 0 -464.71671565 0 28075
0.16250000 0.16249700 9128.98674893 0 23.00325338 0 1956.70896561 0 187.47339290 0 -836.96612235 0 28590
0.16350000 0.16349900 9092.18615746 0 187.17614882 0 1971.94827021 0 -77.57116598 0 -472.69794098 0 29163
0.16450000 0.16449100 8937.63032798 0 246.81684217 0 2136.60818011 0 -535.99651108 0 -1240.92747935 0 28996
0.16550000 0.16550500 8543.64882999 0 308.81996047 0 2451.34307591 0 -459.80997012 0 -951.05682887 0 30777
0.16650000 0.16650700 8243.92032366 0 115.95624585 0 2549.40034812 0 164.32384663 0 -931.40766436 0 29211
0.16750000 0.16749900 8299.85322987 0 -119.31022381 0 2150.16162278 0 567.86041079 0 -739.34584329 0 30922
0.16850000 0.16850800 8216.39197283 0 32.30477479 0 2119.42791603 0 584.48389678 0 -769.12792533 0 30867
0.16950000 0.16949900 8305.95338819 0 229.24727708 0 1889.99541596 0 -13.59780746 0 -190.75971455 0 30852
0.17050000 0.17049200 7976.85539234 0 173.84785745 0 2036.83177236 0 -173.13136612 0 -131.84882196 0 31257
0.17150000 0.17149500 7777.79058952 0 144.63364468 0 2114.50342459 0 -97.01580883 0 -155.56623752 0 32608
0.17250000 0.17250900 7522.60433013 0 99.50533889 0 2222.22112935 0 -79.57223974 0 372.10633025 0 32361
0.17350000 0.17350400 7571.48323508 0 19.82662366 0 2316.08592912 0 95.53557768 0 -293.79471596 0 32508
0.17450000 0.17449800 7818.43982633 0 -156.52340781 0 1813.79889293 0 552.43366496 0 390.63195652 0 32791
0.17550000 0.17549800 7702.95828371 0 -180.78429202 0 1648.97261508 0 616.26017603 0 184.59522729 0 33633
0.17650000 0.17650100 8008.21020612 0 80.54926328 0 1330.00088205 0 55.42426392 0 715.62510037 0 33984
0.17750000 0.17750300 7841.77570471 0 91.60873940 0 1103.76597406 0 83.17344047 0 753.24754954 0 34069
0.17850000 0.17849800 7793.41808602 0 38.71437751 0 1390.93591808 0 82.22880323 0 830.94249328 0 34536
