### header ###
fiducial parameters:
Omega_m = 0.31
Omega_nu = 0
Omega_de = 0.69
Omega_k = 0
H_0 = 100
w_de = -1
zeff = 0
beta = 0
fgrowth = 0
b_1 = 2
gamma = 0.55
Lx = 3500 Ly = 3500 Lz = 3500
nx = 700 ny = 700 nz = 700
xoffset = 1379.75464 yoffset = 22.6059522 zoffset = 368.141391
bins = 400 dk = 0.001
kx_ny = 0.628318531 ky_ny = 0.628318531 kz_ny = 0.628318531
############################
A(data) = 3.34510189 (not used)
A(ran) = 3.34442893 (used)
Ngal = 187808
weighted Ngal = 0
Nran = 9399747
weighted Nran = 0
SN(data) = 6647.87889
SN(ran) = 133.025941
SN(data+ran) = 6780.90483
############################
13 columns: k_central k_mean P_0(k) sigma^{lin}_{P_0(k)} P^img_1(k) sigma^{lin}_{P_1(k)} P_2(k) sigma^{lin}_{P_2(k)} P^img_3(k) sigma^{lin}_{P_3(k)} P_4(k) sigma^{lin}_{P_4(k)} N_modes
### header ###
0.00050000 0 0 0 0 0 0 0 0 0 0 0 0
0.00150000 0.00179520 16671.95451666 0 -27754.94397914 0 -45509.84296582 0 45366.21196535 0 37764.74922491 0 3
0.00250000 0.00253879 28921.84881006 0 -24059.57897993 0 -2740.29093880 0 -53676.73492668 0 -11686.46148843 0 6
0.00350000 0.00331552 38827.95136437 0 -4392.32472424 0 -42339.86796605 0 3583.02226532 0 -19012.41889667 0 7
0.00450000 0.00420575 52016.71547944 0 -1550.49387738 0 -11855.15859402 0 -31856.80134650 0 7394.93356206 0 24
0.00550000 0.00557378 44220.26949666 0 -106.69276725 0 -1358.81581172 0 -6546.77864023 0 7737.76245973 0 45
0.00650000 0.00659388 49506.88852203 0 -5880.15333886 0 -27124.74216854 0 14364.32007961 0 -23106.40151420 0 40
0.00750000 0.00754703 55081.32410820 0 -13583.94346234 0 -3864.06210479 0 -23041.85074796 0 -18773.40360244 0 57
0.00850000 0.00846663 66369.16797832 0 -3622.54020005 0 -24040.16938527 0 -10834.51337725 0 -17919.27052546 0 75
0.00950000 0.00948925 72409.54474829 0 -2521.52817019 0 -5568.60161658 0 -27308.41239001 0 -29493.60001274 0 112
0.01050000 0.01054430 88937.97917644 0 -2412.85662249 0 11905.73445210 0 -45112.33446720 0 -56649.39753274 0 105
0.01150000 0.01145670 84873.61005476 0 755.42586062 0 17034.96939278 0 -9816.69641571 0 -41263.91095011 0 144
0.01250000 0.01249090 94954.73169691 0 -1371.98106250 0 32946.40053470 0 -7343.34840505 0 -61803.69857852 0 169
0.01350000 0.01339930 91392.35014911 0 -4156.75879225 0 30894.86183518 0 -13336.94250630 0 -27508.83031886 0 180
0.01450000 0.01448870 100195.54407888 0 3212.97557034 0 42915.05743979 0 8292.39994552 0 -26892.38159248 0 267
0.01550000 0.01550050 93004.01197766 0 8511.69509158 0 42160.30148746 0 10477.82048340 0 -15692.38000219 0 238
0.01650000 0.01653350 89018.16853037 0 -2282.61269673 0 34478.87121703 0 23137.78960157 0 6790.23041325 0 315
0.01750000 0.01747870 89369.53764969 0 2234.31053402 0 39926.31259815 0 15619.51083824 0 18644.63480587 0 297
0.01850000 0.01844180 82797.00525015 0 7928.70850639 0 28239.51837381 0 5686.19048663 0 21306.30024951 0 388
0.01950000 0.01947590 74540.05277007 0 2137.28474312 0 22354.75109702 0 5861.35376003 0 19251.43419091 0 399
0.02050000 0.02045430 70161.13730294 0 1851.78624248 0 31995.66313229 0 4905.25930950 0 33273.70175664 0 462
0.02150000 0.02154770 72919.18524806 0 -1758.46491135 0 13005.98118936 0 11487.04176730 0 10720.58460220 0 571
0.02250000 0.02255340 69577.62943150 0 -4354.07118596 0 13271.72626824 0 6133.57609793 0 12226.82460375 0 510
0.02350000 0.02348930 72134.37215200 0 3607.33416903 0 -1889.57395048 0 -4890.97384783 0 7617.98862389 0 555
0.02450000 0.02439640 72081.57805453 0 484.62874153 0 3084.50623609 0 335.77378729 0 -250.30169625 0 592
0.02550000 0.02547300 71319.28008828 0 -1141.47271632 0 1528.68858418 0 3014.53187454 0 8144.75393175 0 837
0.02650000 0.02652900 73004.92020047 0 1766.27311400 0 -3387.60646629 0 -3059.85050527 0 -7988.54551393 0 723
0.02750000 0.02749970 69783.03839898 0 131.03140075 0 2326.21219194 0 -3779.71355200 0 1265.02865032 0 826
0.02850000 0.02848090 68500.45238389 0 2277.72147888 0 3305.16559937 0 -2049.00990661 0 -5194.46226993 0 831
0.02950000 0.02946900 66363.40055590 0 2077.89138346 0 13975.24089067 0 -3675.24556794 0 1011.69462083 0 996
0.03050000 0.03053250 66420.74204413 0 45.29567195 0 11454.87729615 0 3737.79991873 0 4985.39320745 0 1041
0.03150000 0.03150510 65983.97070830 0 284.38272623 0 13302.00523591 0 8360.51098598 0 3970.09394762 0 1036
0.03250000 0.03246190 62381.32811558 0 2616.45772487 0 10504.79427437 0 -3859.54798763 0 16033.10157244 0 1059
0.03350000 0.03345080 62310.23354315 0 3160.81367109 0 20213.37370223 0 -1088.38026565 0 8589.08946389 0 1302
0.03450000 0.03451200 56118.90558271 0 3946.08150622 0 22035.10280097 0 -4842.88241787 0 16921.50644799 0 1339
0.03550000 0.03553350 53165.09801146 0 1752.86385689 0 23088.54468711 0 683.50721225 0 10809.11453624 0 1365
0.03650000 0.03647120 52122.41458636 0 980.86442067 0 26856.66793830 0 1271.65009490 0 12951.74523629 0 1308
0.03750000 0.03744890 50841.82498671 0 1532.48177353 0 22257.25947585 0 5065.03909274 0 10244.38406123 0 1579
0.03850000 0.03847530 52613.08913934 0 -791.23711733 0 26038.91398731 0 4427.81655447 0 23061.81490247 0 1662
0.03950000 0.03950240 51255.63754485 0 -370.89738979 0 16837.87882301 0 6952.53898939 0 16900.54408576 0 1683
0.04050000 0.04050350 51150.04934990 0 688.71342010 0 19871.76483622 0 3759.31684081 0 18550.02689590 0 1822
0.04150000 0.04152450 50369.45090869 0 1273.39141282 0 16175.17980535 0 187.11181988 0 17892.76256475 0 1887
0.04250000 0.04250150 46596.44753084 0 1542.31966523 0 19396.83978290 0 -1094.71112087 0 14649.69657709 0 1920
0.04350000 0.04349210 46864.96540896 0 544.96041645 0 18512.20591431 0 -266.40056862 0 18197.99230477 0 2005
0.04450000 0.04448520 44790.91157964 0 407.97637030 0 19692.86382945 0 -35.92250141 0 9561.82070984 0 2151
0.04550000 0.04548030 44924.22776696 0 1430.20984647 0 19015.52443182 0 -235.87426726 0 9920.06637126 0 2274
0.04650000 0.04648670 42667.50192390 0 877.41793586 0 17446.67462349 0 1823.52587265 0 5766.36874937 0 2311
0.04750000 0.04749250 42165.40343806 0 1395.11729933 0 19495.21869983 0 -585.73054731 0 5639.38563551 0 2568
0.04850000 0.04851840 40923.63302773 0 112.82631008 0 17617.36814453 0 3164.85086678 0 4462.90910162 0 2493
0.04950000 0.04949480 39132.51563257 0 276.09205651 0 18434.01297582 0 1728.60740917 0 3813.78570902 0 2644
0.05050000 0.05050630 39591.80209819 0 835.25475066 0 13639.73218299 0 335.83589799 0 2413.87701261 0 2829
0.05150000 0.05149060 38901.26417620 0 189.26794856 0 14822.83016145 0 965.28683456 0 1077.82920999 0 2784
0.05250000 0.05249300 37715.28248652 0 918.00284373 0 14164.90035848 0 -2048.84353865 0 3750.19987692 0 3055
0.05350000 0.05348950 37071.66032762 0 163.71383079 0 12523.18138621 0 1640.73185575 0 -937.81061236 0 3009
0.05450000 0.05448610 37712.73151122 0 -503.54477793 0 13473.47514073 0 782.25879340 0 -905.15701942 0 3336
0.05550000 0.05550870 37727.70462710 0 351.62643509 0 11761.10524390 0 -664.55568403 0 -4766.70807723 0 3349
0.05650000 0.05647670 37194.10714193 0 969.32070289 0 13306.33080272 0 100.94442170 0 -1332.72931650 0 3324
0.05750000 0.05747970 34921.40997527 0 736.91687116 0 12028.40309035 0 709.49832318 0 -2862.98175944 0 3639
0.05850000 0.05849280 35640.89592130 0 -28.30462370 0 11160.18419324 0 2568.16665336 0 -441.32759953 0 3846
0.05950000 0.05951020 34778.99900645 0 -430.46931772 0 7072.06881890 0 5004.89153169 0 -71.45614546 0 3787
0.06050000 0.06049470 33909.00551783 0 533.87698334 0 7232.76917148 0 1407.86108462 0 32.43820189 0 3930
0.06150000 0.06148310 34330.02735399 0 814.68834416 0 3415.13481712 0 -757.70066512 0 -150.49977875 0 4083
0.06250000 0.06249100 32822.62277675 0 852.36181283 0 6509.94477517 0 -326.33739693 0 932.24837709 0 4303
0.06350000 0.06350600 30156.29903040 0 983.68047558 0 4248.06152553 0 -1493.88440815 0 -1540.61162090 0 4470
0.06450000 0.06451750 30392.65243737 0 270.29579699 0 4071.84458842 0 1207.25460542 0 -1057.39035226 0 4479
0.06550000 0.06550280 29607.06295752 0 21.29210352 0 3446.87782278 0 432.49678852 0 -1316.24779783 0 4636
0.06650000 0.06648880 28997.04712537 0 645.44333344 0 4946.42983257 0 -478.69716940 0 -3119.22168254 0 4653
0.06750000 0.06749660 29303.16416114 0 515.74620369 0 5401.85656166 0 -302.59225338 0 19.35713330 0 5220
0.06850000 0.06852730 28497.16687892 0 285.98651331 0 6040.26585800 0 -193.89186857 0 -1034.88187717 0 5029
0.06950000 0.06949320 27822.60028052 0 300.00134977 0 7183.72389858 0 -1008.47040988 0 -534.13318999 0 5040
0.07050000 0.07048030 28259.81526422 0 402.02594314 0 7469.03384887 0 -311.87447611 0 -988.45745410 0 5475
0.07150000 0.07148790 27809.51266813 0 136.65020112 0 9606.57368952 0 163.23580021 0 57.39905153 0 5509
0.07250000 0.07249820 27571.27375768 0 1070.06426301 0 9975.35598805 0 -782.94533849 0 1336.54468825 0 5916
0.07350000 0.07351270 25528.94075163 0 614.22494139 0 10811.63223795 0 -411.21167245 0 -1202.60739390 0 5721
0.07450000 0.07449140 25855.90923767 0 241.75038340 0 11350.73095681 0 166.23153250 0 1127.07634268 0 6028
0.07550000 0.07549160 25295.58196784 0 64.31186186 0 10238.57227402 0 1196.61814755 0 -740.93964829 0 6183
0.07650000 0.07648840 25925.89469041 0 -92.65042462 0 9567.85432098 0 751.59717944 0 -1348.64518412 0 6330
0.07750000 0.07749960 25223.26736374 0 85.99659375 0 8840.52689870 0 -138.59559706 0 -2971.74203672 0 6583
0.07850000 0.07848650 24751.89149344 0 545.03472747 0 8543.33827647 0 -1201.04353513 0 -3279.62257280 0 6549
0.07950000 0.07947320 24560.67925805 0 818.05119507 0 8847.04852251 0 -1130.03769227 0 -4381.69935756 0 6828
0.08050000 0.08048110 23043.84716341 0 625.74647678 0 8795.24154156 0 343.73283022 0 -5599.30204973 0 7147
0.08150000 0.08149960 22744.60666975 0 293.01389570 0 9426.53028946 0 463.49224751 0 -3940.40281339 0 7386
0.08250000 0.08250610 22341.77439659 0 30.56889156 0 7963.12449052 0 704.14792977 0 -5885.73221092 0 7227
0.08350000 0.08350160 22390.13201529 0 94.42801075 0 8179.15882468 0 1839.59701703 0 -3862.99734988 0 7798
0.08450000 0.08449610 21745.40073669 0 -187.73847250 0 5921.13531158 0 1699.41537880 0 -2216.79753404 0 7371
0.08550000 0.08548940 22122.94508080 0 -174.39465345 0 5627.20750126 0 1529.76443028 0 -1126.65487720 0 8256
0.08650000 0.08650700 22585.44799354 0 -327.45760782 0 3950.40707303 0 1495.79209403 0 513.71429641 0 8037
0.08750000 0.08749060 22031.10997007 0 369.97238396 0 4960.87057100 0 356.94133667 0 1251.37538688 0 8155
0.08850000 0.08849210 21725.76931809 0 599.34277333 0 4311.43662489 0 -632.06291345 0 2395.99800313 0 8718
0.08950000 0.08949900 21337.79924884 0 359.86386706 0 6139.86480660 0 -851.06303367 0 1706.58029203 0 8571
0.09050000 0.09049190 20788.56317596 0 783.72948611 0 7529.97997610 0 -1727.46501588 0 1092.23667483 0 8932
0.09150000 0.09150830 20337.70602002 0 612.62226344 0 7999.08215103 0 -367.33267909 0 1962.16583450 0 9285
0.09250000 0.09250820 19651.05001695 0 241.29453521 0 9288.93290012 0 -268.35594664 0 822.33905181 0 9204
0.09350000 0.09350330 19283.04410221 0 400.48204853 0 9600.09643050 0 279.64900337 0 1311.12366484 0 9349
0.09450000 0.09448040 18962.17577450 0 291.07737271 0 8789.76249027 0 927.05880604 0 1831.48935206 0 9564
0.09550000 0.09549270 18434.45662370 0 125.38930886 0 9481.89754463 0 343.82710539 0 3106.67753879 0 10155
0.09650000 0.09649430 18353.93453386 0 356.67847530 0 8370.11596254 0 577.94341794 0 2373.23886700 0 9913
0.09750000 0.09749140 18097.50606041 0 16.50225920 0 8276.97209057 0 716.78856693 0 3281.48589389 0 10476
0.09850000 0.09850240 17924.48338802 0 -83.04012429 0 7131.42890497 0 753.31964232 0 2558.66149758 0 10575
0.09950000 0.09950330 17847.84321711 0 110.42650779 0 7191.87592833 0 532.49391108 0 3010.78304997 0 10882
0.10050000 0.10051200 18109.70637706 0 -91.27134519 0 6296.80524341 0 706.23751128 0 2650.89589140 0 10875
0.10150000 0.10150300 17694.34105135 0 -93.73935834 0 5612.56712128 0 990.65683846 0 2692.59879192 0 11118
0.10250000 0.10250800 18040.16457219 0 47.36883849 0 4826.10143688 0 321.14338940 0 2598.34580026 0 11575
0.10350000 0.10349800 17841.41032288 0 285.88114694 0 4818.07141029 0 -423.07259847 0 1392.71050959 0 11364
0.10450000 0.10450100 17229.50898725 0 294.23503648 0 4997.90407761 0 -351.36579196 0 1826.62031660 0 12093
0.10550000 0.10551000 16957.44192611 0 462.70699076 0 5309.05651680 0 -226.05079412 0 1201.65355096 0 12067
0.10650000 0.10649700 16554.94238886 0 148.08966165 0 6140.58573440 0 24.02453080 0 1949.06713091 0 12054
0.10750000 0.10749900 16286.20268680 0 212.94321757 0 5212.34127941 0 53.14768483 0 425.24092747 0 12807
0.10850000 0.10850100 16316.92530235 0 -76.69207771 0 5101.09657402 0 777.93100835 0 1284.81534568 0 12736
0.10950000 0.10950300 16024.45043882 0 200.08519295 0 4858.35463761 0 539.15750221 0 1045.69801243 0 12933
0.11050000 0.11050200 15851.20594249 0 310.96167060 0 4332.80936141 0 -294.20287201 0 763.48361521 0 13428
0.11150000 0.11150900 15511.26075603 0 109.02291682 0 5124.28826684 0 438.96184722 0 1267.29125450 0 13453
0.11250000 0.11250000 15492.18389728 0 44.21383660 0 4038.13844089 0 210.66952219 0 275.70164638 0 13668
0.11350000 0.11349100 15361.08594935 0 71.57526491 0 4352.13022650 0 380.72308116 0 1706.86866315 0 13791
0.11450000 0.11448600 14918.54719112 0 232.24744586 0 3881.20909527 0 -116.51080570 0 431.68602202 0 14205
0.11550000 0.11549300 14977.66327085 0 210.04730604 0 4322.77182818 0 327.37553296 0 2381.06925204 0 14776
0.11650000 0.11649800 14686.40843899 0 301.59737301 0 4118.98217545 0 -265.08626178 0 485.47832722 0 14553
0.11750000 0.11747300 14127.30120083 0 514.34649464 0 4905.27040070 0 -491.41544495 0 1169.02324954 0 14568
0.11850000 0.11849100 13787.46692634 0 209.84544626 0 4907.20026897 0 -30.55724580 0 1316.58053374 0 16015
0.11950000 0.11950300 13532.14757259 0 -0.97432061 0 4859.63012526 0 100.66581083 0 1398.26719926 0 15270
0.12050000 0.12050700 13407.48251889 0 98.11295003 0 4938.02270529 0 409.04888905 0 1282.84111262 0 15999
0.12150000 0.12150000 13475.13882027 0 5.18039863 0 4309.17402072 0 564.72382029 0 823.87185523 0 15670
0.12250000 0.12250700 13138.41008093 0 88.75575081 0 4207.30137675 0 453.04433998 0 1639.95547196 0 16887
0.12350000 0.12352200 13121.44054959 0 296.66622685 0 4141.27548132 0 -296.49431330 0 1009.77362552 0 16407
0.12450000 0.12449800 12623.44580662 0 125.80411962 0 4010.64336366 0 525.99446967 0 1202.64066749 0 16306
0.12550000 0.12549900 12480.14754205 0 182.56553825 0 3550.80233819 0 -144.30645437 0 488.96207218 0 17523
0.12650000 0.12650100 12361.91538258 0 255.57223304 0 3838.01997436 0 -141.67894982 0 1139.35429770 0 17154
0.12750000 0.12750600 11849.16934766 0 100.19166216 0 3449.24024773 0 308.52049815 0 163.74488615 0 18007
0.12850000 0.12850300 12082.52813145 0 53.40322601 0 3959.74586086 0 -90.23942023 0 909.76541176 0 17496
0.12950000 0.12949900 11789.94235596 0 -9.85196642 0 2844.00472146 0 48.10751220 0 -356.74502248 0 18405
0.13050000 0.13049000 12091.62291295 0 -73.42305833 0 3706.51165214 0 357.36058391 0 702.39773889 0 18100
0.13150000 0.13148800 11897.97061424 0 -38.52294345 0 3094.19994222 0 98.94889354 0 253.32626566 0 19059
0.13250000 0.13249300 12356.48069608 0 -144.69353715 0 2588.29717582 0 453.78855930 0 143.42914070 0 18957
0.13350000 0.13349100 12233.47932192 0 -159.02780008 0 2302.98722553 0 408.11168291 0 286.71853231 0 19468
0.13450000 0.13450700 12592.05771926 0 74.09618307 0 2073.33290152 0 -244.09173508 0 -182.77072539 0 19953
0.13550000 0.13551000 12289.71169045 0 320.69419592 0 2539.59573002 0 -136.79882316 0 194.76696401 0 19956
0.13650000 0.13649900 11971.61616197 0 236.66728784 0 2688.73905539 0 -183.18553616 0 162.24535632 0 19723
0.13750000 0.13749600 11660.50808757 0 222.12340128 0 2268.31614387 0 -6.17738633 0 -55.58009523 0 20946
0.13850000 0.13851100 11279.85820831 0 293.58065586 0 3165.32778825 0 13.68476244 0 -25.38131692 0 20955
0.13950000 0.13949800 10961.49649111 0 262.94011517 0 3213.94050447 0 -205.14056051 0 165.78455726 0 20506
0.14050000 0.14048300 10852.41456912 0 48.99647164 0 3020.90931279 0 304.86705787 0 611.10720593 0 21447
0.14150000 0.14148400 10829.53342982 0 -121.63604781 0 2695.47141193 0 484.17511158 0 462.79017474 0 21771
0.14250000 0.14249400 10829.56670341 0 4.34579715 0 2990.63034512 0 -180.30293407 0 361.43770791 0 22470
0.14350000 0.14350900 11055.33910849 0 107.81697097 0 2572.22603144 0 -291.50327467 0 -235.70679018 0 22519
0.14450000 0.14449900 10768.40984344 0 306.82687238 0 3475.91457639 0 -831.81647960 0 -282.13343149 0 22218
0.14550000 0.14550500 10348.18657346 0 259.51182619 0 3555.07244901 0 -421.03625471 0 -688.25979014 0 23559
0.14650000 0.14650700 10356.74897751 0 54.46997733 0 4110.03157951 0 247.88159707 0 -654.49818663 0 23044
0.14750000 0.14750500 10201.69404417 0 19.06377114 0 3858.50541512 0 377.54212588 0 -632.82266044 0 23649
0.14850000 0.14849900 10115.43780551 0 131.38520993 0 3668.82376491 0 372.77512943 0 -276.42811978 0 23640
0.14950000 0.14949500 10192.69908345 0 15.26891810 0 3662.04704358 0 284.53245739 0 218.81489723 0 24457
0.15050000 0.15050000 10211.24356474 0 -122.11186016 0 2768.71767658 0 465.55853750 0 331.85970389 0 24591
0.15150000 0.15149900 10090.83753067 0 68.72316362 0 3403.58888109 0 225.80235131 0 554.13727281 0 25020
0.15250000 0.15250500 10033.29640091 0 107.69563328 0 2310.37396269 0 -98.40098841 0 327.31120402 0 25297
0.15350000 0.15350100 9924.41412047 0 125.14752077 0 3065.98393718 0 311.11583824 0 680.43605982 0 25452
0.15450000 0.15450400 9888.85574305 0 78.70634999 0 2291.23055676 0 20.42954113 0 416.86152818 0 26061
0.15550000 0.15549900 9577.10437923 0 169.86833598 0 2775.30584757 0 89.14538456 0 467.26658183 0 26128
0.15650000 0.15649500 9466.00385940 0 163.24467316 0 2169.43812307 0 86.28407757 0 557.87833354 0 26331
0.15750000 0.15749700 9250.64608826 0 44.11856322 0 2372.71758074 0 -57.84059208 0 34.15378823 0 27345
0.15850000 0.15849900 9130.53951650 0 129.12593311 0 2275.09286520 0 178.49285073 0 256.33752563 0 26980
0.15950000 0.15949700 8874.00013109 0 145.31242594 0 2283.10070940 0 -243.15231070 0 -154.73217950 0 27777
0.16050000 0.16050000 8727.03068033 0 129.67162000 0 2222.03257900 0 -76.27027949 0 27.47278393 0 28224
0.16150000 0.16150500 8810.84685567 0 -29.44036227 0 2279.09678730 0 426.24689904 0 14.20294316 0 28075
0.16250000 0.16249700 8631.84602812 0 4.62257797 0 1833.46358512 0 204.14235279 0 -206.85193220 0 28590
0.16350000 0.16349900 8766.98117174 0 101.54789372 0 1925.66470535 0 140.21823918 0 399.97074435 0 29163
0.16450000 0.16449100 8693.15816485 0 40.33269405 0 1633.02347387 0 -65.58235847 0 -249.27797877 0 28996
0.16550000 0.16550500 8586.54957978 0 -15.09977735 0 1652.18906220 0 195.00320650 0 373.31194336 0 30777
0.16650000 0.16650700 8559.60906240 0 61.25668075 0 2026.70550955 0 -119.11280051 0 -316.70358326 0 29211
0.16750000 0.16749900 8685.93779564 0 65.98119791 0 1554.35361391 0 -95.94107184 0 203.22621992 0 30922
0.16850000 0.16850800 8511.97237150 0 15.40533983 0 1901.76317592 0 7.97296238 0 -294.57997271 0 30867
0.16950000 0.16949900 8617.03928019 0 2.30242157 0 1490.32413393 0 -94.00987263 0 -162.90750078 0 30852
0.17050000 0.17049200 8549.41625240 0 67.10207427 0 1865.25095557 0 113.24112084 0 -584.40847664 0 31257
0.17150000 0.17149500 8537.00520302 0 81.95884350 0 1650.30355871 0 -4.69436020 0 -359.03424553 0 32608
0.17250000 0.17250900 8409.31225255 0 99.85182789 0 1537.33971780 0 61.81312610 0 -81.33263452 0 32361
0.17350000 0.17350400 8185.71372208 0 165.58935220 0 1689.33348077 0 -21.73530775 0 -518.40920008 0 32508
0.17450000 0.17449800 7974.69260894 0 251.99532202 0 1969.39729491 0 -205.99791004 0 -224.11759849 0 32791
0.17550000 0.17549800 7777.80168071 0 185.66552779 0 1834.61706960 0 24.06102084 0 -405.18915251 0 33633
0.17650000 0.17650100 7474.55726495 0 123.73561139 0 2040.38095538 0 93.38876560 0 46.05220250 0 33984
0.17750000 0.17750300 7472.98231499 0 47.83433602 0 1988.74034239 0 199.97649922 0 -23.48217127 0 34069
0.17850000 0.17849800 7421.16424284 0 69.68155395 0 1885.45911641 0 84.70535660 0 -87.60348636 0 34536
