### header ###
fiducial parameters:
Omega_m = 0.31
Omega_nu = 0
Omega_de = 0.69
Omega_k = 0
H_0 = 100
w_de = -1
zeff = 0
beta = 0
fgrowth = 0
b_1 = 2
gamma = 0.55
Lx = 3500 Ly = 3500 Lz = 3500
nx = 700 ny = 700 nz = 700
xoffset = 1379.75464 yoffset = 22.6059522 zoffset = 368.141391
bins = 400 dk = 0.001
kx_ny = 0.628318531 ky_ny = 0.628318531 kz_ny = 0.628318531
############################
A(data) = 3.33040124 (not used)
A(ran) = 3.34237538 (used)
Ngal = 187527
weighted Ngal = 0
Nran = 9399747
weighted Nran = 0
SN(data) = 6595.06248
SN(ran) = 132.94426
SN(data+ran) = 6728.00674
############################
13 columns: k_central k_mean P_0(k) sigma^{lin}_{P_0(k)} P^img_1(k) sigma^{lin}_{P_1(k)} P_2(k) sigma^{lin}_{P_2(k)} P^img_3(k) sigma^{lin}_{P_3(k)} P_4(k) sigma^{lin}_{P_4(k)} N_modes
### header ###
0.00050000 0 0 0 0 0 0 0 0 0 0 0 0
0.00150000 0.00179520 19438.98633130 0 5590.46236577 0 27044.88555052 0 -3817.21288888 0 8920.00641603 0 3
0.00250000 0.00253879 11905.62354013 0 3048.53748439 0 21353.88148441 0 1847.42740207 0 -14376.85313216 0 6
0.00350000 0.00331552 19860.22999140 0 -3888.96184194 0 3859.63671721 0 58748.85020307 0 7687.94080304 0 7
0.00450000 0.00420575 24677.91320980 0 -6343.62118573 0 14055.65206854 0 28115.40787996 0 2880.98277209 0 24
0.00550000 0.00557378 47710.22552838 0 -12308.23398935 0 -6688.36886047 0 27547.76042015 0 26278.15110548 0 45
0.00650000 0.00659388 59433.50979068 0 -12884.75440672 0 5400.85835394 0 5317.40818810 0 -38575.73754577 0 40
0.00750000 0.00754703 74168.60858428 0 -668.51524134 0 -12966.05288035 0 -30910.05677500 0 16316.70347841 0 57
0.00850000 0.00846663 69668.90998238 0 4757.81293727 0 16829.78224923 0 -17832.20462941 0 -9352.97347130 0 75
0.00950000 0.00948925 71007.72836600 0 5410.05295621 0 31726.25795842 0 -10330.56266151 0 35180.83307188 0 112
0.01050000 0.01054430 66980.29293016 0 -4153.68653070 0 33905.34542284 0 5191.47873795 0 -30726.49746551 0 105
0.01150000 0.01145670 79897.10089606 0 -488.79792247 0 44921.78770363 0 20310.75441143 0 2254.59633324 0 144
0.01250000 0.01249090 84290.43491922 0 -6707.27935127 0 28867.16920911 0 -5475.50210940 0 -11738.25737818 0 169
0.01350000 0.01339930 87644.08014046 0 5109.92516679 0 23432.59361645 0 6684.65330950 0 16625.70422539 0 180
0.01450000 0.01448870 83863.31292475 0 3120.99627405 0 32838.37227642 0 -4412.28887874 0 -5853.65646935 0 267
0.01550000 0.01550050 80656.29332717 0 1399.54268691 0 45382.84876077 0 -6079.59524238 0 -39754.50995742 0 238
0.01650000 0.01653350 77439.73530022 0 5986.18518168 0 38142.07174509 0 8153.19433262 0 -18319.88455923 0 315
0.01750000 0.01747870 72528.99693942 0 5191.54528513 0 50923.67802019 0 -9076.35901941 0 -19162.03914351 0 297
0.01850000 0.01844180 58854.32748605 0 4653.47804758 0 39648.47811460 0 -1606.67078992 0 -5063.61941953 0 388
0.01950000 0.01947590 61362.49076392 0 2562.11085983 0 44445.30988273 0 9278.26316866 0 -16249.93447278 0 399
0.02050000 0.02045430 54997.36374730 0 2201.75787098 0 38936.53418249 0 9973.83649407 0 -15515.03176299 0 462
0.02150000 0.02154770 51393.94477080 0 2492.21413666 0 34439.83020377 0 9056.73869201 0 -5345.74619630 0 571
0.02250000 0.02255340 52424.09514335 0 727.04903323 0 35678.27325501 0 1595.89014649 0 -565.18854145 0 510
0.02350000 0.02348930 47608.07560449 0 -1021.88077611 0 25428.45450728 0 6080.46035574 0 -9933.00979810 0 555
0.02450000 0.02439640 53138.36822681 0 -2558.52840321 0 22650.10967175 0 6954.67959040 0 -6450.93960740 0 592
0.02550000 0.02547300 52801.19583959 0 -466.05653224 0 14336.81391118 0 1208.46354589 0 -2525.67627785 0 837
0.02650000 0.02652900 51929.31684749 0 2083.65880587 0 14507.72925615 0 3398.18746818 0 -12870.77949856 0 723
0.02750000 0.02749970 50640.51976210 0 3884.91355505 0 22874.92823389 0 -7122.62249459 0 5268.78438068 0 826
0.02850000 0.02848090 44719.26244736 0 3529.55160483 0 19179.78505862 0 2331.93524956 0 -8771.56183608 0 831
0.02950000 0.02946900 42998.35232887 0 313.40395217 0 22904.76355368 0 6501.82601900 0 7936.28379391 0 996
0.03050000 0.03053250 43555.13041567 0 -3086.59138111 0 15979.97473906 0 9878.62965946 0 9754.81862793 0 1041
0.03150000 0.03150510 47836.11061375 0 -1199.32439960 0 11566.23291351 0 6637.34935451 0 5640.48366400 0 1036
0.03250000 0.03246190 47245.28255231 0 -90.71345798 0 13216.60301941 0 -1037.23099268 0 17247.36581433 0 1059
0.03350000 0.03345080 45583.26668962 0 3213.04211752 0 11457.65009539 0 -10150.99618292 0 -2753.97747583 0 1302
0.03450000 0.03451200 43832.96489922 0 3475.68166126 0 25886.07729337 0 -7258.74475473 0 7153.07892141 0 1339
0.03550000 0.03553350 42123.92236147 0 467.04475789 0 31347.38267067 0 -48.23284273 0 -1830.08077005 0 1365
0.03650000 0.03647120 41080.57346455 0 -889.42304743 0 26590.14647564 0 1164.89732427 0 -2827.94466828 0 1308
0.03750000 0.03744890 45238.10864059 0 -1907.97424621 0 27220.23737427 0 5530.73627020 0 -1851.39805058 0 1579
0.03850000 0.03847530 45697.28419425 0 -1402.50403650 0 20860.98869203 0 2636.01150509 0 -7218.67226016 0 1662
0.03950000 0.03950240 48680.81617332 0 -347.85210077 0 23259.79276800 0 3432.76982026 0 3702.06408217 0 1683
0.04050000 0.04050350 46967.66989270 0 574.78242681 0 19581.50821209 0 148.83831745 0 -7877.66681804 0 1822
0.04150000 0.04152450 47846.42542691 0 1603.88689949 0 22713.21858239 0 -1670.86663786 0 4467.26794202 0 1887
0.04250000 0.04250150 45084.71738680 0 1669.12531993 0 21899.79019820 0 -989.99802136 0 -3620.90979410 0 1920
0.04350000 0.04349210 42588.53260163 0 1613.66933519 0 23837.86595294 0 2864.14633512 0 4707.94691579 0 2005
0.04450000 0.04448520 41515.34838492 0 361.48983653 0 20774.92100372 0 4941.22806121 0 2335.75062131 0 2151
0.04550000 0.04548030 41217.54974686 0 262.74491010 0 18685.22858670 0 5483.07739691 0 7624.27733256 0 2274
0.04650000 0.04648670 40033.56447264 0 520.80046214 0 19335.50546378 0 2044.37378628 0 9704.26495224 0 2311
0.04750000 0.04749250 39016.05806461 0 810.33283111 0 14512.27664690 0 1963.13076864 0 6875.08916110 0 2568
0.04850000 0.04851840 38114.89831257 0 438.09562474 0 14926.08920504 0 1556.58294450 0 11868.35711838 0 2493
0.04950000 0.04949480 37518.96830054 0 26.42111663 0 11663.50271075 0 3621.50871873 0 10808.46015562 0 2644
0.05050000 0.05050630 37987.46045963 0 -1187.88937555 0 10537.76840290 0 3102.45179275 0 12899.39478669 0 2829
0.05150000 0.05149060 38344.48608940 0 -361.85251868 0 8650.77870131 0 4458.66117319 0 11831.86708042 0 2784
0.05250000 0.05249300 37720.93899697 0 702.80589494 0 7325.79104029 0 -891.23756725 0 9311.48130352 0 3055
0.05350000 0.05348950 36654.29858646 0 2110.73241763 0 8592.31700220 0 -3100.20027977 0 6438.69492597 0 3009
0.05450000 0.05448610 36090.75486952 0 1186.32551678 0 11188.24492152 0 -3583.32172764 0 8246.68203170 0 3336
0.05550000 0.05550870 33445.17166146 0 382.13277229 0 11458.31556721 0 -827.54525966 0 2256.19346560 0 3349
0.05650000 0.05647670 33716.35142684 0 92.55714765 0 11766.31810646 0 570.42358641 0 1847.74904679 0 3324
0.05750000 0.05747970 34540.20553615 0 -428.87329447 0 10144.09745842 0 1172.28406144 0 -1280.23468134 0 3639
0.05850000 0.05849280 33748.84863390 0 93.24014356 0 10474.17147960 0 992.55897873 0 -2629.11278059 0 3846
0.05950000 0.05951020 33992.74405479 0 864.18170142 0 10106.73121590 0 -845.42316002 0 -268.13412270 0 3787
0.06050000 0.06049470 32454.28412610 0 502.65748217 0 10311.47471157 0 -1084.67026027 0 -2365.00919886 0 3930
0.06150000 0.06148310 32586.26936979 0 523.93927088 0 11130.01613754 0 936.33548316 0 -919.47908204 0 4083
0.06250000 0.06249100 31760.86249290 0 574.99315955 0 11416.39084274 0 1075.92041500 0 -1381.43076230 0 4303
0.06350000 0.06350600 31240.13079618 0 210.74050585 0 11146.09837312 0 981.36019718 0 3183.85008715 0 4470
0.06450000 0.06451750 31121.01134096 0 -39.90424112 0 11168.94623883 0 2421.10847302 0 3062.93385802 0 4479
0.06550000 0.06550280 31988.45385428 0 -546.46771012 0 9012.56245457 0 1942.56768950 0 5506.23581614 0 4636
0.06650000 0.06648880 30533.28881467 0 543.04053026 0 10117.29003540 0 469.44822027 0 4809.53118864 0 4653
0.06750000 0.06749660 31258.65309508 0 924.79509274 0 9859.53061832 0 -1134.52962703 0 5646.18453923 0 5220
0.06850000 0.06852730 29233.51144431 0 1194.30008738 0 12379.99403361 0 -1917.53485798 0 5876.99234773 0 5029
0.06950000 0.06949320 28692.26103323 0 832.85794300 0 11806.24641547 0 334.71235974 0 4598.12188361 0 5040
0.07050000 0.07048030 28028.12015998 0 259.37762271 0 13465.15674302 0 494.44888731 0 6983.57215845 0 5475
0.07150000 0.07148790 27690.61503684 0 71.40756602 0 12189.11453413 0 2232.04792985 0 4465.08297622 0 5509
0.07250000 0.07249820 27480.21503073 0 40.89135764 0 11962.85411638 0 2490.38408916 0 7582.33042570 0 5916
0.07350000 0.07351270 26802.21016129 0 280.38213149 0 9055.98449062 0 1319.32005938 0 5446.94227726 0 5721
0.07450000 0.07449140 26246.31937024 0 700.69524016 0 10333.31327836 0 379.26680700 0 8445.23663947 0 6028
0.07550000 0.07549160 25729.80232836 0 621.66047983 0 8865.31572388 0 -195.28935939 0 7831.17252043 0 6183
0.07650000 0.07648840 24654.95443211 0 753.98844150 0 11631.11641566 0 -407.40406454 0 7623.47876638 0 6330
0.07750000 0.07749960 24151.63591460 0 59.14025854 0 8732.45427564 0 -528.76394155 0 5387.60437358 0 6583
0.07850000 0.07848650 24383.55284279 0 -316.55717946 0 10234.90108784 0 1927.63893840 0 4715.20055860 0 6549
0.07950000 0.07947320 24428.02854255 0 99.47317442 0 8083.15342390 0 441.67475399 0 4279.03923861 0 6828
0.08050000 0.08048110 24199.21714951 0 335.47654321 0 8471.13458434 0 165.77124783 0 3919.12989764 0 7147
0.08150000 0.08149960 23845.96252671 0 635.51116658 0 8142.35823320 0 -614.91703208 0 3993.30782283 0 7386
0.08250000 0.08250610 22624.37809483 0 648.83169411 0 9289.59837194 0 -132.92910454 0 3369.50563287 0 7227
0.08350000 0.08350160 22336.11788615 0 238.51729949 0 8435.79803086 0 293.20577340 0 2708.35938279 0 7798
0.08450000 0.08449610 21727.98755748 0 264.97534981 0 8706.42323640 0 916.26041669 0 3370.70348214 0 7371
0.08550000 0.08548940 21722.33104703 0 249.93346851 0 8484.03364639 0 -119.30578733 0 1006.42962964 0 8256
0.08650000 0.08650700 20511.61598816 0 534.83082628 0 8828.13803171 0 197.07947857 0 3311.67613198 0 8037
0.08750000 0.08749060 20228.45773008 0 398.65311015 0 7787.98339951 0 127.22712019 0 1004.65060165 0 8155
0.08850000 0.08849210 20255.40933866 0 -81.73202852 0 7894.49216381 0 881.75570298 0 3339.78122505 0 8718
0.08950000 0.08949900 20175.44180866 0 112.25511343 0 7162.35116206 0 1365.52598587 0 2181.25024782 0 8571
0.09050000 0.09049190 19686.87458310 0 -22.85651685 0 5680.03487232 0 628.73444524 0 3055.51384727 0 8932
0.09150000 0.09150830 20022.71602669 0 92.78862093 0 5838.63898868 0 130.22839809 0 2720.63733781 0 9285
0.09250000 0.09250820 19060.22195552 0 483.86123070 0 5571.16368308 0 455.63524359 0 2582.54084461 0 9204
0.09350000 0.09350330 19066.98758566 0 89.54433491 0 4469.27544866 0 592.28544471 0 3386.20897547 0 9349
0.09450000 0.09448040 18786.93486272 0 -252.03857769 0 4981.28946458 0 928.68588463 0 2667.36631887 0 9564
0.09550000 0.09549270 19290.03155629 0 -13.17722927 0 3724.93413027 0 849.02336255 0 2867.70660934 0 10155
0.09650000 0.09649430 18531.61550897 0 357.92734408 0 4048.53089243 0 -699.31438614 0 1585.90806923 0 9913
0.09750000 0.09749140 18436.45303915 0 783.29471119 0 4579.92122942 0 -1277.81680040 0 1391.77884905 0 10476
0.09850000 0.09850240 17187.69517475 0 657.08465376 0 5526.15560586 0 -1332.13039186 0 30.19567278 0 10575
0.09950000 0.09950330 16607.18192648 0 614.93366888 0 6586.74022284 0 -657.15231006 0 1134.11925274 0 10882
0.10050000 0.10051200 16081.90283901 0 287.38289501 0 6882.59790143 0 -172.71877360 0 -1183.25325522 0 10875
0.10150000 0.10150300 15944.15017292 0 328.29610231 0 7725.36250154 0 -365.30188093 0 -819.81136803 0 11118
0.10250000 0.10250800 15622.28363748 0 158.14050433 0 7570.13010906 0 362.09763413 0 635.61542383 0 11575
0.10350000 0.10349800 15308.07002794 0 53.30529074 0 7302.63262106 0 466.56450906 0 768.99815833 0 11364
0.10450000 0.10450100 15808.28301030 0 -328.46025202 0 7244.86966735 0 1154.62687590 0 1100.93550059 0 12093
0.10550000 0.10551000 15925.96060992 0 -16.34121502 0 6890.05118578 0 532.19888524 0 1267.00288338 0 12067
0.10650000 0.10649700 15873.49924836 0 10.26311709 0 6332.36362083 0 373.90310416 0 2723.70959936 0 12054
0.10750000 0.10749900 16092.43947612 0 -88.63263852 0 6604.66359711 0 383.88407229 0 2093.04195849 0 12807
0.10850000 0.10850100 15902.78000830 0 86.16085437 0 5747.16988745 0 95.71858243 0 1941.59166417 0 12736
0.10950000 0.10950300 15726.87362470 0 536.97475465 0 6698.33984653 0 -632.41228615 0 1432.33935629 0 12933
0.11050000 0.11050200 15182.73950242 0 566.65147032 0 6815.82889580 0 -1056.13593788 0 1291.79170856 0 13428
0.11150000 0.11150900 14606.21908505 0 358.61499829 0 7616.91277778 0 17.89453716 0 766.11001064 0 13453
0.11250000 0.11250000 14206.27052310 0 98.88922290 0 7808.38011070 0 327.28125779 0 189.01506927 0 13668
0.11350000 0.11349100 14299.88022534 0 -261.42062119 0 6452.21509505 0 1139.52066566 0 613.19678744 0 13791
0.11450000 0.11448600 14421.99430374 0 -292.24194839 0 5775.39698368 0 909.05446603 0 -351.29702654 0 14205
0.11550000 0.11549300 14520.81686855 0 7.28513071 0 4765.13312726 0 360.88203894 0 -357.22194395 0 14776
0.11650000 0.11649800 14541.33558291 0 104.68570425 0 4250.55704485 0 450.37357976 0 -144.03028357 0 14553
0.11750000 0.11747300 14435.74738796 0 -32.91789616 0 4056.25036551 0 206.71107400 0 -50.71715993 0 14568
0.11850000 0.11849100 14243.20420894 0 108.88826969 0 3438.83670499 0 249.01400828 0 -713.11959898 0 16015
0.11950000 0.11950300 14249.63710317 0 128.61906541 0 3583.34391003 0 -38.08617211 0 -301.38774939 0 15270
0.12050000 0.12050700 13930.32154303 0 257.92578503 0 3658.66422851 0 -189.45538979 0 -384.74364006 0 15999
0.12150000 0.12150000 13804.65828161 0 154.33511465 0 4059.68863656 0 326.42612650 0 191.94536351 0 15670
0.12250000 0.12250700 13831.60989019 0 -123.98516333 0 3998.90887729 0 382.76497052 0 1066.34760291 0 16887
0.12350000 0.12352200 13798.44721131 0 -15.33790535 0 3187.78746207 0 510.02425519 0 516.80984948 0 16407
0.12450000 0.12449800 13999.53061199 0 56.83606238 0 3959.14693623 0 117.10862122 0 1369.05298650 0 16306
0.12550000 0.12549900 13808.31837660 0 161.13623662 0 3254.61192368 0 80.84062902 0 1170.19891642 0 17523
0.12650000 0.12650100 13579.28515962 0 244.58751158 0 3682.13320125 0 209.54376570 0 1811.52519755 0 17154
0.12750000 0.12750600 13284.25932079 0 198.93503582 0 3650.12400686 0 -410.24784744 0 962.55063627 0 18007
0.12850000 0.12850300 13197.74798460 0 250.15861981 0 3942.37704644 0 -74.99035537 0 1275.18818673 0 17496
0.12950000 0.12949900 12672.46889713 0 221.40801908 0 3629.15055343 0 -45.89692574 0 1277.50624689 0 18405
0.13050000 0.13049000 12672.35798516 0 24.65928000 0 3701.50952232 0 382.02407856 0 999.37451926 0 18100
0.13150000 0.13148800 12413.71127233 0 70.35523325 0 3584.60830648 0 422.57571285 0 1089.89643227 0 19059
0.13250000 0.13249300 12319.65792221 0 283.56086854 0 3265.53675268 0 -109.89701405 0 843.65633235 0 18957
0.13350000 0.13349100 11919.48753632 0 218.64520192 0 3622.83966236 0 -47.06516151 0 1443.85201872 0 19468
0.13450000 0.13450700 11930.35690933 0 37.95263410 0 3346.03666013 0 241.24684306 0 1393.44252859 0 19953
0.13550000 0.13551000 11727.72074108 0 30.80801776 0 3407.30443207 0 302.77525813 0 1263.97498661 0 19956
0.13650000 0.13649900 11625.68172916 0 354.60663971 0 3723.65864262 0 -376.57940998 0 1218.36798476 0 19723
0.13750000 0.13749600 11313.35362310 0 203.66099484 0 3787.48848106 0 -293.41872438 0 836.74097105 0 20946
0.13850000 0.13851100 11120.92135604 0 61.30448380 0 4070.01454092 0 131.56932380 0 1570.95713575 0 20955
0.13950000 0.13949800 11255.79031093 0 -94.52605693 0 3799.47806496 0 475.43303014 0 1757.97689869 0 20506
0.14050000 0.14048300 11421.60370531 0 -285.76579849 0 3096.25181366 0 954.40193387 0 2043.35339616 0 21447
0.14150000 0.14148400 11572.33307184 0 -77.74540869 0 3076.66475985 0 299.79061703 0 1490.46831949 0 21771
0.14250000 0.14249400 11674.92664361 0 81.04914352 0 2409.76217855 0 223.86139184 0 1866.14934252 0 22470
0.14350000 0.14350900 11426.81656788 0 131.80445717 0 2188.28206669 0 -56.70407713 0 1840.30685363 0 22519
0.14450000 0.14449900 11253.23933564 0 326.04237109 0 3066.33885549 0 -761.66576803 0 835.15382076 0 22218
0.14550000 0.14550500 10879.95401115 0 318.16318478 0 3071.29662052 0 -607.92181417 0 534.41823375 0 23559
0.14650000 0.14650700 10474.36002995 0 332.96993270 0 3529.40741927 0 -543.55183444 0 -458.26829375 0 23044
0.14750000 0.14750500 10200.58492448 0 150.10493214 0 3454.14255678 0 -67.85727387 0 61.69034655 0 23649
0.14850000 0.14849900 10049.02371818 0 3.39030163 0 3606.34705250 0 296.71059164 0 -914.20189053 0 23640
0.14950000 0.14949500 10190.70266800 0 68.72837648 0 3522.29796203 0 159.84965778 0 -693.64900274 0 24457
0.15050000 0.15050000 9722.17723531 0 214.32407159 0 3337.61844164 0 105.62634866 0 -839.15330638 0 24591
0.15150000 0.15149900 9689.42493072 0 172.89512363 0 3361.98580134 0 21.00495243 0 -196.80774425 0 25020
0.15250000 0.15250500 9520.45054522 0 57.77814865 0 3262.00975205 0 20.39360565 0 -888.25625351 0 25297
0.15350000 0.15350100 9388.29893358 0 200.17281340 0 3295.56062282 0 -11.33930702 0 -593.84597612 0 25452
0.15450000 0.15450400 9091.84233035 0 190.48908935 0 3382.37142133 0 -104.74149297 0 -905.62395881 0 26061
0.15550000 0.15549900 9013.07264962 0 34.58922863 0 3606.34705250 0 -55.22750608 0 -544.74191987 0 26128
0.15650000 0.15649500 8976.92643877 0 -68.34916846 0 2905.79377966 0 468.56647011 0 -1051.10608006 0 26331
0.15750000 0.15749700 9228.28623521 0 -116.72708404 0 2943.54821407 0 329.95312713 0 -895.63855420 0 27345
0.15850000 0.15849900 9151.33551078 0 -22.06771092 0 2236.76168855 0 363.04925883 0 -673.24452771 0 26980
0.15950000 0.15949700 9154.30795156 0 177.43918702 0 2282.76797349 0 149.14554360 0 -237.55791096 0 27777
0.16050000 0.16050000 8873.70066877 0 218.12058830 0 2361.04964155 0 -96.28611898 0 99.88787428 0 28224
0.16150000 0.16150500 8689.95280893 0 131.58817883 0 2596.37156720 0 240.40058473 0 -11.15918599 0 28075
0.16250000 0.16249700 8699.61324147 0 9.23437530 0 2626.69489966 0 72.01026166 0 441.97976191 0 28590
0.16350000 0.16349900 8577.32170392 0 47.30728234 0 2734.72315793 0 -124.56190557 0 707.76809646 0 29163
0.16450000 0.16449100 8587.63651709 0 86.02853639 0 2281.60339781 0 166.41231901 0 566.75240022 0 28996
0.16550000 0.16550500 8566.41905732 0 -58.89292485 0 2602.83773502 0 202.32672385 0 901.71653013 0 30777
0.16650000 0.16650700 8512.67111691 0 36.81889195 0 2346.34271440 0 247.61873571 0 526.70319716 0 29211
0.16750000 0.16749900 8533.46711119 0 159.48032092 0 2476.73082572 0 228.81028392 0 1307.76303216 0 30922
0.16850000 0.16850800 8294.04144267 0 126.39084394 0 2415.62942173 0 -92.48405666 0 924.04089135 0 30867
0.16950000 0.16949900 8119.03344602 0 148.65087622 0 2198.43051189 0 150.24468122 0 1335.11392384 0 30852
0.17050000 0.17049200 8104.23778929 0 -25.16514949 0 2124.21931311 0 578.49797778 0 1494.83825109 0 31257
0.17150000 0.17149500 7983.13300982 0 -56.16327037 0 1774.83551805 0 188.97292272 0 1194.74373526 0 32608
0.17250000 0.17250900 8105.55764173 0 105.39332262 0 1929.96808976 0 -160.29330565 0 1447.48993132 0 32361
0.17350000 0.17350400 7933.04516440 0 96.07771539 0 1721.95269100 0 -255.25169745 0 747.78846240 0 32508
0.17450000 0.17449800 7925.65842723 0 13.11323306 0 1778.16287713 0 -289.12975853 0 1098.49765550 0 32791
0.17550000 0.17549800 8099.44639221 0 -89.98199355 0 2015.49230943 0 190.49463494 0 541.91477377 0 33633
0.17650000 0.17650100 8173.85723254 0 -19.64128976 0 2123.69802686 0 18.40207033 0 750.85961484 0 33984
0.17750000 0.17750300 8188.03178224 0 44.07774762 0 1968.35472240 0 -67.55015863 0 426.60736294 0 34069
0.17850000 0.17849800 8137.47810655 0 148.10518933 0 2474.75659266 0 -282.94530711 0 698.95170400 0 34536
