### header ###
fiducial parameters:
Omega_m = 0.31
Omega_nu = 0
Omega_de = 0.69
Omega_k = 0
H_0 = 100
w_de = -1
zeff = 0
beta = 0
fgrowth = 0
b_1 = 2
gamma = 0.55
Lx = 3500 Ly = 3500 Lz = 3500
nx = 700 ny = 700 nz = 700
xoffset = 1379.75464 yoffset = 22.6059522 zoffset = 368.141391
bins = 400 dk = 0.001
kx_ny = 0.628318531 ky_ny = 0.628318531 kz_ny = 0.628318531
############################
A(data) = 3.32884653 (not used)
A(ran) = 3.32731602 (used)
Ngal = 187183
weighted Ngal = 0
Nran = 9399747
weighted Nran = 0
SN(data) = 6643.87475
SN(ran) = 132.345269
SN(data+ran) = 6776.22002
############################
13 columns: k_central k_mean P_0(k) sigma^{lin}_{P_0(k)} P^img_1(k) sigma^{lin}_{P_1(k)} P_2(k) sigma^{lin}_{P_2(k)} P^img_3(k) sigma^{lin}_{P_3(k)} P_4(k) sigma^{lin}_{P_4(k)} N_modes
### header ###
0.00050000 0 0 0 0 0 0 0 0 0 0 0 0
0.00150000 0.00179520 14906.34687447 0 -27119.08565810 0 -38031.82524742 0 48927.81712936 0 13530.15115714 0 3
0.00250000 0.00253879 33863.64252231 0 -30907.94944758 0 -11413.95077942 0 -43890.41729941 0 -1567.52995589 0 6
0.00350000 0.00331552 46769.91385111 0 -10140.14899231 0 -21412.44300430 0 -38710.82832459 0 -37027.73918770 0 7
0.00450000 0.00420575 59723.54459088 0 9363.32155805 0 -69.11091186 0 -52384.61048221 0 7839.42437096 0 24
0.00550000 0.00557378 39534.68243391 0 8073.95882163 0 22857.07140681 0 -14411.79040255 0 22417.41635978 0 45
0.00650000 0.00659388 42959.08949167 0 -666.46669726 0 34078.92265508 0 36588.41687658 0 -10114.90542805 0 40
0.00750000 0.00754703 39412.79017945 0 -11180.48108366 0 7493.14611104 0 21263.82096519 0 -38949.39997095 0 57
0.00850000 0.00846663 71046.32573138 0 -7864.77884718 0 9668.67330123 0 7283.25629999 0 -15320.82490443 0 75
0.00950000 0.00948925 73644.99317635 0 -10170.53887194 0 1317.46782949 0 -8455.44054066 0 -11387.11008280 0 112
0.01050000 0.01054430 77396.59054409 0 -242.47352944 0 -10187.45294729 0 -17756.56266623 0 -30921.92435574 0 105
0.01150000 0.01145670 71676.19480607 0 5125.77448723 0 12138.42776407 0 -31652.50149872 0 -30529.18507180 0 144
0.01250000 0.01249090 77954.47775058 0 3989.90282537 0 6251.40897431 0 -8509.36594022 0 -33422.32379574 0 169
0.01350000 0.01339930 73665.40097874 0 -1201.93083088 0 27815.94556236 0 14611.65377156 0 -24320.66575609 0 180
0.01450000 0.01448870 76776.70354665 0 -2222.17676456 0 10000.47754914 0 -6625.16012907 0 -33583.92253528 0 267
0.01550000 0.01550050 76599.24439548 0 -1803.96100123 0 27281.57169339 0 7726.62689799 0 -47263.58302728 0 238
0.01650000 0.01653350 72311.27674333 0 7562.79882787 0 15645.90788698 0 -21358.42887516 0 -22762.46349684 0 315
0.01750000 0.01747870 73261.68140982 0 9246.59780137 0 36593.18609127 0 -8405.25287447 0 -31684.55505790 0 297
0.01850000 0.01844180 59722.21364725 0 2588.89610046 0 37861.02081442 0 -4381.42207764 0 -17437.91257790 0 388
0.01950000 0.01947590 62759.42701955 0 -259.10477927 0 31312.99996013 0 10820.01718284 0 -27058.86045867 0 399
0.02050000 0.02045430 61592.41127666 0 -3405.48547577 0 27458.91993259 0 8941.63425008 0 -25055.90120179 0 462
0.02150000 0.02154770 68679.90795051 0 -2858.19036236 0 13226.14144879 0 5188.47302358 0 -19201.96745252 0 571
0.02250000 0.02255340 69806.77356045 0 -368.36859688 0 23638.66805575 0 2416.17289038 0 -12610.91275407 0 510
0.02350000 0.02348930 74362.03905905 0 -4528.90172346 0 -135.85274406 0 4032.07155616 0 -14057.53757202 0 555
0.02450000 0.02439640 76392.61539633 0 -3309.39134541 0 6227.68490403 0 4520.42804899 0 -34314.94332614 0 592
0.02550000 0.02547300 77224.01151957 0 3731.54448365 0 -20.55764446 0 -15034.67202316 0 -26076.51314497 0 837
0.02650000 0.02652900 72680.50268973 0 3819.13166595 0 7853.88729178 0 -4566.00177725 0 -33102.78641167 0 723
0.02750000 0.02749970 69899.16323103 0 -1809.96133878 0 10580.18114003 0 5061.00189705 0 -23774.75704230 0 826
0.02850000 0.02848090 65255.72271668 0 3183.60608082 0 5649.53408071 0 -4239.95386056 0 -33725.77894425 0 831
0.02950000 0.02946900 69194.42857694 0 2814.94578546 0 6504.66536542 0 -746.68821567 0 -22077.47117331 0 996
0.03050000 0.03053250 59500.83335616 0 3943.14233903 0 11775.85653584 0 -738.01933613 0 -21124.73735546 0 1041
0.03150000 0.03150510 56959.95104729 0 4948.06023853 0 18465.29015122 0 -3239.10643035 0 -18939.21699682 0 1036
0.03250000 0.03246190 51395.83027428 0 3119.83169837 0 13821.40598900 0 -989.58653795 0 -4765.22185683 0 1059
0.03350000 0.03345080 48739.59951715 0 449.88334885 0 21423.97784913 0 3466.37614702 0 -8893.09917224 0 1302
0.03450000 0.03451200 48851.06604648 0 -1396.75879648 0 15767.80014144 0 6568.52847745 0 -1594.98066834 0 1339
0.03550000 0.03553350 52244.63957672 0 -1469.33958931 0 13278.71372232 0 3525.72514189 0 -8658.26525925 0 1365
0.03650000 0.03647120 51535.13570795 0 1023.31043139 0 14217.47263202 0 -3536.80524764 0 3082.42109106 0 1308
0.03750000 0.03744890 51005.75287761 0 1453.47917767 0 13820.29686930 0 -821.11680191 0 -3423.64176517 0 1579
0.03850000 0.03847530 50227.92723563 0 722.09237731 0 19509.52634389 0 -219.49478761 0 3022.46208036 0 1662
0.03950000 0.03950240 49374.90327834 0 484.82283748 0 17665.17120337 0 501.78904145 0 -7994.08002120 0 1683
0.04050000 0.04050350 49985.03002246 0 39.95758977 0 20602.67471511 0 2286.10642377 0 3412.92766892 0 1822
0.04150000 0.04152450 47765.79242509 0 1430.16548169 0 18027.40969570 0 -1293.55520887 0 -1029.04679845 0 1887
0.04250000 0.04250150 48973.73468472 0 1232.75326720 0 21375.06567058 0 -192.81491335 0 -1534.77765130 0 1920
0.04350000 0.04349210 46058.74630279 0 916.62864443 0 21079.59618388 0 -2822.41016101 0 -4402.81699655 0 2005
0.04450000 0.04448520 45169.23230754 0 2285.62950230 0 24285.50666177 0 -3204.26898074 0 -4635.36612296 0 2151
0.04550000 0.04548030 41609.73447095 0 1579.69699894 0 23759.34027854 0 557.32931929 0 -3716.20535827 0 2274
0.04650000 0.04648670 40044.98840550 0 601.35360734 0 23380.57590276 0 3059.67304612 0 -7799.56260913 0 2311
0.04750000 0.04749250 41466.21438244 0 -1489.66975331 0 18597.05357096 0 6467.64295001 0 -5934.35601834 0 2568
0.04850000 0.04851840 41586.33204539 0 -710.40447397 0 16069.70252237 0 4126.94565486 0 -5701.62943278 0 2493
0.04950000 0.04949480 39434.63983744 0 2308.17790570 0 14507.95108009 0 -3079.43755908 0 -7855.49551534 0 2644
0.05050000 0.05050630 37378.88648308 0 3377.89057776 0 16574.35198352 0 -4501.83920290 0 -7393.07024097 0 2829
0.05150000 0.05149060 33394.59580337 0 1222.80446354 0 16352.19530864 0 -881.91652534 0 -10412.19387105 0 2784
0.05250000 0.05249300 35335.22253340 0 -2219.31523575 0 13713.82137860 0 4647.34461567 0 -10848.69901815 0 3055
0.05350000 0.05348950 36120.25745340 0 -578.69983757 0 12545.47469207 0 1458.09311560 0 -16681.27112210 0 3009
0.05450000 0.05448610 36073.78533819 0 1065.05215111 0 10299.36312450 0 -1159.99501522 0 -11734.93001910 0 3336
0.05550000 0.05550870 34585.56853167 0 940.52241001 0 10834.81283957 0 -1047.74212003 0 -11356.94202710 0 3349
0.05650000 0.05647670 34426.96441531 0 188.09782728 0 11161.29331294 0 1221.01878083 0 -11509.00233726 0 3324
0.05750000 0.05747970 33855.21321263 0 46.08569791 0 9398.93539145 0 2358.34338949 0 -9785.29723714 0 3639
0.05850000 0.05849280 34052.19287043 0 -154.73439774 0 12499.11348883 0 1949.75478512 0 -5574.94578124 0 3846
0.05950000 0.05951020 33385.39010991 0 -127.56872906 0 8132.32069997 0 1609.45468035 0 -2855.12919200 0 3787
0.06050000 0.06049470 35081.78868314 0 -122.36252121 0 11360.93485800 0 506.26433942 0 -2489.38588144 0 3930
0.06150000 0.06148310 34095.11580262 0 169.12522578 0 8546.80982112 0 372.05309251 0 -1682.88949535 0 4083
0.06250000 0.06249100 34323.15081188 0 880.27170083 0 11825.54509816 0 -842.10023741 0 2017.24471855 0 4303
0.06350000 0.06350600 34018.58654368 0 94.95728267 0 10918.80647406 0 249.93457763 0 274.49270591 0 4470
0.06450000 0.06451750 32639.50711514 0 879.87019950 0 12856.91550238 0 547.26294894 0 2442.82503665 0 4479
0.06550000 0.06550280 31997.88137168 0 710.85144921 0 10891.05629929 0 817.64414814 0 1437.03093260 0 4636
0.06650000 0.06648880 31559.55726829 0 936.60499925 0 14334.37384785 0 -188.85424692 0 1910.25903279 0 4653
0.06750000 0.06749660 29927.15490145 0 962.59167370 0 12426.46614882 0 -736.20148895 0 665.93542893 0 5220
0.06850000 0.06852730 29110.28824621 0 553.62485951 0 13707.72122028 0 -41.68027448 0 2133.94629284 0 5029
0.06950000 0.06949320 27947.15442225 0 647.99985434 0 12678.67996742 0 965.49978554 0 945.77298265 0 5040
0.07050000 0.07048030 27890.81114176 0 110.37992476 0 13393.17487483 0 560.91066678 0 2002.81507132 0 5475
0.07150000 0.07148790 27776.34998925 0 256.69688041 0 13429.22126491 0 46.85764522 0 -1392.63287121 0 5509
0.07250000 0.07249820 26955.71232705 0 585.12496796 0 13567.41757888 0 -536.72520272 0 494.27475552 0 5916
0.07350000 0.07351270 26778.80773573 0 325.62645120 0 14080.38543774 0 -1021.75655470 0 338.29592548 0 5721
0.07450000 0.07449140 26761.17273258 0 -441.69804551 0 13675.11310125 0 1858.81806134 0 -423.54064698 0 6028
0.07550000 0.07549160 27244.63800755 0 -59.44415734 0 14453.16056717 0 572.38561915 0 -1482.79321120 0 6183
0.07650000 0.07648840 26891.71612066 0 580.63968792 0 12120.79276093 0 76.88140445 0 -1937.25500616 0 6330
0.07750000 0.07749960 26260.51610234 0 821.14120254 0 13843.36655895 0 -620.95397058 0 -1475.63938917 0 6583
0.07850000 0.07848650 24978.70647103 0 450.12402783 0 12873.55229780 0 -117.68203610 0 -1741.00736736 0 6549
0.07950000 0.07947320 24740.02391271 0 497.84057534 0 13570.30129009 0 1151.18860485 0 -2188.77007935 0 6828
0.08050000 0.08048110 24092.74165881 0 50.75797554 0 11472.73412324 0 1673.52852512 0 -1842.07035395 0 7147
0.08150000 0.08149960 23865.59394531 0 -315.84845197 0 9784.93122765 0 1938.59704099 0 -1657.05809766 0 7386
0.08250000 0.08250610 24709.19038519 0 -214.30188919 0 8703.58388998 0 1754.47208045 0 -1541.41018708 0 7227
0.08350000 0.08350160 23251.14163438 0 554.06628915 0 7206.32775796 0 23.51200659 0 -613.54837838 0 7798
0.08450000 0.08449610 23324.89809408 0 694.05715879 0 8226.29641171 0 -411.76623230 0 100.61368220 0 7371
0.08550000 0.08548940 22386.25009635 0 333.30932333 0 6618.44995491 0 730.50061372 0 -1298.28005877 0 8256
0.08650000 0.08650700 22122.50143292 0 246.24009993 0 7335.09655453 0 641.88860482 0 119.74167137 0 8037
0.08750000 0.08749060 21336.02465733 0 337.40862972 0 6481.19639268 0 800.94967850 0 -30.22195892 0 8155
0.08850000 0.08849210 20961.69676032 0 70.50762630 0 5795.08385826 0 1183.39744078 0 1807.47691067 0 8718
0.08950000 0.08949900 20899.91879332 0 13.46238394 0 5176.38361890 0 1063.42174516 0 1646.69891971 0 8571
0.09050000 0.09049190 20152.37211901 0 520.34350483 0 4068.73905327 0 202.90457521 0 1480.20896232 0 8932
0.09150000 0.09150830 19813.86878815 0 741.61842954 0 5403.27623487 0 -1012.23254388 0 1081.36175622 0 9285
0.09250000 0.09250820 18824.42310840 0 436.30439643 0 5627.28513963 0 -536.08191330 0 1435.51143861 0 9204
0.09350000 0.09350330 18243.24438831 0 483.05379157 0 5639.44109149 0 -587.27555105 0 211.39599559 0 9349
0.09450000 0.09448040 17998.57258364 0 162.51043592 0 5998.94005817 0 140.91143899 0 -850.99870473 0 9564
0.09550000 0.09549270 17670.16224200 0 127.21491988 0 5939.03650346 0 -149.74668648 0 -1111.90358526 0 10155
0.09650000 0.09649430 17703.99039269 0 391.47932396 0 7053.95689428 0 -303.09579372 0 -450.05858976 0 9913
0.09750000 0.09749140 17327.00060842 0 21.11741717 0 6096.84205363 0 106.82974353 0 -771.24301659 0 10476
0.09850000 0.09850240 17405.74810675 0 -21.96822288 0 7037.26464287 0 452.31897570 0 -654.58137061 0 10575
0.09950000 0.09950330 17057.70634652 0 165.31872699 0 6337.13283552 0 131.06911082 0 -377.47668782 0 10882
0.10050000 0.10051200 17191.79891762 0 197.17708111 0 6954.36903688 0 465.05943364 0 301.52306199 0 10875
0.10150000 0.10150300 16845.08810102 0 265.53212790 0 6283.17416237 0 163.26130996 0 432.85392506 0 11118
0.10250000 0.10250800 16595.42525772 0 153.85930231 0 6885.79216615 0 402.48955517 0 1246.09597713 0 11575
0.10350000 0.10349800 16427.94818380 0 59.94414850 0 6278.30512690 0 389.32430440 0 668.70157344 0 11364
0.10450000 0.10450100 16270.89683501 0 160.22897671 0 6307.07569179 0 -31.31200175 0 795.24325767 0 12093
0.10550000 0.10551000 16103.75249700 0 381.32311492 0 6653.90851156 0 -328.08869693 0 700.78618798 0 12067
0.10650000 0.10649700 15639.25316881 0 161.57212066 0 5843.35274738 0 -135.43349682 0 423.79019891 0 12054
0.10750000 0.10749900 15515.80814678 0 75.90870647 0 6800.94450950 0 495.56687996 0 435.87183975 0 12807
0.10850000 0.10850100 15214.90397357 0 65.14525440 0 5252.76869228 0 977.97405475 0 -121.38427764 0 12736
0.10950000 0.10950300 15393.69406838 0 17.67404416 0 5441.00848689 0 669.91051391 0 843.71622481 0 12933
0.11050000 0.11050200 15219.67318826 0 4.40475796 0 4370.41961027 0 422.01782564 0 276.19187728 0 13428
0.11150000 0.11150900 14789.00201076 0 195.18621125 0 4594.62815657 0 353.12818316 0 911.30043341 0 13453
0.11250000 0.11250000 14724.89489240 0 442.93471397 0 4173.00739578 0 -553.20339402 0 -61.73082941 0 13668
0.11350000 0.11349100 14170.44595696 0 233.83348702 0 4977.71809917 0 -431.21908263 0 1002.57654782 0 13791
0.11450000 0.11448600 14126.41390507 0 131.54159581 0 4905.10403275 0 234.90711488 0 536.59210836 0 14205
0.11550000 0.11549300 14076.72534275 0 -129.33888409 0 4540.63620983 0 831.90853654 0 1612.39384754 0 14776
0.11650000 0.11649800 14236.66040274 0 18.35981287 0 5115.84786596 0 126.53724774 0 780.83801107 0 14553
0.11750000 0.11747300 14423.99071919 0 128.70224939 0 4535.73390078 0 -146.70991675 0 1028.32587065 0 14568
0.11850000 0.11849100 13799.55633101 0 334.40957007 0 5422.57491756 0 -814.74269102 0 1242.73534446 0 16015
0.11950000 0.11950300 13832.49718595 0 195.58882170 0 5048.41338851 0 6.68008374 0 1202.18592841 0 15270
0.12050000 0.12050700 13646.27598918 0 -106.24013550 0 5802.38186586 0 276.27617038 0 1589.86762654 0 15999
0.12150000 0.12150000 13688.20071365 0 227.10334871 0 5988.75833937 0 309.72500214 0 921.12834303 0 15670
0.12250000 0.12250700 13674.33671746 0 179.52100468 0 5610.93671533 0 169.37034124 0 1860.84775038 0 16887
0.12350000 0.12352200 13238.67450134 0 122.45457815 0 5429.50691565 0 116.34221951 0 1345.43982820 0 16407
0.12450000 0.12449800 13229.46880787 0 -39.70437775 0 5625.98746959 0 716.46581310 0 2006.45298392 0 16306
0.12550000 0.12549900 13129.42621140 0 1.05579877 0 4717.54080115 0 453.41034948 0 1564.96788939 0 17523
0.12650000 0.12650100 13151.16495742 0 45.96857487 0 4392.67964254 0 196.32638630 0 2017.89909917 0 17154
0.12750000 0.12750600 13194.42062551 0 40.41022152 0 4158.25610384 0 33.26749069 0 1529.68679190 0 18007
0.12850000 0.12850300 12917.91708559 0 79.33566451 0 4051.09295893 0 52.92552816 0 772.40648315 0 17496
0.12950000 0.12949900 12865.45572403 0 146.61231422 0 3785.85807511 0 -317.94136084 0 176.88019069 0 18405
0.13050000 0.13049000 12762.08576847 0 152.83225747 0 4036.59676452 0 -637.12715397 0 -394.99412428 0 18100
0.13150000 0.13148800 12340.84210838 0 254.91230682 0 4323.78112710 0 -264.91989383 0 -976.61538312 0 19059
0.13250000 0.13249300 12372.11928377 0 130.36260157 0 4615.10250614 0 -40.85553308 0 -1526.28179444 0 18957
0.13350000 0.13349100 12035.50145639 0 49.47206216 0 4121.53315075 0 146.17088458 0 -2061.89787746 0 19468
0.13450000 0.13450700 12052.80372363 0 85.71221546 0 4195.24524567 0 583.15295314 0 -1548.40873235 0 19953
0.13550000 0.13551000 11899.52338181 0 20.18486933 0 3676.72069714 0 268.51122340 0 -1301.24140836 0 19956
0.13650000 0.13649900 11819.77767575 0 90.60864617 0 3461.04128128 0 506.15231833 0 -985.65692687 0 19723
0.13750000 0.13749600 11487.37450321 0 223.50314618 0 3085.63753818 0 235.05240956 0 -662.18549524 0 20946
0.13850000 0.13851100 11428.48024742 0 -10.96099739 0 2756.00716488 0 848.90025026 0 -10.79126880 0 20955
0.13950000 0.13949800 11549.48520612 0 -125.13864781 0 2488.64277124 0 718.23485902 0 784.95728162 0 20506
0.14050000 0.14048300 11312.13359143 0 142.33333044 0 2023.75525116 0 300.78993388 0 840.43323051 0 21447
0.14150000 0.14148400 11376.12979782 0 95.49997494 0 1942.20168000 0 74.11537084 0 1325.46458249 0 21771
0.14250000 0.14249400 10983.09105157 0 203.95934804 0 2236.69514137 0 -476.05857365 0 1276.72986310 0 22470
0.14350000 0.14350900 10944.46041260 0 217.35307747 0 2402.77472447 0 -230.23106625 0 1137.20260550 0 22519
0.14450000 0.14449900 10830.08798967 0 -0.12332413 0 2860.77461125 0 163.24467316 0 1399.70905487 0 22218
0.14550000 0.14550500 10878.81161786 0 -54.92904197 0 2599.55474072 0 47.84243260 0 1290.34985296 0 23559
0.14650000 0.14650700 10887.98403774 0 23.08089176 0 2467.66931781 0 345.90115922 0 1209.78339832 0 23044
0.14750000 0.14750500 10880.41984142 0 81.27773309 0 2533.24047417 0 124.04505579 0 1537.38408258 0 23649
0.14850000 0.14849900 10941.58779259 0 132.91801335 0 2446.86223234 0 -107.75829854 0 1280.95560914 0 23640
0.14950000 0.14949500 10500.54634594 0 232.97281014 0 2906.25960993 0 -9.14439242 0 1452.03732207 0 24457
0.15050000 0.15050000 10343.04025808 0 241.25349778 0 2663.21821121 0 -289.99043541 0 1490.24649555 0 24591
0.15150000 0.15149900 10104.96771559 0 194.78581904 0 3074.01396378 0 -12.02906856 0 1234.42803794 0 25020
0.15250000 0.15250500 9973.98067963 0 30.04804895 0 2910.69608871 0 75.07376117 0 1439.13826002 0 25297
0.15350000 0.15350100 9862.46978551 0 3.06829091 0 2935.89528818 0 333.27715886 0 782.58487459 0 25452
0.15450000 0.15450400 10104.50188531 0 -18.00189994 0 2769.42751318 0 -132.05844558 0 1019.23108916 0 26061
0.15550000 0.15549900 9862.65833586 0 56.82497118 0 2919.60231986 0 -284.00007994 0 233.35545643 0 26128
0.15650000 0.15649500 9740.59971344 0 230.74347955 0 2990.68580110 0 -151.16746881 0 549.31038390 0 26331
0.15750000 0.15749700 9726.79117324 0 140.76059871 0 3007.85497398 0 -384.83680611 0 -198.50358826 0 27345
0.15850000 0.15849900 9453.42644206 0 130.66982773 0 3370.42620222 0 78.34189326 0 330.89587887 0 26980
0.15950000 0.15949700 9460.99063838 0 64.47944984 0 3194.29799468 0 117.27831653 0 42.09275610 0 27777
0.16050000 0.16050000 9336.13703433 0 87.97371051 0 3156.83193139 0 115.94182730 0 -10.08713307 0 28224
0.16150000 0.16150500 9232.40106928 0 112.69876131 0 3331.18554741 0 30.05037810 0 29.95432833 0 28075
0.16250000 0.16249700 8966.34543688 0 138.83405780 0 3086.01463887 0 -9.34133881 0 -144.53826039 0 28590
0.16350000 0.16349900 8944.79524121 0 149.14776184 0 3489.96712292 0 -28.74738428 0 544.21286978 0 29163
0.16450000 0.16449100 8658.75327192 0 115.21979038 0 3018.53579664 0 77.13250914 0 -161.03863409 0 28996
0.16550000 0.16550500 8601.22323335 0 66.99637517 0 3292.38854049 0 128.01015870 0 172.91619690 0 30777
0.16650000 0.16650700 8600.29157280 0 62.34494899 0 3143.56685984 0 99.53894522 0 49.94976002 0 29211
0.16750000 0.16749900 8415.67859960 0 117.50568607 0 3095.64179782 0 79.38158206 0 372.66421746 0 30922
0.16850000 0.16850800 8482.84688832 0 31.42624108 0 3040.87346729 0 168.49746404 0 180.01456295 0 30867
0.16950000 0.16949900 8416.08897389 0 -109.31062247 0 2825.44914897 0 346.28380552 0 812.58656233 0 30852
0.17050000 0.17049200 8426.18196311 0 -20.92553946 0 2540.13919867 0 303.71579163 0 251.51950967 0 31257
0.17150000 0.17149500 8557.13572548 0 39.01716718 0 2385.28390688 0 52.78012257 0 251.32430461 0 32608
0.17250000 0.17250900 8455.78436776 0 56.78715020 0 2299.79296080 0 -31.26153681 0 533.10947251 0 32361
0.17350000 0.17350400 8157.97463851 0 248.89311424 0 2474.49040394 0 -136.10007775 0 4.83540695 0 32508
0.17450000 0.17449800 8104.29324528 0 207.74255532 0 2522.58183390 0 -109.05397217 0 516.52369660 0 32791
0.17550000 0.17549800 7786.98519179 0 15.43351147 0 2344.82322041 0 372.85720429 0 245.11434344 0 33633
0.17650000 0.17650100 7839.73492447 0 72.49916162 0 2357.53373212 0 325.13067470 0 806.63391693 0 33984
0.17750000 0.17750300 7717.05519503 0 116.77921267 0 2224.83865183 0 108.41866841 0 493.55715508 0 34069
