### header ###
fiducial parameters:
Omega_m = 0.31
Omega_nu = 0
Omega_de = 0.69
Omega_k = 0
H_0 = 100
w_de = -1
zeff = 0
beta = 0
fgrowth = 0
b_1 = 2
gamma = 0.55
Lx = 3500 Ly = 3500 Lz = 3500
nx = 700 ny = 700 nz = 700
xoffset = 1379.75464 yoffset = 22.6059522 zoffset = 368.141391
bins = 400 dk = 0.001
kx_ny = 0.628318531 ky_ny = 0.628318531 kz_ny = 0.628318531
############################
A(data) = 3.36035915 (not used)
A(ran) = 3.36318467 (used)
Ngal = 189108
weighted Ngal = 0
Nran = 9399747
weighted Nran = 0
SN(data) = 6669.48511
SN(ran) = 133.771958
SN(data+ran) = 6803.25707
############################
13 columns: k_central k_mean P_0(k) sigma^{lin}_{P_0(k)} P^img_1(k) sigma^{lin}_{P_1(k)} P_2(k) sigma^{lin}_{P_2(k)} P^img_3(k) sigma^{lin}_{P_3(k)} P_4(k) sigma^{lin}_{P_4(k)} N_modes
### header ###
0.00050000 0 0 0 0 0 0 0 0 0 0 0 0
0.00150000 0.00179520 27930.18489092 0 -31536.82031455 0 -40964.22680857 0 22473.75964027 0 -15452.58832417 0 3
0.00250000 0.00253879 46034.12384557 0 -25180.89899140 0 -18860.35858651 0 -35552.38816965 0 -29800.49343230 0 6
0.00350000 0.00331552 49833.30244821 0 -3465.37793929 0 -23494.59340739 0 -11342.85620698 0 66881.47036535 0 7
0.00450000 0.00420575 60324.79837744 0 -10568.06955296 0 -25157.27474190 0 -26900.36725428 0 1648.01877214 0 24
0.00550000 0.00557378 95929.20426078 0 -25098.04775019 0 -44098.37724219 0 2014.49410171 0 -22088.67328223 0 45
0.00650000 0.00659388 120038.91545092 0 -14346.24142859 0 -55095.74266423 0 -19602.02692644 0 -24411.61357107 0 40
0.00750000 0.00754703 104421.73376403 0 9477.84925774 0 -7945.83331448 0 -64018.16696120 0 9685.16591110 0 57
0.00850000 0.00846663 102946.16092204 0 18068.22530047 0 -15824.80889375 0 -13952.50393693 0 -881.58046207 0 75
0.00950000 0.00948925 97233.41810992 0 2415.35214181 0 7177.39082512 0 7899.81593834 0 18161.83500271 0 112
0.01050000 0.01054430 82010.63938652 0 7612.88667329 0 18531.94824488 0 -2737.73996350 0 1644.59159229 0 105
0.01150000 0.01145670 76915.67624441 0 6764.56538351 0 9012.18535387 0 8774.85592157 0 15794.41901412 0 144
0.01250000 0.01249090 68456.42033200 0 3202.23929169 0 21580.14190216 0 6711.80455963 0 16400.99657521 0 169
0.01350000 0.01339930 67290.51370881 0 6105.27136332 0 19612.56356354 0 -8546.59908838 0 -1462.79578311 0 180
0.01450000 0.01448870 57642.39239552 0 8072.21750370 0 31310.44898483 0 -5975.68181817 0 11713.52400899 0 267
0.01550000 0.01550050 47707.56364112 0 3415.31227627 0 18681.56849171 0 -7578.64814831 0 -21453.70225695 0 238
0.01650000 0.01653350 53800.40177265 0 -5307.27083409 0 31978.91542490 0 15847.54584750 0 6377.87080191 0 315
0.01750000 0.01747870 61087.87272748 0 -11391.54656158 0 9237.76920860 0 14689.73579807 0 -20798.65616518 0 297
0.01850000 0.01844180 67566.46268888 0 -4448.84546389 0 13810.53661599 0 1994.09739052 0 -4679.60890759 0 388
0.01950000 0.01947590 78281.11350071 0 -2666.62320867 0 -420.83328581 0 -4044.87079744 0 -13486.89548904 0 399
0.02050000 0.02045430 72684.82825654 0 4250.42395048 0 11954.86845458 0 -12738.01787109 0 -14029.03319587 0 462
0.02150000 0.02154770 74342.29672849 0 1332.90677565 0 14551.20674819 0 1650.85811856 0 -6520.43704748 0 571
0.02250000 0.02255340 75906.59914606 0 -2121.83470577 0 16646.33385171 0 6330.10101665 0 5170.23909579 0 510
0.02350000 0.02348930 76293.23827168 0 -1541.25491032 0 17149.09780937 0 10212.58559958 0 6418.84168344 0 555
0.02450000 0.02439640 81277.95491612 0 -1057.94047562 0 6172.24001049 0 9915.08642383 0 2404.47167760 0 592
0.02550000 0.02547300 77152.91694713 0 1099.78201611 0 5643.72229351 0 -426.60403558 0 17696.33746680 0 837
0.02650000 0.02652900 73999.13509491 0 3326.22778238 0 10444.45816297 0 -7328.37528917 0 1715.32015522 0 723
0.02750000 0.02749970 70523.04305936 0 4968.52349690 0 15230.76438521 0 -9876.42251127 0 9578.71260279 0 826
0.02850000 0.02848090 62857.14046466 0 5455.19412779 0 19420.02038452 0 -6988.58537947 0 -12478.26203857 0 831
0.02950000 0.02946900 59033.33940479 0 3332.28357591 0 22449.80265487 0 -1056.46867379 0 -10121.56014622 0 996
0.03050000 0.03053250 55519.64821160 0 1096.47240294 0 22331.45958343 0 2983.38779351 0 -10635.74803674 0 1041
0.03150000 0.03150510 54484.06315254 0 -14.17388423 0 20859.21410052 0 3145.14180980 0 -19380.97937126 0 1036
0.03250000 0.03246190 54066.47958744 0 2322.45227617 0 21225.22359981 0 -485.56927503 0 -11512.99516816 0 1059
0.03350000 0.03345080 50022.29644421 0 2187.79405402 0 15984.63304178 0 -1819.92123364 0 -19457.50863021 0 1302
0.03450000 0.03451200 48513.67183531 0 -379.55074165 0 20802.98173199 0 1915.84899605 0 -7144.05068709 0 1339
0.03550000 0.03553350 48397.99065114 0 -682.10195760 0 14337.03573512 0 4958.78542597 0 -14941.72779274 0 1365
0.03650000 0.03647120 51556.54171806 0 -2479.31507461 0 10873.23274580 0 7422.09590339 0 -7715.34715070 0 1308
0.03750000 0.03744890 52213.25148936 0 -740.19431985 0 9297.71712810 0 2248.47399253 0 -7679.81095568 0 1579
0.03850000 0.03847530 52365.08997558 0 1969.80766920 0 8071.16383999 0 -3587.39219692 0 -10789.36111447 0 1662
0.03950000 0.03950240 49786.71942103 0 2076.20552153 0 10922.84366975 0 -5297.35530402 0 -10184.59141848 0 1683
0.04050000 0.04050350 47116.84649165 0 1630.20630984 0 14246.30974408 0 -3996.55754353 0 -14237.76952243 0 1822
0.04150000 0.04152450 46326.37688515 0 1161.19286449 0 19140.07857355 0 -574.73029818 0 -8364.69236723 0 1887
0.04250000 0.04250150 45623.30591061 0 984.62655468 0 17966.62993643 0 1812.78959401 0 -13847.91394970 0 1920
0.04350000 0.04349210 42436.13955556 0 1824.96772825 0 18211.63447701 0 877.93034915 0 -7617.46733763 0 2005
0.04450000 0.04448520 41266.24010147 0 1759.61839584 0 21389.15149071 0 138.47359390 0 -6002.86634189 0 2151
0.04550000 0.04548030 39539.22982466 0 620.00789148 0 20635.39374611 0 2655.66510609 0 96.64514102 0 2274
0.04650000 0.04648670 39060.75558831 0 414.15860348 0 18899.06686386 0 3543.32687144 0 1078.58230226 0 2311
0.04750000 0.04749250 38370.43949025 0 224.31391268 0 18013.54569952 0 3091.72660530 0 2256.70366066 0 2568
0.04850000 0.04851840 37826.85992782 0 473.59521881 0 17612.04436999 0 1576.58037260 0 5828.56818185 0 2493
0.04950000 0.04949480 36758.33401383 0 1027.45077521 0 15048.53601935 0 1963.88497003 0 5888.24991263 0 2644
0.05050000 0.05050630 35665.62929049 0 583.32597582 0 14098.24226482 0 1024.87318104 0 5570.23202253 0 2829
0.05150000 0.05149060 33881.49934940 0 187.96806028 0 11476.94877808 0 3735.67040892 0 5601.63120109 0 2784
0.05250000 0.05249300 34773.12067207 0 -542.11219708 0 9965.30736361 0 3577.37684607 0 5380.45055155 0 3055
0.05350000 0.05348950 33526.47013509 0 -361.10940848 0 7255.65031079 0 830.25372995 0 -0.64025709 0 3009
0.05450000 0.05448610 34731.08503563 0 608.79469137 0 4036.56349093 0 -1462.57395917 0 1930.43392004 0 3336
0.05550000 0.05550870 32675.22076931 0 1354.77861603 0 6637.62663444 0 -4135.13095821 0 -3719.18889025 0 3349
0.05650000 0.05647670 31152.17760438 0 1619.63639915 0 6152.12057922 0 -1814.09835525 0 -4208.75432355 0 3324
0.05750000 0.05747970 30507.22450184 0 396.82860825 0 10672.91463771 0 -226.23823535 0 -3780.48993579 0 3639
0.05850000 0.05849280 29628.13623173 0 -266.00904937 0 6798.85936447 0 1060.53470659 0 -6427.95864733 0 3846
0.05950000 0.05951020 31154.39584377 0 -123.66795509 0 11008.84481088 0 977.16107001 0 -1029.46493658 0 3787
0.06050000 0.06049470 30624.23662965 0 -528.20272698 0 6560.23226213 0 1272.51520826 0 -3171.38358178 0 3930
0.06150000 0.06148310 32247.98786287 0 -630.38481535 0 11367.03501632 0 1817.49226151 0 4948.18224169 0 4083
0.06250000 0.06249100 32980.22868539 0 -624.70612251 0 7504.08203123 0 149.97183777 0 2991.09617539 0 4303
0.06350000 0.06350600 34535.99088131 0 -130.80846769 0 9831.93572031 0 779.92298732 0 4935.90428667 0 4470
0.06450000 0.06451750 33192.95784285 0 786.29266173 0 8896.27125456 0 77.68950906 0 3512.49334393 0 4479
0.06550000 0.06550280 33616.08700643 0 891.93187618 0 11508.89142529 0 -1447.24592499 0 7479.10465570 0 4636
0.06650000 0.06648880 32568.96710255 0 420.67800905 0 10526.79920912 0 326.07231732 0 5725.86369811 0 4653
0.06750000 0.06749660 31809.99649538 0 337.75245683 0 11172.38450988 0 612.33167408 0 4730.81696390 0 5220
0.06850000 0.06852730 31075.98108135 0 1099.12430813 0 11708.97661824 0 -1570.12529598 0 3538.83493668 0 5029
0.06950000 0.06949320 29592.31166558 0 1326.79552613 0 12730.80859308 0 -1452.88025304 0 1001.58610393 0 5040
0.07050000 0.07048030 28675.40241387 0 427.54456908 0 13728.79449448 0 628.49709363 0 3458.53467077 0 5475
0.07150000 0.07148790 28358.74874100 0 -408.92355852 0 11607.27034222 0 1793.29126977 0 159.06551015 0 5509
0.07250000 0.07249820 28872.16024774 0 -316.89324273 0 10426.16877921 0 1941.11474270 0 -33.57704599 0 5916
0.07350000 0.07351270 28503.59977315 0 536.24939037 0 10375.26018521 0 -776.79194242 0 -1596.98817498 0 5721
0.07450000 0.07449140 27311.51792515 0 864.01866082 0 10136.12288781 0 -1320.80627978 0 -2458.80745145 0 6028
0.07550000 0.07549160 26851.67689968 0 716.97600816 0 11819.66676378 0 -1290.31657937 0 -446.33971143 0 6183
0.07650000 0.07648840 26291.01689394 0 361.30905002 0 11382.22995614 0 29.38191166 0 -4159.76450663 0 6330
0.07750000 0.07749960 26127.31082699 0 -289.51573218 0 11633.33465505 0 1618.36091150 0 -2445.53128870 0 6583
0.07850000 0.07848650 25902.49226485 0 -99.82143801 0 9187.18225932 0 1040.61491687 0 -5194.21826359 0 6549
0.07950000 0.07947320 26185.09596309 0 311.84120252 0 9466.43641608 0 946.89763002 0 -1509.88900535 0 6828
0.08050000 0.08048110 25252.54812368 0 408.15493857 0 8638.43419911 0 721.85280746 0 -2836.04124205 0 7147
0.08150000 0.08149960 24450.10002448 0 947.12832691 0 8309.23638249 0 175.26642153 0 -771.64451792 0 7386
0.08250000 0.08250610 23555.70590257 0 335.24473720 0 7916.33073060 0 1197.18379859 0 -2008.90413844 0 7227
0.08350000 0.08350160 22959.88680252 0 260.95146356 0 7644.43003741 0 560.34168838 0 564.07276703 0 7798
0.08450000 0.08449610 22523.22637866 0 303.39303780 0 6338.87415344 0 1193.01350854 0 81.70951339 0 7371
0.08550000 0.08548940 22115.18124294 0 227.00685530 0 6512.16301456 0 838.78396953 0 652.41304161 0 8256
0.08650000 0.08650700 21594.11681031 0 488.49402367 0 6031.88091311 0 41.17540320 0 986.89692269 0 8037
0.08750000 0.08749060 20978.66629165 0 763.45477809 0 7258.24565087 0 -650.73494351 0 1844.10004299 0 8155
0.08850000 0.08849210 20048.55851558 0 475.86447770 0 6963.80764549 0 -429.86262924 0 1315.10540454 0 8718
0.08950000 0.08949900 20034.69451939 0 97.08213418 0 7929.19651906 0 449.80903783 0 1502.43572100 0 8571
0.09050000 0.09049190 19635.07869335 0 28.91807780 0 7757.43824312 0 380.91163151 0 1142.34892088 0 8932
0.09150000 0.09150830 20035.02725530 0 92.72318287 0 7616.87950419 0 438.27862949 0 1720.67720335 0 9285
0.09250000 0.09250820 19792.46277804 0 -61.78905820 0 6801.70980209 0 198.51357034 0 1109.20842440 0 9204
0.09350000 0.09350330 19789.02450699 0 63.36489546 0 7642.69981069 0 404.85530748 0 1554.66416743 0 9349
0.09450000 0.09448040 19602.69239826 0 172.29508987 0 6605.58416645 0 317.90032341 0 635.33038007 0 9564
0.09550000 0.09549270 19385.30493807 0 128.49373488 0 7044.28537054 0 68.45420209 0 1853.32791885 0 10155
0.09650000 0.09649430 19624.09840837 0 19.35558053 0 5903.61122040 0 792.43385748 0 262.25467920 0 9913
0.09750000 0.09749140 19396.28522305 0 102.46325021 0 6831.64494265 0 -517.10043884 0 941.83006213 0 10476
0.09850000 0.09850240 18984.13634446 0 271.88738375 0 5745.99422057 0 -246.62052798 0 -705.85153762 0 10575
0.09950000 0.09950330 18407.39410315 0 605.44625901 0 6270.78529537 0 -353.12596492 0 -569.86791744 0 10882
0.10050000 0.10051200 18001.01264697 0 430.13547269 0 6323.79012559 0 -450.90706633 0 -1718.04858967 0 10875
0.10150000 0.10150300 17431.81241958 0 382.90471960 0 6891.10484949 0 85.58300301 0 -2218.00647451 0 11118
0.10250000 0.10250800 16687.70401633 0 305.34730670 0 6671.36605555 0 110.00781511 0 -1895.50774085 0 11575
0.10350000 0.10349800 16751.47839878 0 129.59952722 0 6095.98803147 0 321.57816432 0 -1642.88354796 0 11364
0.10450000 0.10450100 16441.03579620 0 149.57144556 0 6513.48286699 0 709.62254459 0 -1090.61514183 0 12093
0.10550000 0.10551000 16171.96335823 0 140.42342632 0 5386.92781057 0 440.92055260 0 -796.38454183 0 12067
0.10650000 0.10649700 16119.61290864 0 150.84360585 0 6035.91810880 0 181.19355718 0 -556.19579896 0 12054
0.10750000 0.10749900 15978.20014755 0 76.70516533 0 5719.63044543 0 76.22624744 0 198.14866996 0 12807
0.10850000 0.10850100 15984.41121784 0 -1.94132548 0 5781.92969868 0 269.84216703 0 26.70970958 0 12736
0.10950000 0.10950300 15838.22924206 0 45.30243758 0 5696.31674944 0 -46.63526672 0 520.18046423 0 12933
0.11050000 0.11050200 15993.06235146 0 95.15781151 0 5645.56343221 0 686.35986811 0 -176.25908366 0 13428
0.11150000 0.11150900 15710.79138913 0 239.44230532 0 6419.11896336 0 -524.79218392 0 992.63218063 0 13453
0.11250000 0.11250000 15601.32127525 0 216.36374271 0 5422.81892389 0 -2.50970495 0 -154.74105246 0 13668
0.11350000 0.11349100 15292.76417615 0 97.76047179 0 6684.80858625 0 -80.45920276 0 594.10772837 0 13791
0.11450000 0.11448600 15086.91156079 0 286.56214643 0 5781.36404764 0 129.18915293 0 -576.34184910 0 14205
0.11550000 0.11549300 14846.89805883 0 297.21856846 0 6169.01247218 0 -2.56987470 0 -226.79390432 0 14776
0.11650000 0.11649800 14397.81549440 0 150.52196114 0 5554.02778379 0 7.32627905 0 -903.50110372 0 14553
0.11750000 0.11747300 14333.70837604 0 151.61777140 0 5854.76558904 0 306.16916440 0 -626.27330864 0 14568
0.11850000 0.11849100 13913.35201170 0 96.92297551 0 5452.75406446 0 507.60304689 0 -673.63161049 0 16015
0.11950000 0.11950300 13760.51531775 0 42.38101631 0 4334.98323602 0 669.13523925 0 -1221.38479033 0 15270
0.12050000 0.12050700 13904.81179005 0 -158.67953650 0 4152.24467510 0 863.93436773 0 -666.37574944 0 15999
0.12150000 0.12150000 13787.57783830 0 85.08822472 0 3671.09746029 0 376.27662031 0 -709.63696314 0 15670
0.12250000 0.12250700 13739.55295552 0 80.17670997 0 3002.03209558 0 -9.53052135 0 -158.28912637 0 16887
0.12350000 0.12352200 13689.19892137 0 0.82939194 0 3189.35132084 0 272.35654138 0 -296.16712299 0 16407
0.12450000 0.12449800 13643.39227798 0 -54.75613021 0 2532.48627278 0 525.43769158 0 91.65842796 0 16306
0.12550000 0.12549900 13570.41220206 0 99.59495576 0 2851.76855933 0 310.32170853 0 261.49604133 0 17523
0.12650000 0.12650100 13480.01894693 0 360.05574477 0 3021.39732545 0 -474.92283508 0 837.87670962 0 17154
0.12750000 0.12750600 12964.94376066 0 295.47392318 0 2887.98131736 0 27.97244235 0 788.25025799 0 18007
0.12850000 0.12850300 12947.86331736 0 194.43533722 0 3950.89508570 0 -125.63220607 0 935.38496759 0 17496
0.12950000 0.12949900 12554.45856160 0 240.14215984 0 3584.07592903 0 -440.36599275 0 656.74415401 0 18405
0.13050000 0.13049000 12255.10715597 0 246.22900873 0 4410.52537843 0 -436.94214025 0 316.94648047 0 18100
0.13150000 0.13148800 12281.28238077 0 61.37546746 0 4488.58522255 0 -267.59509053 0 242.78297384 0 19059
0.13250000 0.13249300 11948.87920823 0 100.37533238 0 4496.19378366 0 223.70389685 0 -433.17113329 0 18957
0.13350000 0.13349100 12080.08806813 0 87.26831039 0 4398.53579453 0 -44.58483714 0 -58.59934087 0 19468
0.13450000 0.13450700 12022.41384400 0 12.47781839 0 4691.68722107 0 212.51953384 0 -320.37255121 0 19953
0.13550000 0.13551000 11770.31093736 0 98.67105906 0 4206.82445528 0 238.66924889 0 2.17762343 0 19956
0.13650000 0.13649900 11993.02217208 0 -27.98541905 0 4181.99126531 0 457.28117722 0 426.28460911 0 19723
0.13750000 0.13749600 11752.67593421 0 -59.32182144 0 3849.69900474 0 386.59586995 0 -222.03023523 0 20946
0.13850000 0.13851100 12244.34869493 0 44.11168668 0 3326.49397110 0 279.15433599 0 726.05969846 0 20955
0.13950000 0.13949800 11659.50987985 0 43.40362467 0 3529.87324954 0 328.36597685 0 -0.53230092 0 20506
0.14050000 0.14048300 11769.31272964 0 211.86737146 0 3033.06526464 0 -324.42638369 0 588.34917891 0 21447
0.14150000 0.14148400 11410.29068442 0 254.44758567 0 3367.19866390 0 -102.72910620 0 -124.47206687 0 21771
0.14250000 0.14249400 11074.07214013 0 348.35342287 0 3558.03379860 0 -455.62082503 0 -510.65534429 0 22470
0.14350000 0.14350900 10738.85180357 0 115.12329696 0 3531.27074036 0 254.04719346 0 -124.16594984 0 22519
0.14450000 0.14449900 10599.23581639 0 -49.93966703 0 3342.46529471 0 292.69557834 0 -104.44003424 0 22218
0.14550000 0.14550500 10795.42799920 0 -17.03574578 0 2994.95591193 0 694.33998431 0 -14.23000568 0 23559
0.14650000 0.14650700 10690.97110635 0 22.36872601 0 2605.68817264 0 353.80363705 0 360.33413381 0 23044
0.14750000 0.14750500 10725.20963133 0 -23.34741322 0 2341.89514442 0 311.22785932 0 951.87425009 0 23649
0.14850000 0.14849900 10751.66213605 0 17.15519797 0 2596.28283762 0 15.43195870 0 557.86169674 0 23640
0.14950000 0.14949500 10788.04126204 0 83.27414854 0 2394.25668521 0 -417.50925408 0 673.97987407 0 24457
0.15050000 0.15050000 10609.71699750 0 128.72443178 0 2696.71362599 0 26.26949997 0 691.94539489 0 24591
0.15150000 0.15149900 10479.04051506 0 97.74217131 0 2682.40598193 0 -5.54392370 0 601.78949138 0 25020
0.15250000 0.15250500 10582.25519386 0 32.28514337 0 2626.11815742 0 149.77996007 0 681.06493068 0 25297
0.15350000 0.15350100 10306.05111626 0 124.86691348 0 2571.13909414 0 78.61573491 0 329.05141282 0 25452
0.15450000 0.15450400 10216.83352801 0 92.75146542 0 2279.66243834 0 421.07174654 0 595.53960190 0 26061
0.15550000 0.15549900 10134.01556039 0 29.90308700 0 1946.41633484 0 13.44119976 0 180.55581336 0 26128
0.15650000 0.15649500 9989.60817613 0 208.59103189 0 2235.97421356 0 24.20021536 0 344.88853294 0 26331
0.15750000 0.15749700 9660.09980599 0 212.92768989 0 1906.35493146 0 -234.54665098 0 7.56005930 0 27345
0.15850000 0.15849900 9444.43148134 0 138.68321752 0 1984.74751149 0 160.91552180 0 525.49092933 0 26980
0.15950000 0.15949700 9360.74840036 0 52.58513932 0 1667.71673792 0 162.65905796 0 -172.69548208 0 27777
0.16050000 0.16050000 9327.68554226 0 -13.11356580 0 1847.15012215 0 194.55623127 0 -186.18459581 0 28224
0.16150000 0.16150500 9226.00144864 0 214.31408951 0 1676.65624266 0 -308.01252133 0 -216.06206215 0 28075
0.16250000 0.16249700 8975.12966487 0 266.81648850 0 2104.27734100 0 -558.51275000 0 -764.28661786 0 28590
0.16350000 0.16349900 8602.35453544 0 158.65513587 0 2200.90384881 0 -182.11190829 0 -448.07437463 0 29163
0.16450000 0.16449100 8497.46508590 0 99.62490200 0 2425.43403983 0 191.90321696 0 -868.64036259 0 28996
0.16550000 0.16550500 8523.55158112 0 -20.01439763 0 2425.96641729 0 309.93351664 0 -348.11607125 0 30777
0.16650000 0.16650700 8483.55672492 0 26.94650663 0 2185.28744351 0 275.10493998 0 -422.86741133 0 29211
0.16750000 0.16749900 8395.42607397 0 153.83601079 0 2232.23648019 0 40.60953033 0 454.28988140 0 30922
0.16850000 0.16850800 8340.34718993 0 149.75112296 0 2225.81467716 0 41.30328470 0 592.45070355 0 30867
0.16950000 0.16949900 8080.30298628 0 78.38825446 0 2622.45806242 0 253.37063044 0 1283.11839255 0 30852
0.17050000 0.17049200 8085.28293371 0 14.79011113 0 2373.71578846 0 301.48867928 0 1118.46957385 0 31257
0.17150000 0.17149500 8090.02996600 0 9.77226508 0 2499.55650904 0 -27.88138362 0 1240.08454839 0 32608
0.17250000 0.17250900 8104.40415725 0 110.18150325 0 2423.03834129 0 43.62611408 0 1469.53923085 0 32361
0.17350000 0.17350400 7974.24896106 0 138.08651113 0 2389.27673778 0 -262.40441036 0 1328.27065532 0 32508
0.17450000 0.17449800 7816.78723799 0 69.97036872 0 2532.83009988 0 -91.07924566 0 1152.26445095 0 32791
0.17550000 0.17549800 7857.56956917 0 3.12130683 0 2552.98280474 0 245.25631076 0 719.12548213 0 33633
0.17650000 0.17650100 7749.71877004 0 130.24725312 0 2419.83298538 0 -54.61172283 0 957.42761240 0 33984
0.17750000 0.17750300 7600.20943518 0 82.92022845 0 2198.03122880 0 86.46752597 0 695.76298488 0 34069
0.17850000 0.17849800 7565.87108943 0 66.61162154 0 2373.33868777 0 -0.73828331 0 599.45590354 0 34536
