### header ###
fiducial parameters:
Omega_m = 0.31
Omega_nu = 0
Omega_de = 0.69
Omega_k = 0
H_0 = 100
w_de = -1
zeff = 0
beta = 0
fgrowth = 0
b_1 = 2
gamma = 0.55
Lx = 3500 Ly = 3500 Lz = 3500
nx = 700 ny = 700 nz = 700
xoffset = 1379.75464 yoffset = 22.6059522 zoffset = 368.141391
bins = 400 dk = 0.001
kx_ny = 0.628318531 ky_ny = 0.628318531 kz_ny = 0.628318531
############################
A(data) = 3.30783188 (not used)
A(ran) = 3.30816912 (used)
Ngal = 185977
weighted Ngal = 0
Nran = 9399747
weighted Nran = 0
SN(data) = 6647.12399
SN(ran) = 131.583693
SN(data+ran) = 6778.70768
############################
13 columns: k_central k_mean P_0(k) sigma^{lin}_{P_0(k)} P^img_1(k) sigma^{lin}_{P_1(k)} P_2(k) sigma^{lin}_{P_2(k)} P^img_3(k) sigma^{lin}_{P_3(k)} P_4(k) sigma^{lin}_{P_4(k)} N_modes
### header ###
0.00050000 0 0 0 0 0 0 0 0 0 0 0 0
0.00150000 0.00179520 17659.73651687 0 -11724.94794184 0 -30420.60225368 0 28427.40325011 0 298.69369765 0 3
0.00250000 0.00253879 31801.34536176 0 -7332.57885282 0 3096.34054323 0 -32868.76215606 0 -4368.70047474 0 6
0.00350000 0.00331552 28636.47231259 0 1565.67772600 0 -8131.13394189 0 -13927.21600788 0 16408.31676520 0 7
0.00450000 0.00420575 30392.31970146 0 -2751.42650054 0 1878.59366550 0 -7157.39339702 0 11687.01604828 0 24
0.00550000 0.00557378 51105.24091423 0 -16280.65708833 0 -12555.56768130 0 5942.64114246 0 2155.55194449 0 45
0.00650000 0.00659388 62117.80127609 0 -9556.65221206 0 -27905.34060976 0 9756.38248670 0 -33465.46855187 0 40
0.00750000 0.00754703 87520.19147055 0 -12038.16334366 0 -18171.70616800 0 -25403.72113809 0 6430.36543706 0 57
0.00850000 0.00846663 82930.87599731 0 -3083.20856605 0 -9728.74322391 0 -18493.23996753 0 -23877.35061407 0 75
0.00950000 0.00948925 98947.22986236 0 2770.25935295 0 2779.83105592 0 -16240.39604340 0 -8793.60004441 0 112
0.01050000 0.01054430 93107.60375715 0 1685.01900516 0 25168.47685082 0 -22631.80919679 0 -16037.98169910 0 105
0.01150000 0.01145670 83575.60727591 0 8275.45259658 0 37425.35859830 0 -9462.22176124 0 -22995.60045669 0 144
0.01250000 0.01249090 87375.45135037 0 3843.80957916 0 49260.22030190 0 -351.81498544 0 -2925.20337432 0 169
0.01350000 0.01339930 78301.96495097 0 -484.54444844 0 43295.15275920 0 17800.92745402 0 -5767.87715215 0 180
0.01450000 0.01448870 93433.35221152 0 -11867.24799869 0 26198.07266352 0 34989.06627665 0 28484.07926652 0 267
0.01550000 0.01550050 87650.73485863 0 -6811.79170011 0 14267.16119435 0 24936.33809869 0 -25579.07296184 0 238
0.01650000 0.01653350 110299.18085084 0 4762.99252625 0 4953.38401306 0 -14536.12272034 0 12600.70885288 0 315
0.01750000 0.01747870 91043.31018115 0 6899.10160249 0 8662.94574436 0 -19894.61270194 0 -10515.58600900 0 297
0.01850000 0.01844180 83141.16509145 0 15864.51537883 0 49295.15757228 0 -31280.17001716 0 -21.38227495 0 388
0.01950000 0.01947590 75230.81251601 0 4225.66839889 0 38213.60996541 0 -388.94387634 0 -26629.52022480 0 399
0.02050000 0.02045430 72756.36647686 0 -2939.68847754 0 52112.98706895 0 4772.55313802 0 -23475.29472470 0 462
0.02150000 0.02154770 73020.22605226 0 4633.36970751 0 50924.56531595 0 -4050.23893676 0 -34595.43969696 0 571
0.02250000 0.02255340 69813.09554271 0 4813.43528997 0 50978.80126902 0 -1791.80504938 0 -25806.77523519 0 510
0.02350000 0.02348930 67699.33522832 0 -1103.30347114 0 56182.01449334 0 8588.23544172 0 -16609.95472572 0 555
0.02450000 0.02439640 67924.59743834 0 -1230.81230774 0 44798.67541750 0 7238.61423227 0 -28640.68696743 0 592
0.02550000 0.02547300 67689.68588697 0 3747.14979776 0 45803.75968495 0 5871.26929010 0 -18383.21529380 0 837
0.02650000 0.02652900 63614.55830426 0 3409.07902358 0 41511.02281811 0 1323.86745013 0 -11339.30702395 0 723
0.02750000 0.02749970 57315.31299751 0 1508.59133531 0 40505.60581476 0 10810.91131014 0 -5582.46561277 0 826
0.02850000 0.02848090 58593.79526973 0 1779.23872324 0 35910.19018320 0 6556.61653193 0 -5335.80848384 0 831
0.02950000 0.02946900 50246.89318241 0 2405.96898919 0 29207.44713148 0 6937.56587351 0 3294.18531439 0 996
0.03050000 0.03053250 49144.87185364 0 1826.97523490 0 22781.09670771 0 6319.27600843 0 9488.03097654 0 1041
0.03150000 0.03150510 48631.68217084 0 -1890.45015504 0 21878.27327612 0 12360.58443895 0 8021.99656392 0 1036
0.03250000 0.03246190 51388.84282020 0 -2083.91390340 0 8809.74882717 0 4698.00920333 0 11037.16063669 0 1059
0.03350000 0.03345080 50295.02897717 0 -869.41785550 0 10101.10797905 0 5492.62691749 0 10728.50371682 0 1302
0.03450000 0.03451200 51553.54709488 0 1179.04969158 0 7465.56230423 0 -2496.51752108 0 6544.00584100 0 1339
0.03550000 0.03553350 52098.34668898 0 1072.68067637 0 7157.54867378 0 -6426.07314385 0 4385.96946839 0 1365
0.03650000 0.03647120 47283.43626982 0 2993.05931725 0 18977.48162629 0 -5161.84305970 0 -1816.57169216 0 1308
0.03750000 0.03744890 47417.63975289 0 1752.68639774 0 15608.41964129 0 -5097.34774945 0 2900.47000513 0 1579
0.03850000 0.03847530 47039.54084892 0 -1283.66186120 0 18886.75563525 0 3409.02356760 0 -2299.98151115 0 1662
0.03950000 0.03950240 47182.28455365 0 404.59466435 0 17664.61664353 0 3380.67446820 0 -3002.30937551 0 1683
0.04050000 0.04050350 47683.38483177 0 -85.17517970 0 15867.84273791 0 3749.92259700 0 -1309.50435009 0 1822
0.04150000 0.04152450 45864.09579635 0 976.15066197 0 13693.19175228 0 1759.23020394 0 4185.72899868 0 1887
0.04250000 0.04250150 45647.26289601 0 -56.13787153 0 11683.24504132 0 2667.72123717 0 -67.99369560 0 1920
0.04350000 0.04349210 44232.69163724 0 946.17115662 0 12748.11086032 0 -417.72442330 0 -438.46939807 0 2005
0.04450000 0.04448520 43024.19481776 0 1700.05866822 0 10416.75235300 0 -1484.05760766 0 -4933.43094975 0 2151
0.04550000 0.04548030 41490.17136785 0 2.90878840 0 8746.72864611 0 1417.73224991 0 -2821.53395645 0 2274
0.04650000 0.04648670 41171.07763165 0 9.80550540 0 8103.01775763 0 -157.48501459 0 -7447.55020038 0 2311
0.04750000 0.04749250 40069.38903878 0 797.96725564 0 7510.94748214 0 -2871.28906596 0 -13163.91983391 0 2568
0.04850000 0.04851840 38583.50138363 0 1511.53050250 0 6863.94250816 0 -1366.43546402 0 -11573.22036759 0 2493
0.04950000 0.04949480 36778.07634440 0 1309.57089727 0 9920.63202231 0 -881.83001400 0 -15201.26180133 0 2644
0.05050000 0.05050630 36230.50395106 0 -84.35143650 0 7150.53903731 0 1614.06861828 0 -8077.05326557 0 2829
0.05150000 0.05149060 35590.98553503 0 288.32453763 0 7820.70243051 0 5578.84988256 0 -8849.51076823 0 2784
0.05250000 0.05249300 35896.99165883 0 -57.59802761 0 4372.41602572 0 2308.86555991 0 -1580.55102111 0 3055
0.05350000 0.05348950 35643.33598463 0 -155.05826070 0 4387.04531449 0 5251.71502857 0 -112.58341286 0 3009
0.05450000 0.05448610 35576.89971491 0 -476.78061057 0 194.15251170 0 2325.42471695 0 7257.51363187 0 3336
0.05550000 0.05550870 35525.88020894 0 120.61454857 0 1825.34482895 0 688.61249021 0 8631.70184256 0 3349
0.05650000 0.05647670 35425.50487656 0 1220.05384670 0 2027.03824545 0 -2355.31549273 0 6033.25622153 0 3324
0.05750000 0.05747970 33762.04715827 0 2023.67761278 0 5305.50733377 0 -3738.18811063 0 8259.28163143 0 3639
0.05850000 0.05849280 31608.46944683 0 1750.26851681 0 9458.92767575 0 -3944.70619780 0 3950.72871774 0 3846
0.05950000 0.05951020 30499.01701610 0 1055.67232585 0 13867.65628027 0 -2172.02237196 0 3922.05797363 0 3787
0.06050000 0.06049470 29674.38652300 0 319.76808097 0 13549.00619195 0 278.43895379 0 2771.14664871 0 3930
0.06150000 0.06148310 30003.01868858 0 -574.85008311 0 15685.72528402 0 1495.28189897 0 5468.10428103 0 4083
0.06250000 0.06249100 30621.79656632 0 -417.07780652 0 13124.65699671 0 2358.89794934 0 2367.52690057 0 4303
0.06350000 0.06350600 31083.63400724 0 377.51772524 0 14886.49363193 0 -1288.25361673 0 2543.31128100 0 4470
0.06450000 0.06451750 30445.89018272 0 692.33247766 0 13378.64540682 0 -2424.95711837 0 53.41420629 0 4479
0.06550000 0.06550280 30680.35808620 0 224.40264225 0 16870.48694203 0 941.31099412 0 2887.46003111 0 4636
0.06650000 0.06648880 29311.14982295 0 11.95686487 0 13830.72259443 0 -1155.20361814 0 -2592.07927398 0 4653
0.06750000 0.06749660 30094.52106340 0 572.59857013 0 15468.67055975 0 1450.73965202 0 -890.17392147 0 5220
0.06850000 0.06852730 29100.52799290 0 563.41838641 0 14454.26968686 0 253.75216762 0 -3465.15611535 0 5029
0.06950000 0.06949320 27774.35357380 0 628.23866874 0 14293.44733111 0 1642.40662649 0 369.03406870 0 5040
0.07050000 0.07048030 27237.87237741 0 227.93075200 0 13418.57371584 0 2091.34500536 0 1225.83236031 0 5475
0.07150000 0.07148790 27425.20269387 0 9.57837987 0 11181.70111532 0 1814.05399046 0 -298.83344674 0 5509
0.07250000 0.07249820 26309.42828088 0 809.11834505 0 10974.86138343 0 111.62846081 0 1657.27992159 0 5916
0.07350000 0.07351270 25687.87760390 0 614.30147065 0 10894.17292563 0 -316.35421055 0 539.65106047 0 5721
0.07450000 0.07449140 24644.97235486 0 201.45606489 0 9935.54968220 0 653.15837004 0 1943.74335637 0 6028
0.07550000 0.07549160 24871.67642048 0 35.57102138 0 11617.80697932 0 719.47929131 0 1260.93599865 0 6183
0.07650000 0.07648840 24547.14799778 0 -196.43064355 0 7996.06534546 0 1496.66829859 0 -169.45241609 0 6330
0.07750000 0.07749960 25138.97426693 0 -289.96603477 0 9362.41207990 0 1352.74892699 0 2456.07901700 0 6583
0.07850000 0.07848650 24844.94663584 0 516.78655796 0 7562.52154795 0 -609.92155698 0 -1155.99109313 0 6549
0.07950000 0.07947320 24667.48748466 0 319.15917426 0 8427.77909547 0 -179.41674743 0 2763.50481401 0 6828
0.08050000 0.08048110 24278.40829572 0 -130.43136699 0 7168.07421968 0 363.24557301 0 -349.32833908 0 7147
0.08150000 0.08149960 24454.20376735 0 -388.35715202 0 7196.26804232 0 1263.01005248 0 -447.71723809 0 7386
0.08250000 0.08250610 24867.35085367 0 390.43342409 0 6711.56055329 0 129.79029581 0 -1108.85794257 0 7227
0.08350000 0.08350160 23628.46415455 0 856.29364215 0 5909.74465232 0 -1136.49276889 0 -2360.72799684 0 7798
0.08450000 0.08449610 22534.65031152 0 830.62750329 0 7543.97706665 0 -383.64117508 0 -399.57035214 0 7371
0.08550000 0.08548940 21743.73705714 0 573.65445208 0 6800.12376092 0 805.49263277 0 -1590.84365187 0 8256
0.08650000 0.08650700 21246.51869795 0 109.68983049 0 7243.88255082 0 580.82602002 0 575.29594923 0 8037
0.08750000 0.08749060 21065.73218770 0 129.06493153 0 6466.87765742 0 1063.59033135 0 -1353.44767239 0 8155
0.08850000 0.08849210 21075.15970510 0 -43.16427664 0 6028.32063889 0 385.23498008 0 1442.02197122 0 8718
0.08950000 0.08949900 20730.33439198 0 55.49180931 0 5685.70247396 0 40.83856355 0 -112.86512926 0 8571
0.09050000 0.09049190 21037.44963548 0 229.32824282 0 6338.10886085 0 459.44396062 0 1202.15265482 0 8932
0.09150000 0.09150830 20337.04054820 0 377.91811745 0 5138.98410279 0 -353.88349367 0 805.62794537 0 9285
0.09250000 0.09250820 20280.03179589 0 521.47258868 0 6177.86324734 0 487.59674584 0 1402.94768437 0 9204
0.09350000 0.09350330 19237.01563488 0 368.33865065 0 6911.62356385 0 -17.66827674 0 2212.00613696 0 9349
0.09450000 0.09448040 18835.84704126 0 548.95435647 0 6657.61297134 0 22.58189881 0 1606.23823324 0 9564
0.09550000 0.09549270 18176.47538269 0 219.00122934 0 6891.95887166 0 743.39191193 0 2876.41319895 0 10155
0.09650000 0.09649430 18118.69024659 0 158.59635252 0 6287.44427319 0 205.87147039 0 2503.01696249 0 9913
0.09750000 0.09749140 17475.51173556 0 104.87092724 0 5890.34614885 0 689.36003688 0 3302.24861458 0 10476
0.09850000 0.09850240 17911.72851153 0 88.48057821 0 5323.46398163 0 659.40049568 0 2092.01047718 0 10575
0.09950000 0.09950330 17083.21609950 0 99.52186478 0 5035.29250252 0 -250.28949593 0 1731.74621790 0 10882
0.10050000 0.10051200 17188.36064657 0 521.60235568 0 5264.07062197 0 -595.39763457 0 877.67303339 0 10875
0.10150000 0.10150300 16482.51687278 0 456.07667323 0 5778.93507551 0 -1173.09371882 0 306.05381595 0 11118
0.10250000 0.10250800 15892.35428317 0 296.95348885 0 6133.38754758 0 100.15084656 0 292.70445130 0 11575
0.10350000 0.10349800 16109.63083138 0 -137.05835717 0 5580.46919732 0 596.58772001 0 -962.49628941 0 11364
0.10450000 0.10450100 16161.53763310 0 -159.57348697 0 5453.97409612 0 934.71949577 0 161.15509166 0 12093
0.10550000 0.10551000 16218.99003329 0 176.50641735 0 4858.84265027 0 253.23420872 0 -235.60807853 0 12067
0.10650000 0.10649700 16076.68997645 0 20.46447840 0 4581.09689630 0 673.03157673 0 1304.90150335 0 12054
0.10750000 0.10749900 15609.97240887 0 353.93894965 0 4972.95997567 0 -450.70520655 0 879.46093433 0 12807
0.10850000 0.10850100 15536.54868507 0 467.32092870 0 4610.18910589 0 -564.33341016 0 250.28284121 0 12736
0.10950000 0.10950300 14665.44607676 0 467.31094662 0 6368.70947323 0 -739.12623759 0 269.66581700 0 12933
0.11050000 0.11050200 14489.65060513 0 374.98227762 0 6128.58505930 0 -713.67970443 0 -76.20672694 0 13428
0.11150000 0.11150900 14065.52323383 0 159.94947855 0 7065.60265108 0 -12.81909452 0 -783.54648136 0 13453
0.11250000 0.11250000 14032.02781904 0 -39.39837162 0 6475.25151111 0 343.19712541 0 -921.93023657 0 13668
0.11350000 0.11349100 14019.82750240 0 -109.30052948 0 6660.79614486 0 179.58866099 0 -1560.68668737 0 13791
0.11450000 0.11448600 14131.95950355 0 22.23463343 0 6172.98312068 0 173.66596182 0 -1748.03918622 0 14205
0.11550000 0.11549300 14400.47738166 0 -173.84342097 0 6123.42765272 0 500.29505722 0 -1172.88298608 0 14776
0.11650000 0.11649800 14162.01664728 0 232.88962616 0 5511.43758751 0 85.57424097 0 -1806.45652055 0 14553
0.11750000 0.11747300 14235.10763517 0 89.74564014 0 5879.11076634 0 82.19918973 0 -1205.11400441 0 14568
0.11850000 0.11849100 13813.08759129 0 226.86710622 0 5756.17593937 0 -100.69986080 0 -1697.54096652 0 16015
0.11950000 0.11950300 13836.82275276 0 103.44526478 0 5910.83158962 0 -209.58258489 0 -1332.49640136 0 15270
0.12050000 0.12050700 13515.62168913 0 -112.13865586 0 5564.56442089 0 653.31919240 0 -1015.74734419 0 15999
0.12150000 0.12150000 13970.02802810 0 -25.96526844 0 5154.02376585 0 1080.08737769 0 -1359.08200044 0 15670
0.12250000 0.12250700 13857.45237908 0 -171.23920792 0 4133.83328816 0 829.58493078 0 -257.50099219 0 16887
0.12350000 0.12352200 13819.07683764 0 136.64354640 0 3989.84736938 0 512.65397798 0 -635.09968317 0 16407
0.12450000 0.12449800 13443.86164488 0 488.21896199 0 3703.43939059 0 -282.84326809 0 350.55613458 0 16306
0.12550000 0.12549900 12683.33827014 0 572.89137773 0 4266.92765154 0 -622.57994006 0 -324.14244905 0 17523
0.12650000 0.12650100 12210.74236818 0 202.94783088 0 4340.00754823 0 94.41869415 0 502.50664189 0 17154
0.12750000 0.12750600 12228.15554738 0 -42.18570033 0 4406.67673309 0 499.92128389 0 -195.17955654 0 18007
0.12850000 0.12850300 12326.86720022 0 -177.59113642 0 3666.47243116 0 602.67567801 0 3.92028338 0 17496
0.12950000 0.12949900 12178.13424915 0 56.86844867 0 3454.73039022 0 263.68544361 0 -209.19993860 0 18405
0.13050000 0.13049000 12444.65571181 0 80.80491537 0 2793.83923767 0 -38.62797708 0 601.57321304 0 18100
0.13150000 0.13148800 12020.63925248 0 45.34225498 0 3189.36241204 0 513.36603283 0 678.74132492 0 19059
0.13250000 0.13249300 12214.73519908 0 85.78297729 0 3022.01843248 0 211.19413581 0 962.02713178 0 18957
0.13350000 0.13349100 12050.69639621 0 115.79653262 0 2739.72528776 0 439.72492157 0 1536.27496289 0 19468
0.13450000 0.13450700 11719.51325534 0 138.61556122 0 2984.19745089 0 19.08928089 0 1363.45193204 0 19953
0.13550000 0.13551000 11600.17197618 0 186.27554363 0 3007.22277575 0 -126.74576225 0 1813.12232991 0 19956
0.13650000 0.13649900 11435.57861346 0 96.86962685 0 3149.26773507 0 5.03928533 0 1978.20370529 0 19723
0.13750000 0.13749600 11498.02205228 0 88.72325360 0 3073.39285675 0 -66.57202597 0 1248.12566617 0 20946
0.13850000 0.13851100 11644.64767594 0 -130.00768327 0 3111.32475031 0 316.12573190 0 1601.30265060 0 20955
0.13950000 0.13949800 11420.49458562 0 20.37752342 0 2775.62749228 0 -92.48061839 0 472.49053559 0 20506
0.14050000 0.14048300 11316.45915824 0 325.02087185 0 2970.05617478 0 -280.70266708 0 866.43654176 0 21447
0.14150000 0.14148400 10969.11614341 0 386.40399224 0 3063.11131718 0 -478.05166174 0 397.85010749 0 21771
0.14250000 0.14249400 10602.24153076 0 139.46071043 0 3429.56446434 0 -80.78539486 0 -11.79615343 0 22470
0.14350000 0.14350900 10293.99498518 0 145.97457039 0 3493.82685946 0 462.85672192 0 -17.76732113 0 22519
0.14450000 0.14449900 10121.93724692 0 234.29820817 0 3032.86562310 0 -11.72272970 0 -38.66369074 0 22218
0.14550000 0.14550500 10053.09418746 0 -92.38845055 0 2651.08444175 0 535.65490221 0 40.64424578 0 23559
0.14650000 0.14650700 9942.43731551 0 -76.68420296 0 2438.07800436 0 272.35099578 0 -551.95785261 0 23044
0.14750000 0.14750500 9952.51921353 0 70.78368619 0 1946.41633484 0 -254.41431208 0 -571.33195544 0 23649
0.14850000 0.14849900 10033.07457697 0 137.58962550 0 2123.70911805 0 -327.74486982 0 -1303.14909423 0 23640
0.14950000 0.14949500 9860.11845176 0 -11.35450196 0 2213.10416546 0 -81.81388155 0 -1117.09426543 0 24457
0.15050000 0.15050000 9712.53898516 0 -9.70686029 0 2016.83434426 0 6.05508370 0 -1786.96928751 0 24591
0.15150000 0.15149900 10203.05826140 0 -111.92348664 0 1975.91891872 0 273.41464157 0 -1474.45263110 0 25020
0.15250000 0.15250500 10024.75617926 0 127.81384451 0 2018.37602064 0 -134.02602392 0 -2040.23676982 0 25297
0.15350000 0.15350100 9869.66797233 0 344.52141432 0 2375.63456554 0 -458.12078083 0 -1097.36524430 0 25452
0.15450000 0.15450400 9476.47394932 0 311.37093577 0 2843.76071513 0 -88.59570484 0 -973.49986590 0 26061
0.15550000 0.15549900 9397.67099500 0 41.01735364 0 2826.64699824 0 299.02643356 0 -467.53498880 0 26128
0.15650000 0.15649500 9306.56790327 0 26.73422112 0 3013.93294991 0 442.59532334 0 1.30188470 0 26331
0.15750000 0.15749700 9139.14628534 0 106.02529902 0 2665.51408898 0 123.11450436 0 162.09784340 0 27345
0.15850000 0.15849900 9045.51440070 0 108.35921959 0 3052.91850718 0 59.47931643 0 652.06699626 0 26980
0.15950000 0.15949700 9048.42029430 0 84.73497009 0 2815.92181079 0 43.74124070 0 682.45133030 0 27777
0.16050000 0.16050000 8844.61955038 0 -10.63325252 0 3094.39958377 0 71.54254588 0 784.75098535 0 28224
0.16150000 0.16150500 8932.46183021 0 36.38223153 0 2434.73955407 0 440.97600858 0 983.59396424 0 28075
0.16250000 0.16249700 8994.50598593 0 17.09630371 0 2649.88659248 0 196.99185812 0 1081.09445837 0 28590
0.16350000 0.16349900 8759.02878353 0 91.43627129 0 2301.07953965 0 198.39489453 0 1081.55696129 0 29163
0.16450000 0.16449100 8711.05935672 0 275.23248875 0 2813.07137317 0 -212.24114480 0 1177.35273845 0 28996
0.16550000 0.16550500 8376.47121839 0 177.26727346 0 2445.48692392 0 -432.93932728 0 697.59968709 0 30777
0.16650000 0.16650700 8194.36485569 0 76.65592041 0 3053.36215506 0 46.55651922 0 944.56847866 0 29211
0.16750000 0.16749900 8181.12196654 0 -4.05342211 0 2379.28356933 0 325.97693303 0 470.86789348 0 30922
0.16850000 0.16850800 8276.75026663 0 -34.01625739 0 2740.42403316 0 -71.21091909 0 181.53072957 0 30867
0.16950000 0.16949900 8165.48337884 0 165.43185720 0 2407.08920008 0 -201.60468693 0 -54.51944407 0 30852
0.17050000 0.17049200 7997.49610986 0 170.57595435 0 2840.17825852 0 -403.52769121 0 -422.47034648 0 31257
0.17150000 0.17149500 7933.22262355 0 24.12845531 0 2660.15704085 0 -205.00524791 0 -738.46631137 0 32608
0.17250000 0.17250900 7918.46024041 0 7.36785995 0 2794.73762462 0 323.15533252 0 -628.95183270 0 32361
0.17350000 0.17350400 7922.15360899 0 -30.49446963 0 2582.97340129 0 242.84175718 0 -859.60547356 0 32508
0.17450000 0.17449800 7977.23249304 0 50.87044027 0 2341.00784866 0 277.99974239 0 -661.30707244 0 32791
0.17550000 0.17549800 7788.48250337 0 95.97578729 0 2255.53908498 0 310.38160100 0 58.23532778 0 33633
0.17650000 0.17650100 7736.37606011 0 39.95648065 0 2195.70207745 0 210.42218850 0 290.96646074 0 33984
0.17750000 0.17750300 7715.60224823 0 59.43373161 0 2063.87211052 0 78.50393565 0 278.76614410 0 34069
0.17850000 0.17849800 7583.62809574 0 144.81332207 0 2198.69670062 0 -207.18134075 0 350.93545352 0 34536
