### header ###
fiducial parameters:
Omega_m = 0.31
Omega_nu = 0
Omega_de = 0.69
Omega_k = 0
H_0 = 100
w_de = -1
zeff = 0
beta = 0
fgrowth = 0
b_1 = 2
gamma = 0.55
Lx = 3500 Ly = 3500 Lz = 3500
nx = 700 ny = 700 nz = 700
xoffset = 1379.75464 yoffset = 22.6059522 zoffset = 368.141391
bins = 400 dk = 0.001
kx_ny = 0.628318531 ky_ny = 0.628318531 kz_ny = 0.628318531
############################
A(data) = 3.31986805 (not used)
A(ran) = 3.31653978 (used)
Ngal = 186429
weighted Ngal = 0
Nran = 9399747
weighted Nran = 0
SN(data) = 6682.01127
SN(ran) = 131.916639
SN(data+ran) = 6813.92791
############################
13 columns: k_central k_mean P_0(k) sigma^{lin}_{P_0(k)} P^img_1(k) sigma^{lin}_{P_1(k)} P_2(k) sigma^{lin}_{P_2(k)} P^img_3(k) sigma^{lin}_{P_3(k)} P_4(k) sigma^{lin}_{P_4(k)} N_modes
### header ###
0.00050000 0 0 0 0 0 0 0 0 0 0 0 0
0.00150000 0.00179520 -3951.34982477 0 -5178.89022941 0 -5192.59894884 0 -5030.36801108 0 -17105.39849340 0 3
0.00250000 0.00253879 4482.14123712 0 -13178.33838994 0 -6801.21069823 0 4252.27618037 0 10977.05744043 0 6
0.00350000 0.00331552 11722.95152639 0 -14417.11417709 0 -17645.53978477 0 2649.90877487 0 -19495.88417165 0 7
0.00450000 0.00420575 21719.78007173 0 -3895.42800976 0 -7625.58609380 0 -7134.01315385 0 7331.11481482 0 24
0.00550000 0.00557378 48447.56830150 0 -22140.35826001 0 -35222.09232453 0 14133.06862324 0 8018.54720167 0 45
0.00650000 0.00659388 38099.03790093 0 -1852.25207275 0 -15853.20235794 0 -9295.36579435 0 -15775.34215537 0 40
0.00750000 0.00754703 70339.70557381 0 2090.29134165 0 -43982.25241015 0 -32680.54454385 0 -10942.64145630 0 57
0.00850000 0.00846663 53328.13860660 0 1150.36785627 0 -5394.37000372 0 -12446.09756742 0 611.26581005 0 75
0.00950000 0.00948925 60810.81462771 0 283.48323016 0 -8029.43875707 0 -2156.39487546 0 604.02104020 0 112
0.01050000 0.01054430 57463.26956480 0 -10113.33047809 0 -10691.75858133 0 2550.45401183 0 -3688.52173069 0 105
0.01150000 0.01145670 69788.58399745 0 -3096.08544570 0 -10703.68161805 0 303.21446953 0 -16101.42334564 0 144
0.01250000 0.01249090 71741.07830822 0 44.41225812 0 -7654.05719636 0 -15488.74562622 0 -402.22447557 0 169
0.01350000 0.01339930 72753.03911777 0 4135.21968778 0 -3390.83400460 0 -10816.41254383 0 -3004.67180046 0 180
0.01450000 0.01448870 65521.35688359 0 2593.99805105 0 10493.37034152 0 -974.03446159 0 3616.79496003 0 267
0.01550000 0.01550050 66263.46887140 0 1826.01030077 0 1104.18078482 0 -6332.41907682 0 -15480.53814048 0 238
0.01650000 0.01653350 65575.48192470 0 -1640.24384308 0 18090.18587043 0 4258.09905877 0 8514.17951970 0 315
0.01750000 0.01747870 70531.02872117 0 -2005.13313148 0 5789.32752705 0 6783.34277994 0 -13704.06112528 0 297
0.01850000 0.01844180 68743.12777311 0 1896.79431969 0 21338.79745656 0 -3680.50279530 0 7771.43533367 0 388
0.01950000 0.01947590 70047.67435816 0 2127.48012502 0 14200.50310069 0 -6047.77459834 0 -9595.82631968 0 399
0.02050000 0.02045430 64067.63369959 0 5143.69786150 0 32243.77320803 0 -6743.35901494 0 2550.14345832 0 462
0.02150000 0.02154770 60812.81104317 0 3454.44201910 0 32104.68959829 0 -3496.78820905 0 -3901.41725611 0 571
0.02250000 0.02255340 62433.67856518 0 628.83204777 0 34258.48913367 0 3845.66180905 0 -5867.85320144 0 510
0.02350000 0.02348930 60967.20050468 0 -2518.81082694 0 33751.06687329 0 9658.74667997 0 -2280.60519008 0 555
0.02450000 0.02439640 60403.76769972 0 376.11690707 0 26672.88680487 0 5753.03713063 0 -14638.49446817 0 592
0.02550000 0.02547300 63976.79679658 0 325.05414544 0 27997.84119231 0 -988.78575353 0 -6216.47170392 0 837
0.02650000 0.02652900 61167.84025748 0 2099.57467350 0 29780.86201370 0 -577.24245429 0 -15085.80244109 0 723
0.02750000 0.02749970 57095.37456203 0 1284.46042738 0 22368.72600518 0 1979.80083765 0 -11059.24320981 0 826
0.02850000 0.02848090 56535.60185205 0 -189.65835869 0 22323.58483360 0 1465.39112319 0 -16049.29471999 0 831
0.02950000 0.02946900 58858.09849301 0 -1855.77907338 0 17281.41578896 0 6321.93789570 0 -13923.11226501 0 996
0.03050000 0.03053250 58653.68773326 0 -767.52192001 0 13898.37889582 0 5278.58899878 0 -11287.62204618 0 1041
0.03150000 0.03150510 59129.16734643 0 782.29650347 0 4822.96262815 0 869.91695936 0 -16848.52637208 0 1036
0.03250000 0.03246190 56228.15387265 0 2096.81296546 0 10778.38082949 0 -4483.17271844 0 -5190.68017177 0 1059
0.03350000 0.03345080 55139.88562809 0 2406.66773460 0 9328.05155176 0 -2628.50276476 0 -12413.26762445 0 1302
0.03450000 0.03451200 53360.30307775 0 484.12852855 0 12244.12687099 0 2586.47821952 0 467.66586492 0 1339
0.03550000 0.03553350 50685.43910974 0 1626.76803879 0 10872.87782749 0 -454.13571376 0 -6729.63920432 0 1365
0.03650000 0.03647120 51921.77483356 0 1759.50748387 0 18335.52314692 0 -3696.98431396 0 -3143.81086617 0 1308
0.03750000 0.03744890 48048.95068318 0 1073.45816927 0 18285.83458460 0 2581.63136646 0 -4802.23318105 0 1579
0.03850000 0.03847530 48254.02691475 0 39.54721549 0 18652.73137964 0 1135.42801398 0 1618.52727946 0 1662
0.03950000 0.03950240 49083.64844648 0 -166.33024415 0 18816.21562266 0 -55.55003809 0 1006.43184788 0 1683
0.04050000 0.04050350 49073.00089741 0 -241.27900753 0 19968.92372149 0 3376.10489505 0 -3475.40438133 0 1822
0.04150000 0.04152450 48640.66604037 0 1502.48008579 0 18580.52768751 0 -2952.92027549 0 -197.21035470 0 1887
0.04250000 0.04250150 47213.11808116 0 1422.03563432 0 20342.36432274 0 -2398.49352245 0 -4785.13055536 0 1920
0.04350000 0.04349210 45086.93562619 0 1072.37123197 0 22965.54331296 0 888.02001102 0 -2223.06406032 0 2005
0.04450000 0.04448520 44563.20930629 0 847.28093551 0 21027.13482232 0 2986.08295437 0 -4971.06338100 0 2151
0.04550000 0.04548030 44186.44134596 0 629.99995081 0 23471.52371774 0 1090.79592834 0 -2585.74620052 0 2274
0.04650000 0.04648670 40900.67425005 0 1709.40854725 0 19619.66192959 0 -951.00026377 0 -2498.14792703 0 2311
0.04750000 0.04749250 39982.10131880 0 1650.46992667 0 20642.38120018 0 3006.63494232 0 1149.19218940 0 2568
0.04850000 0.04851840 37255.10872514 0 498.00250681 0 20246.09273322 0 1127.00979550 0 3983.31465438 0 2493
0.04950000 0.04949480 37698.86751504 0 186.96430696 0 17775.63952498 0 6121.57542283 0 3558.71036161 0 2644
0.05050000 0.05050630 36773.41804168 0 663.37225331 0 19620.77104928 0 500.45255222 0 4659.09019324 0 2829
0.05150000 0.05149060 35148.33586483 0 860.17112460 0 13071.30833939 0 1184.88366118 0 4742.34071753 0 2784
0.05250000 0.05249300 35606.84594667 0 -170.93974561 0 14706.48350547 0 2503.32751600 0 8253.13710832 0 3055
0.05350000 0.05348950 33943.83187625 0 -326.16215602 0 12208.41321682 0 96.59090507 0 2193.25092292 0 3009
0.05450000 0.05448610 35707.66492692 0 560.85521080 0 10839.26040954 0 1936.37880160 0 6147.40682052 0 3336
0.05550000 0.05550870 33647.69691773 0 -37.34683292 0 10096.77132104 0 1072.01964103 0 1987.90850262 0 3349
0.05650000 0.05647670 34891.24191957 0 223.84697329 0 10001.84176636 0 -811.92552700 0 1030.40990656 0 3324
0.05750000 0.05747970 33324.61035063 0 805.62018153 0 10183.08301569 0 -1384.42538547 0 263.46916527 0 3639
0.05850000 0.05849280 33118.64682330 0 551.65949941 0 9565.00388336 0 -131.37855521 0 -1038.59299167 0 3846
0.05950000 0.05951020 32682.31913536 0 -247.89157915 0 9598.68784849 0 746.46971909 0 607.31068922 0 3787
0.06050000 0.06049470 32587.48940145 0 -367.64545084 0 7957.01324100 0 2974.48156236 0 -592.54276048 0 3930
0.06150000 0.06148310 32958.15720346 0 124.63621659 0 8684.36284567 0 2253.33193679 0 1818.04682136 0 4083
0.06250000 0.06249100 32132.52850263 0 355.94312894 0 4440.64906934 0 1229.62554966 0 -939.51865669 0 4303
0.06350000 0.06350600 32388.95697608 0 29.48561435 0 6289.28541188 0 491.74928997 0 4203.80764971 0 4470
0.06450000 0.06451750 31675.01662852 0 430.26967617 0 6859.87203888 0 -1527.23563738 0 1261.67910885 0 4479
0.06550000 0.06550280 30783.94986570 0 1177.78529513 0 5106.95272601 0 -850.74471631 0 2531.69879780 0 4636
0.06650000 0.06648880 30457.20320361 0 54.89388288 0 7257.85745898 0 771.09772191 0 1239.52998854 0 4653
0.06750000 0.06749660 30439.01364061 0 -193.89741417 0 5517.10518915 0 246.77691386 0 2678.50188060 0 5220
0.06850000 0.06852730 30188.35258958 0 571.34082839 0 6772.10739743 0 2172.18873992 0 2235.38638013 0 5029
0.06950000 0.06949320 30163.50830842 0 350.35871128 0 6627.67783077 0 -1519.79344422 0 2935.20763397 0 5040
0.07050000 0.07048030 28401.33893728 0 960.94352183 0 8157.59753781 0 -807.90940458 0 3183.00715619 0 5475
0.07150000 0.07148790 28758.47547902 0 530.24350722 0 9459.78169791 0 -1449.75253550 0 2173.96333143 0 5509
0.07250000 0.07249820 27887.70560661 0 -185.79196744 0 9885.52838397 0 1095.06271181 0 3277.89234608 0 5916
0.07350000 0.07351270 28198.14820919 0 57.82683900 0 10129.76763196 0 638.99269330 0 3255.27739550 0 5721
0.07450000 0.07449140 28589.44563752 0 -66.28531853 0 8306.56340402 0 1594.69229722 0 3506.41536800 0 6028
0.07550000 0.07549160 28482.97014682 0 261.75779358 0 9189.53359307 0 633.47371370 0 4413.80837273 0 6183
0.07650000 0.07648840 27702.81535348 0 593.22486909 0 8964.64848375 0 -596.64983071 0 3135.52574205 0 6330
0.07750000 0.07749960 26754.18527850 0 978.06832992 0 9692.61919545 0 -529.05231267 0 3584.50848571 0 6583
0.07850000 0.07848650 26563.52760296 0 924.13627564 0 10854.61062612 0 -1513.85965386 0 3650.00200369 0 6549
0.07950000 0.07947320 24439.34156344 0 452.76262358 0 10969.33796735 0 587.78574611 0 4060.75339147 0 6828
0.08050000 0.08048110 24679.46597737 0 412.61138151 0 12145.85886603 0 423.70036022 0 2310.48487466 0 7147
0.08150000 0.08149960 24155.29600960 0 204.45068806 0 10390.97641129 0 326.90304797 0 1325.42021771 0 7386
0.08250000 0.08250610 24002.68113959 0 465.52526391 0 11569.78209654 0 -6.54026811 0 2090.96790466 0 7227
0.08350000 0.08350160 22925.83682788 0 287.33187550 0 10479.81689885 0 431.09375210 0 1714.53268024 0 7798
0.08450000 0.08449610 23095.08849331 0 -6.17425861 0 10262.39616507 0 514.14796221 0 1964.42843868 0 7371
0.08550000 0.08548940 22686.48879774 0 218.42892358 0 8959.05852049 0 1012.31572786 0 -1015.64197782 0 8256
0.08650000 0.08650700 22391.35204695 0 454.32426411 0 9784.86468046 0 -415.13462881 0 770.90917156 0 8037
0.08750000 0.08749060 21311.18037616 0 451.36069629 0 8967.77620129 0 28.45036203 0 -142.57290029 0 8155
0.08850000 0.08849210 21451.48401756 0 226.77615840 0 8696.96244540 0 403.91033750 0 267.13480586 0 8718
0.08950000 0.08949900 20957.26028154 0 294.49457049 0 8762.52251056 0 310.66553564 0 -936.80796815 0 8571
0.09050000 0.09049190 20002.19731233 0 450.85937418 0 8144.41010464 0 495.99610929 0 -390.10956114 0 8932
0.09150000 0.09150830 20038.02187848 0 392.52633296 0 9305.63624273 0 301.91347213 0 565.64106228 0 9285
0.09250000 0.09250820 19017.85358318 0 58.98631273 0 7039.49397346 0 1313.38626902 0 801.79704594 0 9204
0.09350000 0.09350330 19321.19781971 0 79.23018722 0 8443.61732471 0 810.16535404 0 2695.52686792 0 9349
0.09450000 0.09448040 18836.95616095 0 365.62685300 0 6569.55995877 0 180.29738847 0 597.01251285 0 9564
0.09550000 0.09549270 18543.81582561 0 184.80485091 0 7462.75623140 0 -43.65129109 0 2762.95025417 0 10155
0.09650000 0.09649430 17915.49951849 0 424.90819157 0 7568.98771577 0 -535.71146732 0 1188.38847941 0 9913
0.09750000 0.09749140 18193.33400205 0 -42.29417223 0 7503.89348088 0 1040.02930167 0 3586.09452687 0 10476
0.09850000 0.09850240 18277.95983476 0 -565.99598058 0 6725.55764384 0 1079.03038662 0 1251.69703159 0 10575
0.09950000 0.09950330 18691.66148093 0 149.02686779 0 6319.07636689 0 640.99909083 0 2659.01464756 0 10882
0.10050000 0.10051200 18474.27402075 0 197.91464570 0 5720.99466265 0 9.17771038 0 2061.33222642 0 10875
0.10150000 0.10150300 17949.66040509 0 177.92276320 0 5576.59836958 0 -238.79790677 0 2099.36394075 0 11118
0.10250000 0.10250800 18060.01781473 0 352.08893800 0 6506.25140658 0 -323.24628034 0 1736.43779421 0 11575
0.10350000 0.10349800 17513.55454109 0 478.66056846 0 6437.50816790 0 -1239.87381564 0 -707.21464573 0 11364
0.10450000 0.10450100 16700.45889282 0 468.85816859 0 7166.09998663 0 -291.66187879 0 526.34716973 0 12093
0.10550000 0.10551000 16499.93005199 0 100.21340091 0 6554.93066999 0 304.83711164 0 -686.68927666 0 12067
0.10650000 0.10649700 16561.70801899 0 -154.04452529 0 6286.13551195 0 1104.96160509 0 -51.91622924 0 12054
0.10750000 0.10749900 16665.07797455 0 -152.26438818 0 5555.02599152 0 1322.81378642 0 -617.90278230 0 12807
0.10850000 0.10850100 16300.28850692 0 198.39378541 0 4959.30671223 0 91.86993709 0 200.28594361 0 12736
0.10950000 0.10950300 16198.02767106 0 452.23246437 0 4432.31958043 0 180.00679911 0 862.94725120 0 12933
0.11050000 0.11050200 15442.93898283 0 294.94154573 0 4958.59687563 0 -73.81247025 0 752.55545885 0 13428
0.11150000 0.11150900 15167.10091472 0 321.62696558 0 4881.83470155 0 128.93738276 0 857.73438863 0 13453
0.11250000 0.11250000 14908.78693780 0 134.94215679 0 4531.38615157 0 229.74416271 0 117.32933604 0 13668
0.11350000 0.11349100 14711.25272015 0 164.98599108 0 5009.70511116 0 351.93698860 0 1219.53256044 0 13791
0.11450000 0.11448600 14689.95762201 0 31.37932532 0 4798.30689733 0 -324.45743904 0 615.26862303 0 14205
0.11550000 0.11549300 14405.57933226 0 208.39249946 0 4749.90491385 0 139.75795451 0 547.42598953 0 14776
0.11650000 0.11649800 14228.45291700 0 168.13589102 0 4553.03616802 0 -123.33078271 0 472.63139379 0 14553
0.11750000 0.11747300 14090.25660302 0 102.35344736 0 5198.78783674 0 256.46951087 0 552.16525799 0 14568
0.11850000 0.11849100 14138.39239778 0 90.13860125 0 4602.35872085 0 204.26546508 0 314.69496749 0 16015
0.11950000 0.11950300 13852.12860454 0 23.09275934 0 4818.73688211 0 184.94681823 0 622.39249883 0 15270
0.12050000 0.12050700 13937.75264498 0 57.96547896 0 4424.66665454 0 362.22961937 0 722.53935255 0 15999
0.12150000 0.12150000 13720.69792071 0 72.03366408 0 4497.77982482 0 142.54184494 0 613.09363931 0 15670
0.12250000 0.12250700 13767.17003592 0 217.00814125 0 4490.42636125 0 -280.82134289 0 1192.24821595 0 16887
0.12350000 0.12352200 13604.57308866 0 121.95991076 0 4961.08130374 0 66.58999371 0 765.75841970 0 16407
0.12450000 0.12449800 13353.80112566 0 330.16385987 0 5274.56289429 0 -275.26021674 0 987.32060642 0 16306
0.12550000 0.12549900 13216.71393138 0 148.83388097 0 5302.56816658 0 -200.07077439 0 745.13322985 0 17523
0.12650000 0.12650100 12931.33743390 0 172.10432128 0 5395.17966110 0 -132.91468599 0 726.36914286 0 17154
0.12750000 0.12750600 12985.46247501 0 164.43254036 0 5551.85390919 0 102.55087066 0 699.72808779 0 18007
0.12850000 0.12850300 12476.15471115 0 -7.40538147 0 4910.74945199 0 372.50006775 0 281.12080521 0 17496
0.12950000 0.12949900 12848.70801664 0 -49.21352636 0 4965.86160963 0 666.97245584 0 561.85563676 0 18405
0.13050000 0.13049000 12431.23536351 0 -49.84417182 0 4192.37262566 0 650.53308372 0 -100.41526069 0 18100
0.13150000 0.13148800 12424.58064534 0 296.86697752 0 3747.09434178 0 -162.30303054 0 706.22974744 0 19059
0.13250000 0.13249300 12128.77842273 0 91.04741392 0 3738.97558561 0 381.84772853 0 289.11866733 0 18957
0.13350000 0.13349100 12103.71231763 0 -9.82917401 0 3103.63855082 0 408.59969557 0 810.28735721 0 19468
0.13450000 0.13450700 12028.95765019 0 18.49867465 0 2993.78024505 0 329.50504278 0 37.44132992 0 19953
0.13550000 0.13551000 11972.61436970 0 124.83918549 0 2577.66071795 0 -222.71012560 0 664.99933190 0 19956
0.13650000 0.13649900 11677.36670694 0 190.30275724 0 3176.41898520 0 -123.23872577 0 290.09358354 0 19723
0.13750000 0.13749600 11688.23607995 0 216.23619394 0 3422.38845992 0 -267.38213955 0 189.11156269 0 20946
0.13850000 0.13851100 11468.74129234 0 87.14175983 0 3642.84818166 0 -173.81014738 0 253.69338428 0 20955
0.13950000 0.13949800 11508.89142529 0 106.42158749 0 3860.45746578 0 99.02775195 0 651.75977011 0 20506
0.14050000 0.14048300 11183.80844274 0 127.41123406 0 3732.97524806 0 139.91544950 0 617.32493094 0 21447
0.14150000 0.14148400 11283.74012724 0 61.16262739 0 3999.90708501 0 156.99367456 0 897.91335870 0 21771
0.14250000 0.14249400 11044.52519146 0 -2.15485320 0 3774.19013592 0 590.59847365 0 1042.87863017 0 22470
0.14350000 0.14350900 11058.20063730 0 80.79071863 0 3716.88192129 0 121.72366827 0 1021.70331696 0 22519
0.14450000 0.14449900 11019.60327192 0 232.21084491 0 3350.51750369 0 -176.17922704 0 1061.13806770 0 22218
0.14550000 0.14550500 10696.43906644 0 141.72442372 0 3935.18995082 0 -86.41828105 0 939.34896138 0 23559
0.14650000 0.14650700 10598.39288542 0 16.07624633 0 3392.34240739 0 105.61248467 0 912.82658211 0 23044
0.14750000 0.14750500 10351.68030050 0 78.00838097 0 3324.59737643 0 191.14125173 0 770.72173033 0 23649
0.14850000 0.14849900 10656.53293982 0 59.63991697 0 3052.55249768 0 38.28947375 0 110.45301575 0 23640
0.14950000 0.14949500 10268.81796810 0 132.72169916 0 3254.75610924 0 -202.14150086 0 -14.06186314 0 24457
0.15050000 0.15050000 10273.42081484 0 98.52143881 0 3166.28163119 0 -147.22343917 0 -196.18109162 0 24591
0.15150000 0.15149900 10037.14504625 0 49.07932288 0 3148.67990163 0 -36.73803712 0 -488.09806794 0 25020
0.15250000 0.15250500 10031.85454530 0 19.82562546 0 2651.21753611 0 602.06898954 0 -673.66488408 0 25297
0.15350000 0.15350100 10037.04522548 0 22.47387055 0 2704.06708957 0 72.43804912 0 -1114.26601021 0 25452
0.15450000 0.15450400 9981.33414320 0 100.18922210 0 2401.23304809 0 261.05682993 0 -319.73369826 0 26061
0.15550000 0.15549900 9656.46189339 0 140.19162031 0 2063.28427708 0 287.73115859 0 -409.02448842 0 26128
0.15650000 0.15649500 9600.05206572 0 60.39522748 0 1760.20622927 0 328.85177128 0 179.01413698 0 26331
0.15750000 0.15749700 9475.69756553 0 87.37611682 0 1889.75140963 0 142.20799991 0 -265.53989174 0 27345
0.15850000 0.15849900 9556.16419939 0 12.78815008 0 1873.45844131 0 22.36273676 0 584.84879716 0 26980
0.15950000 0.15949700 9381.07856437 0 70.63062767 0 1976.52893455 0 -4.57242358 0 256.82553829 0 27777
0.16050000 0.16050000 9393.56725213 0 183.47612552 0 2037.21996425 0 -405.12593269 0 515.28370078 0 28224
0.16150000 0.16150500 9303.29600017 0 60.33577866 0 2188.70353217 0 -59.38659403 0 281.40806721 0 28075
0.16250000 0.16249700 9072.54364766 0 -6.84939086 0 2422.39505187 0 134.76691588 0 301.12266979 0 28590
0.16350000 0.16349900 9354.02713501 0 109.67507920 0 2655.82038284 0 -78.60741651 0 840.52972393 0 29163
0.16450000 0.16449100 9255.47075893 0 118.94643255 0 2410.44983276 0 6.11943482 0 13.03004909 0 28996
0.16550000 0.16550500 8835.39167451 0 247.07748530 0 3030.31464780 0 -242.36039923 0 346.42799108 0 30777
0.16650000 0.16650700 8695.74241374 0 204.51834437 0 2815.52252770 0 -226.06077620 0 165.81893997 0 29211
0.16750000 0.16749900 8636.85924914 0 84.04709406 0 3303.19136632 0 144.13232258 0 651.44145275 0 30922
0.16850000 0.16850800 8283.18316086 0 87.58474224 0 2800.34977028 0 162.82653504 0 74.77585162 0 30867
0.16950000 0.16949900 8368.24155025 0 52.25096156 0 2994.53444644 0 279.07226113 0 521.26961977 0 30852
0.17050000 0.17049200 8123.78047832 0 92.66129399 0 2666.71193825 0 229.91718538 0 307.57663729 0 31257
0.17150000 0.17149500 8155.20183927 0 73.77464927 0 2435.01683400 0 292.65232268 0 584.72790311 0 32608
0.17250000 0.17250900 7985.34015801 0 55.31911937 0 2220.54635861 0 92.75856379 0 1058.03031432 0 32361
0.17350000 0.17350400 7987.52512381 0 -28.54408264 0 2006.27552477 0 300.45387061 0 744.94911598 0 32508
0.17450000 0.17449800 7977.27685783 0 52.41766225 0 2099.13102562 0 63.33772203 0 892.38439702 0 32791
0.17550000 0.17549800 7861.89513598 0 76.55354866 0 1841.82634762 0 -175.91192920 0 620.52695950 0 33633
0.17650000 0.17650100 7923.65092058 0 16.67184360 0 2017.04507700 0 147.18018350 0 875.06438386 0 33984
0.17750000 0.17750300 7909.42091490 0 13.27117171 0 1930.97738869 0 -210.98673043 0 361.77377118 0 34069
0.17850000 0.17849800 7980.87040564 0 109.74517556 0 2123.14346701 0 -99.87290116 0 696.43511141 0 34536
