### header ###
fiducial parameters:
Omega_m = 0.31
Omega_nu = 0
Omega_de = 0.69
Omega_k = 0
H_0 = 100
w_de = -1
zeff = 0
beta = 0
fgrowth = 0
b_1 = 2
gamma = 0.55
Lx = 3500 Ly = 3500 Lz = 3500
nx = 700 ny = 700 nz = 700
xoffset = 1379.75464 yoffset = 22.6059522 zoffset = 368.141391
bins = 400 dk = 0.001
kx_ny = 0.628318531 ky_ny = 0.628318531 kz_ny = 0.628318531
############################
A(data) = 3.29697509 (not used)
A(ran) = 3.29884015 (used)
Ngal = 185674
weighted Ngal = 0
Nran = 9399747
weighted Nran = 0
SN(data) = 6710.29031
SN(ran) = 131.21263
SN(data+ran) = 6841.50294
############################
13 columns: k_central k_mean P_0(k) sigma^{lin}_{P_0(k)} P^img_1(k) sigma^{lin}_{P_1(k)} P_2(k) sigma^{lin}_{P_2(k)} P^img_3(k) sigma^{lin}_{P_3(k)} P_4(k) sigma^{lin}_{P_4(k)} N_modes
### header ###
0.00050000 0 0 0 0 0 0 0 0 0 0 0 0
0.00150000 0.00179520 116009.48359963 0 -117544.50525726 0 -173713.65396215 0 172435.94807371 0 -28725.31280014 0 3
0.00250000 0.00253879 184046.21303911 0 -96457.69979536 0 -20382.29263175 0 -251151.28193494 0 -84012.26769976 0 6
0.00350000 0.00331552 245011.19530441 0 -47355.75087392 0 -179781.64781252 0 2983.05505760 0 91827.56871736 0 7
0.00450000 0.00420575 274338.53827490 0 -6262.75526878 0 -72263.80642039 0 -156140.76151738 0 430.72330613 0 24
0.00550000 0.00557378 245047.79625434 0 50100.71120663 0 20746.52753953 0 -156853.92548115 0 19171.35574894 0 45
0.00650000 0.00659388 199455.21295928 0 43827.97386060 0 90389.81685696 0 41821.13268478 0 -81922.90801866 0 40
0.00750000 0.00754703 144046.92036504 0 34651.00659367 0 122239.40892545 0 -6794.70016562 0 32800.21855892 0 57
0.00850000 0.00846663 121714.79530979 0 23432.37179251 0 122237.19068606 0 52728.88123548 0 -37191.44525466 0 75
0.00950000 0.00948925 97525.67114951 0 18336.96500253 0 145821.51187676 0 50741.11691842 0 40217.23469410 0 112
0.01050000 0.01054430 83326.38808048 0 10250.82804665 0 99027.86286417 0 45902.36042582 0 50901.16289039 0 105
0.01150000 0.01145670 65176.53157047 0 -785.66489998 0 69743.55373784 0 61630.56499416 0 37379.66286687 0 144
0.01250000 0.01249090 69171.24797532 0 4771.42183593 0 61769.98133980 0 23824.33469266 0 59083.80435091 0 169
0.01350000 0.01339930 56278.06425892 0 4844.86774212 0 22432.72221157 0 20976.89170014 0 50892.73358071 0 180
0.01450000 0.01448870 55162.73349380 0 788.69168763 0 25642.29278444 0 26531.80677969 0 63959.82726525 0 267
0.01550000 0.01550050 47357.63637740 0 -2832.02622876 0 -9047.73264009 0 5088.45260950 0 25494.00348125 0 238
0.01650000 0.01653350 56472.27111748 0 -3045.73141156 0 -1709.55273281 0 22021.90427660 0 52069.95322479 0 315
0.01750000 0.01747870 50491.89772300 0 -1897.04941722 0 -3844.64141893 0 1303.47073895 0 33921.76039432 0 297
0.01850000 0.01844180 66539.30693950 0 -6038.99037035 0 -16804.93796807 0 1938.40849064 0 37638.86413955 0 388
0.01950000 0.01947590 61558.02856612 0 -73.44169154 0 -10706.44332609 0 -6025.93603154 0 30554.47300084 0 399
0.02050000 0.02045430 64984.76477524 0 2550.57601500 0 -5517.61538421 0 -5330.45143571 0 31444.98520381 0 462
0.02150000 0.02154770 66411.42543869 0 425.84539771 0 5686.20157782 0 111.85693946 0 40457.02637212 0 571
0.02250000 0.02255340 65921.74909343 0 860.50386051 0 7620.20686328 0 1465.67949431 0 35278.54651700 0 510
0.02350000 0.02348930 65123.62656103 0 3925.44078870 0 19458.50683793 0 3752.75085222 0 46879.82761287 0 555
0.02450000 0.02439640 60363.95030267 0 2294.08099438 0 14613.65018701 0 3273.25622575 0 38073.19541204 0 592
0.02550000 0.02547300 58495.86000068 0 1021.26299644 0 27150.36283349 0 3355.39763035 0 48735.16303837 0 837
0.02650000 0.02652900 58853.77292620 0 1441.43413778 0 22719.54056465 0 3215.49327205 0 39078.94515131 0 723
0.02750000 0.02749970 56044.15091528 0 547.99274970 0 27098.67785571 0 791.29700979 0 34582.68482047 0 826
0.02850000 0.02848090 58473.12304694 0 -1214.65243378 0 25986.11988984 0 3523.07434582 0 35468.53872072 0 831
0.02950000 0.02946900 59836.67479975 0 -584.04357626 0 14181.75897784 0 2818.98298115 0 26308.87372103 0 996
0.03050000 0.03053250 59457.46677609 0 290.60266948 0 21012.71626629 0 4853.87379404 0 22407.10154662 0 1041
0.03150000 0.03150510 58078.27643558 0 2030.09941581 0 14422.77068753 0 -3286.68766526 0 6908.69548785 0 1036
0.03250000 0.03246190 57051.00977424 0 511.58700484 0 25314.43700265 0 -1135.58329074 0 18246.57174740 0 1059
0.03350000 0.03345080 53194.37877140 0 578.61887183 0 14336.48117527 0 61.48704491 0 -4935.30536204 0 1302
0.03450000 0.03451200 53968.87705430 0 2828.55468411 0 25566.76173323 0 -7492.87992231 0 4242.83757177 0 1339
0.03550000 0.03553350 50015.08716619 0 1528.85495213 0 16247.60532142 0 1009.09595338 0 -12908.71139213 0 1365
0.03650000 0.03647120 50776.05418881 0 712.73473445 0 28303.73640414 0 3136.40194661 0 3140.61660145 0 1308
0.03750000 0.03744890 45066.97147168 0 562.30372112 0 10501.04544980 0 2262.19380315 0 -7471.78446572 0 1579
0.03850000 0.03847530 47523.78250768 0 794.67982486 0 20739.65099742 0 4643.91743581 0 3041.25056799 0 1662
0.03950000 0.03950240 43697.09773661 0 1544.33826307 0 14869.08045273 0 33.76016165 0 -816.11356296 0 1683
0.04050000 0.04050350 44686.76524030 0 366.50305756 0 13999.41970002 0 4054.55341238 0 4239.78749261 0 1822
0.04150000 0.04152450 42257.90402061 0 -2142.77488561 0 11386.11187508 0 4836.59370920 0 5596.61798007 0 1887
0.04250000 0.04250150 46459.47124853 0 -2764.35883618 0 5271.79009505 0 3861.78840942 0 1226.95257120 0 1920
0.04350000 0.04349210 48492.70947308 0 204.07358737 0 8096.89541691 0 -769.45955212 0 1953.33724173 0 2005
0.04450000 0.04448520 48257.57609778 0 1490.74559942 0 3163.09845766 0 -6524.72934070 0 -2292.76114194 0 2151
0.04550000 0.04548030 45698.94787379 0 1631.75907742 0 10411.83895275 0 -5815.85767015 0 -2191.63160817 0 2274
0.04650000 0.04648670 44420.02195369 0 2757.26047013 0 13148.61398212 0 -2330.24938762 0 -8587.18177801 0 2311
0.04750000 0.04749250 42825.66239239 0 626.60493543 0 16514.01587212 0 -1691.40753460 0 -5476.42267875 0 2568
0.04850000 0.04851840 42090.31603472 0 145.38562784 0 16132.81143301 0 3322.66750816 0 -5742.76668226 0 2493
0.04950000 0.04949480 42976.39175891 0 -397.09257874 0 13980.89740111 0 1819.10048507 0 -9553.45794734 0 2644
0.05050000 0.05050630 42354.28652209 0 260.70856635 0 14837.24871748 0 -271.68774220 0 -5620.55278309 0 2829
0.05150000 0.05149060 40958.12665024 0 1955.65530190 0 17261.45163446 0 -2193.28419651 0 -5051.43019408 0 2784
0.05250000 0.05249300 40342.56521962 0 447.85809629 0 13745.32037793 0 1458.45912510 0 -3821.67155006 0 3055
0.05350000 0.05348950 38881.96549351 0 574.49516481 0 16008.70093916 0 715.18145250 0 -10059.16107219 0 3009
0.05450000 0.05448610 37196.43629328 0 1780.05947181 0 14232.11301199 0 -1127.77508809 0 -5950.90408419 0 3336
0.05550000 0.05550870 35149.66680846 0 1956.58696244 0 18076.32187424 0 -1340.98116702 0 -6049.88192576 0 3349
0.05650000 0.05647670 32794.22931257 0 1795.80897148 0 15461.79401764 0 1601.25828581 0 -5229.66572904 0 3324
0.05750000 0.05747970 32140.95781232 0 171.61298126 0 17808.24764401 0 4028.64437631 0 -2828.67668728 0 3639
0.05850000 0.05849280 29388.89911355 0 594.69223445 0 12882.53616733 0 1669.75751816 0 -4072.24387151 0 3846
0.05950000 0.05951020 29492.60180502 0 1065.25068353 0 14336.25935133 0 2289.52251243 0 895.65186364 0 3787
0.06050000 0.06049470 28381.04204687 0 -248.15998612 0 9914.40986082 0 1742.11648705 0 1081.68894653 0 3930
0.06150000 0.06148310 27616.96948910 0 104.17983476 0 10898.90886673 0 2416.72745023 0 4418.34467228 0 4083
0.06250000 0.06249100 28144.24499202 0 206.90184259 0 8341.63376877 0 1037.14891783 0 2838.01547511 0 4303
0.06350000 0.06350600 27546.31856454 0 -103.01248628 0 6366.51341623 0 1647.43093870 0 3138.54254762 0 4470
0.06450000 0.06451750 27343.01692448 0 30.75733099 0 7295.84480853 0 1004.82251520 0 4834.55292896 0 4479
0.06550000 0.06550280 27335.47491056 0 -108.05044067 0 5437.70331020 0 -142.06381435 0 3642.02743308 0 4636
0.06650000 0.06648880 28702.79767034 0 -824.07371501 0 4753.23227293 0 1711.63787784 0 2240.17777721 0 4653
0.06750000 0.06749660 27806.73986889 0 81.76818582 0 4960.78184143 0 -901.59452696 0 -72.68959747 0 5220
0.06850000 0.06852730 28308.50561883 0 1055.28524307 0 4843.96935517 0 -2523.51349445 0 -304.01747219 0 5029
0.06950000 0.06949320 27110.43452448 0 161.27709482 0 8008.72040118 0 -1172.16205828 0 -547.86963741 0 5040
0.07050000 0.07048030 27722.33586011 0 184.71944869 0 7685.92220519 0 -637.64954935 0 -2223.49661700 0 5475
0.07150000 0.07148790 27174.87437875 0 422.15424736 0 6053.74166229 0 225.10804238 0 -2965.04295376 0 5509
0.07250000 0.07249820 26579.27710263 0 266.70557654 0 7936.86053615 0 352.75773718 0 -1729.18415141 0 5916
0.07350000 0.07351270 26644.71516462 0 -31.42923570 0 7816.55432285 0 695.07976715 0 -2818.78333960 0 5721
0.07450000 0.07449140 26772.92940135 0 242.55227694 0 7381.71285530 0 93.73181632 0 -2574.95446589 0 6028
0.07550000 0.07549160 25720.26389899 0 966.24622309 0 7518.81114078 0 -1048.37431826 0 -3511.33985944 0 6183
0.07650000 0.07648840 24804.24194304 0 455.57313289 0 8455.55145263 0 -501.35204829 0 -3190.34952857 0 6330
0.07750000 0.07749960 24048.82051889 0 189.54301025 0 7771.14696254 0 357.49146004 0 -2859.79858592 0 6583
0.07850000 0.07848650 24859.58701581 0 -118.48503876 0 7250.22671548 0 1585.22041502 0 -4865.38645647 0 6549
0.07950000 0.07947320 23821.67280539 0 305.06337206 0 6615.41096695 0 -64.12142600 0 -3344.12897425 0 6828
0.08050000 0.08048110 24399.85690230 0 310.26736167 0 5895.71428818 0 342.62149229 0 -3602.88659905 0 7147
0.08150000 0.08149960 23392.33257153 0 153.65744252 0 6750.92321126 0 -44.18067392 0 -2256.07146243 0 7386
0.08250000 0.08250610 23003.25338258 0 396.35168678 0 6998.86691904 0 398.77511332 0 -1884.72709741 0 7227
0.08350000 0.08350160 22875.03914586 0 472.05797891 0 7021.53732560 0 771.90072457 0 -751.71696436 0 7798
0.08450000 0.08449610 22003.93653755 0 565.00886406 0 6642.18511638 0 334.06685208 0 938.42617379 0 7371
0.08550000 0.08548940 21082.92354297 0 917.14549420 0 8633.63171083 0 316.36973823 0 1478.95565706 0 8256
0.08650000 0.08650700 20278.70085225 0 585.11054941 0 8810.50302856 0 -419.06978549 0 3521.11120396 0 8037
0.08750000 0.08749060 19669.23957995 0 442.90920421 0 9040.98919234 0 505.82734626 0 2144.88221303 0 8155
0.08850000 0.08849210 19350.25675572 0 133.48588263 0 9065.30109605 0 234.94149760 0 3138.16544692 0 8718
0.08950000 0.08949900 19076.52601503 0 -17.48593746 0 8969.60624878 0 232.61900095 0 3540.80916974 0 8571
0.09050000 0.09049190 19262.52538786 0 -9.20334213 0 8269.18607031 0 880.10422376 0 1687.98035475 0 8932
0.09150000 0.09150830 18979.47804174 0 122.54774420 0 8182.90764925 0 146.61785982 0 2831.44948652 0 9285
0.09250000 0.09250820 18570.98925813 0 264.74798027 0 7315.05476164 0 43.31456235 0 452.60291034 0 9204
0.09350000 0.09350330 18698.20528713 0 285.24894871 0 7880.43961727 0 205.33465646 0 2501.85238681 0 9349
0.09450000 0.09448040 18038.50089265 0 116.41542141 0 6884.01757464 0 82.23257424 0 -580.45890140 0 9564
0.09550000 0.09549270 18070.77627577 0 188.03017098 0 6907.49763858 0 401.46805593 0 1412.76339367 0 10155
0.09650000 0.09649430 17523.09297047 0 276.16969489 0 6818.34659751 0 -141.61018440 0 114.76726954 0 9913
0.09750000 0.09749140 17398.76065268 0 311.71809023 0 6657.40223860 0 392.96221700 0 1646.35509260 0 10476
0.09850000 0.09850240 17079.88874042 0 148.45012555 0 6818.61278624 0 746.89673017 0 866.37110370 0 10575
0.09950000 0.09950330 16755.36031771 0 221.99807076 0 6313.49749482 0 371.97656325 0 1846.52901512 0 10882
0.10050000 0.10051200 16502.59193926 0 173.71698132 0 6606.85965410 0 282.55822433 0 2350.02499178 0 10875
0.10150000 0.10150300 16533.86911465 0 71.95136740 0 5471.68673765 0 579.41411065 0 2001.16248297 0 11118
0.10250000 0.10250800 16116.39646152 0 63.93476116 0 5847.94450292 0 271.77869002 0 2784.77772976 0 11575
0.10350000 0.10349800 16294.18834860 0 209.04355272 0 5644.60958927 0 -205.20045298 0 757.42338519 0 11364
0.10450000 0.10450100 15533.88679780 0 360.63026877 0 5751.00744159 0 -57.48645017 0 2170.35869242 0 12093
0.10550000 0.10551000 15342.89638635 0 431.64720283 0 5925.53851677 0 -364.21383451 0 1304.93477694 0 12067
0.10650000 0.10649700 14695.61413246 0 23.26112371 0 5836.69802921 0 585.78267594 0 1622.65320472 0 12054
0.10750000 0.10749900 15126.28530996 0 -84.33446697 0 5342.49647560 0 1001.14356517 0 1743.82453138 0 12807
0.10850000 0.10850100 14993.30185855 0 -176.87131773 0 4046.26828826 0 1303.61492451 0 2050.32975905 0 12736
0.10950000 0.10950300 14902.13221963 0 -29.06492525 0 4046.52338579 0 533.84703711 0 2467.51404106 0 12933
0.11050000 0.11050200 15051.30881859 0 334.83990851 0 3413.03858089 0 -177.74197669 0 2015.27048549 0 13428
0.11150000 0.11150900 14427.09625434 0 242.90497700 0 3757.12078382 0 -648.00650906 0 2056.59628532 0 13453
0.11250000 0.11250000 14127.63393674 0 173.81569297 0 3963.60559740 0 57.02760735 0 1033.84152290 0 13668
0.11350000 0.11349100 14126.52481704 0 160.05706316 0 4001.03838710 0 -365.72223729 0 1270.76279915 0 13791
0.11450000 0.11448600 13918.89761017 0 30.52741048 0 3959.03602426 0 37.73546846 0 -174.72738936 0 14205
0.11550000 0.11549300 14059.86672338 0 37.99966078 0 3952.80277157 0 50.61733916 0 300.98735718 0 14776
0.11650000 0.11649800 13917.56666654 0 37.55434922 0 3677.96291120 0 84.65777536 0 -93.34706270 0 14553
0.11750000 0.11747300 13887.39861084 0 63.91524065 0 3478.19936296 0 335.06838716 0 -467.98529139 0 14568
0.11850000 0.11849100 13864.55074513 0 61.21342508 0 3739.87397256 0 -320.23612949 0 2.27132186 0 16015
0.11950000 0.11950300 13659.69633749 0 157.93198982 0 3420.85787474 0 414.30722552 0 -426.47537769 0 15270
0.12050000 0.12050700 13624.31541923 0 99.96151982 0 3194.59745700 0 271.47590034 0 -470.47415599 0 15999
0.12150000 0.12150000 13470.03686968 0 -75.55733735 0 3248.30103262 0 -129.42983191 0 -1250.02226085 0 15670
0.12250000 0.12250700 13400.93871269 0 110.62515113 0 2959.26444015 0 151.39816570 0 -383.35280396 0 16887
0.12350000 0.12352200 13436.98510277 0 119.25365871 0 2688.49504905 0 219.72437538 0 -1075.45236649 0 16407
0.12450000 0.12449800 13217.49031517 0 3.15415895 0 2077.65846833 0 224.42482465 0 -915.83673296 0 16306
0.12550000 0.12549900 13086.39236724 0 144.19110593 0 2502.58440581 0 409.20416581 0 -560.70547964 0 17523
0.12650000 0.12650100 12699.19868178 0 299.78396231 0 2001.42867170 0 -75.72026704 0 -95.49686940 0 17154
0.12750000 0.12750600 12350.82418563 0 491.25794995 0 3089.86328421 0 -631.62259293 0 -107.57817750 0 18007
0.12850000 0.12850300 11893.31231152 0 391.10444151 0 3034.93967693 0 -234.86164098 0 -310.93172437 0 17496
0.12950000 0.12949900 11840.96186192 0 -38.17501260 0 4081.08355548 0 131.78892950 0 1059.04737708 0 18405
0.13050000 0.13049000 11856.26771371 0 -142.67272106 0 3539.10112541 0 178.92318917 0 -241.79252995 0 18100
0.13150000 0.13148800 12029.29038610 0 109.91376176 0 4371.68400672 0 112.97493211 0 960.11611854 0 19059
0.13250000 0.13249300 11881.88837866 0 99.37435186 0 3437.73867650 0 -239.51994370 0 376.34871309 0 18957
0.13350000 0.13349100 11840.74003798 0 62.75820699 0 4609.71218442 0 244.31799550 0 1733.88681892 0 19468
0.13450000 0.13450700 11858.59686507 0 -66.95478318 0 3604.91628810 0 740.92412061 0 1001.31991520 0 19953
0.13550000 0.13551000 11904.18168453 0 -8.11414223 0 3591.69558133 0 454.38859305 0 1567.08630801 0 19956
0.13650000 0.13649900 11852.05305887 0 131.40739232 0 3142.08063945 0 99.78295155 0 1356.42011318 0 19723
0.13750000 0.13749600 11485.48899973 0 242.65542507 0 3061.54745841 0 -355.63812103 0 1200.07860099 0 20946
0.13850000 0.13851100 11394.87392066 0 56.67413090 0 3241.18048418 0 37.88187226 0 1127.75290570 0 20955
0.13950000 0.13949800 11241.14993096 0 -31.68588600 0 3105.53514550 0 13.08195589 0 548.75915141 0 20506
0.14050000 0.14048300 11439.23870846 0 15.85442239 0 2885.20851813 0 -28.08845627 0 360.26315015 0 21447
0.14150000 0.14148400 11352.72737226 0 75.14663033 0 2586.11221002 0 135.68193963 0 -239.84491577 0 21771
0.14250000 0.14249400 11156.19136234 0 81.75886922 0 2604.62341773 0 309.95126256 0 386.22875133 0 22470
0.14350000 0.14350900 11246.14096959 0 26.64538064 0 2643.14314473 0 251.20673792 0 154.50591909 0 22519
0.14450000 0.14449900 10916.24440756 0 216.66098679 0 2376.46640531 0 255.30715343 0 913.56969231 0 22218
0.14550000 0.14550500 10767.18981177 0 347.32415979 0 2838.70312932 0 -88.24156292 0 966.20740391 0 23559
0.14650000 0.14650700 10269.97145259 0 321.69573100 0 2780.45216295 0 -262.69943620 0 1488.27226250 0 23044
0.14750000 0.14750500 9936.32606599 0 214.78102890 0 3173.49090920 0 131.70463640 0 1620.09113823 0 23649
0.14850000 0.14849900 9904.40560117 0 -50.29513989 0 2931.89136608 0 196.40624292 0 1316.69144571 0 23640
0.14950000 0.14949500 9922.18478988 0 -28.75536994 0 3037.91211771 0 284.17088437 0 1509.52299585 0 24457
0.15050000 0.15050000 9809.80878240 0 99.52108839 0 2323.39502791 0 -101.44308191 0 1025.10831442 0 24591
0.15150000 0.15149900 9764.15741576 0 68.89951365 0 2672.85646136 0 5.58926452 0 1454.28883505 0 25020
0.15250000 0.15250500 9654.66511949 0 -17.82444079 0 2122.57781597 0 166.71289045 0 745.90295892 0 25297
0.15350000 0.15350100 9773.34092683 0 -31.53238384 0 2493.40089473 0 333.16846513 0 922.99277324 0 25452
0.15450000 0.15450400 9687.23996493 0 5.86240742 0 1691.35207862 0 185.97719043 0 602.00133324 0 26061
0.15550000 0.15549900 9490.12721276 0 226.40793066 0 2289.53360363 0 -44.71482597 0 800.62914290 0 26128
0.15650000 0.15649500 9391.32683035 0 323.38159294 0 2295.75576512 0 -679.44783417 0 599.46477650 0 26331
0.15750000 0.15749700 9003.81150017 0 193.37280055 0 2729.36610981 0 -382.24701162 0 552.62332442 0 27345
0.15850000 0.15849900 8939.84856737 0 41.69968408 0 3020.56548568 0 7.48954147 0 760.31375112 0 26980
0.15950000 0.15949700 9124.76100289 0 -111.97783351 0 2786.87396598 0 134.25006610 0 64.98609572 0 27777
0.16050000 0.16050000 9136.63967483 0 -75.45906935 0 2746.92347458 0 239.59314560 0 -6.18579345 0 28224
0.16150000 0.16150500 9139.75630117 0 61.60272609 0 2671.53660892 0 -118.04360912 0 65.44449489 0 28075
0.16250000 0.16249700 9213.31311933 0 54.89355014 0 2388.96618427 0 -81.91470053 0 -316.06362119 0 28590
0.16350000 0.16349900 9087.50567234 0 -8.87692821 0 2803.51076141 0 260.25049991 0 29.68913781 0 29163
0.16450000 0.16449100 9176.65671341 0 76.52814982 0 2205.88379624 0 120.02338778 0 -529.58912660 0 28996
0.16550000 0.16550500 8977.60300178 0 149.45942448 0 2530.33458057 0 -144.91979756 0 -514.91547304 0 30777
0.16650000 0.16650700 8818.27795762 0 170.83105188 0 2481.15621330 0 -80.00302183 0 -232.38275846 0 29211
0.16750000 0.16749900 8779.31458274 0 78.16310317 0 2780.33015978 0 117.17516840 0 4.85130064 0 30922
0.16850000 0.16850800 8490.20035189 0 128.61573805 0 2514.80690484 0 151.48689528 0 -90.80052388 0 30867
0.16950000 0.16949900 8513.96878695 0 163.78925093 0 2971.26511525 0 -94.98523249 0 301.48867928 0 30852
0.17050000 0.17049200 8222.32576320 0 97.83666831 0 2786.21958536 0 -94.86666759 0 -6.65970921 0 31257
0.17150000 0.17149500 8245.40654405 0 79.14411954 0 2903.09861880 0 304.88702203 0 377.21382645 0 32608
0.17250000 0.17250900 7987.90222450 0 88.76950389 0 2879.44109571 0 114.85821736 0 447.53423334 0 32361
0.17350000 0.17350400 8044.13459303 0 109.72155131 0 2438.51056104 0 165.68251825 0 501.33984797 0 32508
0.17450000 0.17449800 7878.07719232 0 43.89984482 0 2533.47338931 0 460.97010932 0 808.79004562 0 32791
0.17550000 0.17549800 7762.34055217 0 82.14251372 0 2219.07122942 0 186.39643767 0 743.66919186 0 33633
0.17650000 0.17650100 7564.25177467 0 120.15093654 0 2046.75839363 0 129.36328473 0 1197.27252817 0 33984
0.17750000 0.17750300 7539.81786780 0 71.03024350 0 2100.08486856 0 -129.33333849 0 983.49414347 0 34069
0.17850000 0.17849800 7348.38380847 0 96.84744446 0 2075.90605921 0 -68.71440157 0 1018.77413184 0 34536
