### header ###
fiducial parameters:
Omega_m = 0.31
Omega_nu = 0
Omega_de = 0.69
Omega_k = 0
H_0 = 100
w_de = -1
zeff = 0
beta = 0
fgrowth = 0
b_1 = 2
gamma = 0.55
Lx = 3500 Ly = 3500 Lz = 3500
nx = 700 ny = 700 nz = 700
xoffset = 1379.75464 yoffset = 22.6059522 zoffset = 368.141391
bins = 400 dk = 0.001
kx_ny = 0.628318531 ky_ny = 0.628318531 kz_ny = 0.628318531
############################
A(data) = 3.30680003 (not used)
A(ran) = 3.30685876 (used)
Ngal = 185799
weighted Ngal = 0
Nran = 9399747
weighted Nran = 0
SN(data) = 6669.3569
SN(ran) = 131.531573
SN(data+ran) = 6800.88847
############################
13 columns: k_central k_mean P_0(k) sigma^{lin}_{P_0(k)} P^img_1(k) sigma^{lin}_{P_1(k)} P_2(k) sigma^{lin}_{P_2(k)} P^img_3(k) sigma^{lin}_{P_3(k)} P_4(k) sigma^{lin}_{P_4(k)} N_modes
### header ###
0.00050000 0 0 0 0 0 0 0 0 0 0 0 0
0.00150000 0.00179520 20045.56389240 0 -20584.59606408 0 -29392.55920855 0 40735.96997537 0 -28942.92208426 0 3
0.00250000 0.00253879 41592.32129174 0 -23546.27838517 0 -11999.78780222 0 -25982.90344272 0 20162.90875611 0 6
0.00350000 0.00331552 48962.31075187 0 -11690.12158343 0 -30404.07637022 0 -14634.50163727 0 5003.81568558 0 7
0.00450000 0.00420575 58554.53243254 0 -2604.94506244 0 -21634.59967917 0 -36184.58639570 0 9417.46878155 0 24
0.00550000 0.00557378 57315.53482145 0 -1489.04864628 0 -16814.14366154 0 -20325.83843928 0 -2196.89992672 0 45
0.00650000 0.00659388 61472.07178977 0 4315.25199664 0 -21738.52419458 0 3419.99276138 0 6448.64372964 0 40
0.00750000 0.00754703 56621.55862840 0 -727.08563418 0 -15747.28142709 0 -12848.48619270 0 -21432.85080668 0 57
0.00850000 0.00846663 59977.86573690 0 1230.66812218 0 -12843.93880195 0 -1662.61478733 0 -7066.62304120 0 75
0.00950000 0.00948925 56707.62631672 0 4540.44765948 0 -1515.60097178 0 -12157.28279889 0 -9442.59034264 0 112
0.01050000 0.01054430 45184.31633539 0 2210.81937889 0 4150.13734768 0 -1958.38373634 0 -6179.81529800 0 105
0.01150000 0.01145670 53646.45595901 0 -2815.69998685 0 9715.25632842 0 10074.79965989 0 4734.77652121 0 144
0.01250000 0.01249090 52078.49344644 0 -5415.59855468 0 -637.61849400 0 10092.06865354 0 -6123.76038863 0 169
0.01350000 0.01339930 63114.01258598 0 -3682.85412905 0 -18679.23934035 0 16545.18213554 0 25182.67358291 0 180
0.01450000 0.01448870 66939.92097327 0 -10861.24316190 0 -16451.68334527 0 20357.22652665 0 31315.10728755 0 267
0.01550000 0.01550050 83448.50215888 0 -5909.40082521 0 -32508.52007918 0 5411.12880231 0 22455.34825334 0 238
0.01650000 0.01653350 85598.08703942 0 3880.24416114 0 -25801.22963671 0 -10749.97627411 0 23940.68134865 0 315
0.01750000 0.01747870 74221.29176978 0 5635.63681094 0 -10918.89520363 0 -19953.39604576 0 13188.87502704 0 297
0.01850000 0.01844180 70341.48016532 0 4344.75458053 0 -6395.25070753 0 -8796.52812041 0 20018.83410776 0 388
0.01950000 0.01947590 67560.36253056 0 -1750.24633441 0 1520.51437203 0 6340.97038966 0 17800.70563008 0 399
0.02050000 0.02045430 70103.01943094 0 -3110.12690104 0 -8378.00180357 0 12940.43221540 0 17991.47421759 0 462
0.02150000 0.02154770 74868.57402368 0 -1779.14999366 0 -6709.78596178 0 -3605.41539196 0 12753.65645879 0 571
0.02250000 0.02255340 81988.45699262 0 2454.61497901 0 -3687.52352297 0 -8288.73985053 0 9201.68954493 0 510
0.02350000 0.02348930 69607.35383932 0 5058.59510731 0 -1751.22235975 0 -9791.91868172 0 4864.82080543 0 555
0.02450000 0.02439640 69495.11092620 0 2926.67850352 0 7452.36377986 0 -11777.85295129 0 3252.33822831 0 592
0.02550000 0.02547300 63849.91350350 0 1298.22460279 0 12540.26182951 0 2651.72773117 0 2219.92525158 0 837
0.02650000 0.02652900 65015.59830276 0 1285.46972630 0 19043.69607207 0 2466.09436785 0 -5774.11040484 0 723
0.02750000 0.02749970 61365.48538710 0 -1134.88454533 0 9822.35292615 0 4707.94691579 0 3408.72410528 0 826
0.02850000 0.02848090 66435.16060016 0 -1552.45701924 0 9773.37420043 0 1946.01705175 0 -1676.42332753 0 831
0.02950000 0.02946900 65700.03606643 0 -489.42790245 0 6960.08100331 0 -256.04582715 0 -604.99595641 0 996
0.03050000 0.03053250 67729.61419599 0 1383.61572809 0 -104.92172492 0 -1418.96337277 0 -7490.88350686 0 1041
0.03150000 0.03150510 60988.38469086 0 2660.95560703 0 10783.05022341 0 -7330.24970146 0 -17170.72564342 0 1036
0.03250000 0.03246190 61050.49539377 0 2666.75630303 0 5418.47117469 0 -7005.02253335 0 -6849.40194897 0 1059
0.03350000 0.03345080 58671.87729625 0 867.09979533 0 12532.71981558 0 3469.99187722 0 -24531.06576220 0 1302
0.03450000 0.03451200 55266.76892118 0 539.64884223 0 5203.02467397 0 2157.04925608 0 -16379.92330101 0 1339
0.03550000 0.03553350 54690.13759184 0 1363.65157359 0 7941.96248674 0 1020.57534223 0 -19489.11854151 0 1365
0.03650000 0.03647120 51273.27254800 0 2042.68792435 0 4415.30568431 0 -782.63478498 0 -16598.64170483 0 1308
0.03750000 0.03744890 48232.95364055 0 1832.84247809 0 5201.00607613 0 711.59012292 0 -13206.17729428 0 1579
0.03850000 0.03847530 46740.18944329 0 1956.74223920 0 7507.33175193 0 -3264.71600410 0 -10273.55390920 0 1662
0.03950000 0.03950240 44470.93054768 0 1111.72612611 0 9380.75691966 0 1871.18474594 0 -7140.77878399 0 1683
0.04050000 0.04050350 44092.49890781 0 297.32504395 0 6701.44538168 0 4050.90440858 0 -2012.81933097 0 1822
0.04150000 0.04152450 44111.57576656 0 403.62640286 0 6173.64859250 0 2289.02340857 0 3247.25846011 0 1887
0.04250000 0.04250150 44263.74698869 0 63.93919764 0 6611.47359203 0 1866.27134569 0 4873.93776932 0 1920
0.04350000 0.04349210 41705.89514849 0 750.58566227 0 7432.28871338 0 -108.44595275 0 6594.54842549 0 2005
0.04450000 0.04448520 43312.56593841 0 1328.60339123 0 9714.95686610 0 -2148.70867598 0 5865.18022298 0 2151
0.04550000 0.04548030 40211.35635972 0 1289.52910438 0 10702.59468075 0 -2579.77913657 0 3056.53423739 0 2274
0.04650000 0.04648670 38763.40059813 0 1147.49523626 0 14362.98913598 0 -2009.92452856 0 4149.36096389 0 2311
0.04750000 0.04749250 38595.81261224 0 47.29707844 0 15030.23554438 0 397.21680014 0 2390.09748636 0 2568
0.04850000 0.04851840 38488.11708987 0 -1220.99659844 0 11202.21982967 0 3227.39412637 0 1862.61125070 0 2493
0.04950000 0.04949480 39965.46452338 0 -628.05011839 0 11896.86149454 0 3529.76233757 0 -1061.90668765 0 2644
0.05050000 0.05050630 40901.45063384 0 166.84154833 0 8105.00308188 0 -416.88038321 0 439.29347401 0 2829
0.05150000 0.05149060 38481.46237171 0 1101.24938147 0 11247.91556110 0 -3487.97070747 0 -1162.25761940 0 2784
0.05250000 0.05249300 38408.59320776 0 2262.36017110 0 11651.08057017 0 -2324.47087401 0 -2365.33084357 0 3055
0.05350000 0.05348950 35817.13504080 0 558.76230193 0 14067.74147322 0 -879.95781996 0 -2041.91154056 0 3009
0.05450000 0.05448610 36001.69255802 0 2.18910282 0 12889.19088550 0 2344.64576126 0 -3603.37461172 0 3336
0.05550000 0.05550870 35509.57614943 0 56.78382284 0 12455.85782073 0 1922.58135260 0 -2129.49872286 0 3349
0.05650000 0.05647670 34580.46658108 0 1202.92903861 0 10732.88473961 0 513.49690895 0 -3368.06377727 0 3324
0.05750000 0.05747970 34202.92223696 0 -228.43207411 0 10980.90608577 0 2056.74047088 0 -52.43940100 0 3639
0.05850000 0.05849280 33647.58600576 0 -314.21804602 0 8097.58307112 0 2046.63639046 0 -1136.47058650 0 3846
0.05950000 0.05951020 34214.23525785 0 225.59383681 0 6433.18260109 0 -215.56295829 0 -113.92101121 0 3787
0.06050000 0.06049470 33260.17049636 0 1329.66814614 0 9113.83617390 0 -849.08880061 0 -5206.60713059 0 3930
0.06150000 0.06148310 31947.63824951 0 1501.88116115 0 9056.73869201 0 -3421.47898177 0 -2743.48520352 0 4083
0.06250000 0.06249100 29696.45800493 0 1105.82893669 0 9268.43636816 0 -983.59396424 0 -5037.02272925 0 4303
0.06350000 0.06350600 28360.30150857 0 254.07935793 0 9564.64896506 0 2325.11416344 0 -4853.07522786 0 4470
0.06450000 0.06451750 29264.34497182 0 -306.27674901 0 9178.13184261 0 1242.58006770 0 -5039.50715736 0 4479
0.06550000 0.06550280 29028.43521274 0 -387.39332701 0 5875.09575305 0 2045.28326443 0 -6249.26837329 0 4636
0.06650000 0.06648880 29764.22521828 0 -442.38459060 0 5081.21005789 0 2083.11533722 0 -4082.51431988 0 4653
0.06750000 0.06749660 28942.92208426 0 108.07461948 0 3188.94094655 0 -102.65058052 0 -4352.03040573 0 5220
0.06850000 0.06852730 29795.83512958 0 -126.81120031 0 2473.78056733 0 1556.69385647 0 -2227.15671199 0 5029
0.06950000 0.06949320 28665.86398450 0 364.22825306 0 3408.38027817 0 -529.66343762 0 -3863.59627452 0 5040
0.07050000 0.07048030 28152.11974186 0 828.95051431 0 1523.99700787 0 -785.59391632 0 -2211.29630035 0 5475
0.07150000 0.07148790 27985.19722779 0 312.90595742 0 4311.96900235 0 -1270.68516077 0 -3505.59461942 0 5509
0.07250000 0.07249820 27434.51929931 0 158.58747956 0 4637.40690320 0 -501.84449744 0 -3444.89249853 0 5916
0.07350000 0.07351270 27549.31318772 0 582.29449450 0 5595.48667798 0 102.83857631 0 -3839.46182996 0 5721
0.07450000 0.07449140 26366.32612122 0 642.13815675 0 6876.89702620 0 -2096.31386159 0 -3112.06786050 0 6028
0.07550000 0.07549160 26609.88880621 0 483.92445053 0 6283.45144229 0 38.84802643 0 -3369.62763604 0 6183
0.07650000 0.07648840 25865.22584310 0 131.50166750 0 8523.51830753 0 360.80883704 0 -3903.83513705 0 6330
0.07750000 0.07749960 24897.96255725 0 544.58553400 0 7871.73302767 0 609.26384900 0 -1161.22613809 0 6583
0.07850000 0.07848650 24654.95443211 0 701.10117797 0 8849.34440028 0 -270.07286393 0 -2098.94247527 0 6549
0.07950000 0.07947320 24157.29242505 0 436.59387667 0 7507.70885263 0 657.59484882 0 -1830.12513484 0 6828
0.08050000 0.08048110 23491.04422437 0 203.38371492 0 8074.77957020 0 1193.30187966 0 105.06047580 0 7147
0.08150000 0.08149960 22814.70303446 0 24.67935507 0 7086.72029007 0 1568.46161643 0 2045.30544683 0 7386
0.08250000 0.08250610 22654.54615053 0 504.59844164 0 6983.69416161 0 945.51012128 0 1508.10332264 0 7227
0.08350000 0.08350160 22115.40306688 0 483.64162500 0 5435.28542926 0 156.40473200 0 3324.04281658 0 7798
0.08450000 0.08449610 21344.89761488 0 161.64532256 0 6023.35178266 0 1188.39957061 0 4485.71260254 0 7371
0.08550000 0.08548940 21027.35664626 0 105.67570449 0 5499.58109797 0 170.46615150 0 2019.26331639 0 8256
0.08650000 0.08650700 21294.65449271 0 135.76845096 0 5071.01724789 0 86.45410562 0 3030.80266047 0 8037
0.08750000 0.08749060 20869.52891368 0 335.41886899 0 4866.63976173 0 -111.98670647 0 2358.11047436 0 8155
0.08850000 0.08849210 20302.76874963 0 347.82659101 0 5672.75904712 0 -651.75533363 0 2340.13164411 0 8718
0.08950000 0.08949900 20034.69451939 0 443.66562384 0 5786.11107993 0 -145.82483924 0 1355.67700298 0 8571
0.09050000 0.09049190 19425.45507103 0 276.73867329 0 5639.62964184 0 40.88559022 0 666.11399720 0 8932
0.09150000 0.09150830 19130.31832023 0 230.52165561 0 6359.17104385 0 57.76894295 0 -132.39339973 0 9285
0.09250000 0.09250820 18351.93811841 0 717.62040670 0 6534.66705317 0 -1150.20148832 0 -1003.36402280 0 9204
0.09350000 0.09350330 17840.96667500 0 584.82217828 0 6699.06077433 0 -996.89452762 0 -878.83982730 0 9349
0.09450000 0.09448040 17465.30783437 0 121.48964401 0 7326.23468816 0 -187.18834913 0 -2308.82119512 0 9564
0.09550000 0.09549270 17153.75611209 0 4.67303183 0 6608.86716075 0 960.99565046 0 -2137.34019910 0 10155
0.09650000 0.09649430 17379.46196999 0 -45.87906891 0 6438.58401400 0 353.02392590 0 -2568.68793962 0 9913
0.09750000 0.09749140 17508.78532640 0 -22.66874288 0 4872.82864963 0 531.09974763 0 -1984.41477558 0 10476
0.09850000 0.09850240 17059.92458591 0 149.81877926 0 5454.65065914 0 903.41681062 0 -1933.45072561 0 10575
0.09950000 0.09950330 16967.97856321 0 267.84242422 0 4807.42386122 0 -14.04345175 0 -1483.48086542 0 10882
0.10050000 0.10051200 16844.53354117 0 138.06211049 0 4491.74621368 0 107.53470001 0 -1854.20412341 0 10875
0.10150000 0.10150300 16609.95472572 0 142.71819497 0 5217.19922367 0 536.96699081 0 -263.13421112 0 11118
0.10250000 0.10250800 16011.25191445 0 134.45747148 0 3998.80905652 0 -7.61174428 0 -1904.29196883 0 11575
0.10350000 0.10349800 16012.80468203 0 269.47948489 0 5148.06779309 0 -36.01899483 0 -850.06149858 0 11364
0.10450000 0.10450100 15516.47361859 0 467.32092870 0 4377.80634743 0 -492.54452879 0 -1040.96428958 0 12093
0.10550000 0.10551000 15059.29448039 0 294.43689626 0 5352.82237995 0 86.46619502 0 -552.05323690 0 12067
0.10650000 0.10649700 14990.97270719 0 -116.68161013 0 4962.33460900 0 857.84862796 0 491.84467427 0 12054
0.10750000 0.10749900 14803.97512664 0 50.12012080 0 4466.00354557 0 539.80966459 0 -965.44432955 0 12807
0.10850000 0.10850100 14959.58461982 0 165.63149875 0 4537.76358982 0 245.39273248 0 659.52471709 0 12736
0.10950000 0.10950300 14535.45724852 0 202.68607863 0 4709.23349464 0 -620.13987673 0 -387.01511719 0 12933
0.11050000 0.11050200 14376.52039626 0 177.12752438 0 5287.79469225 0 62.42391831 0 122.75071310 0 13428
0.11150000 0.11150900 14311.74780608 0 116.07270342 0 4995.09800478 0 39.00663055 0 679.27924797 0 13453
0.11250000 0.11250000 14521.48234037 0 -201.36955355 0 4985.18247471 0 374.63068668 0 -324.63157084 0 13668
0.11350000 0.11349100 14580.15477222 0 -68.52352207 0 5156.00909011 0 407.35082680 0 911.16401169 0 13791
0.11450000 0.11448600 14789.22383470 0 10.15725162 0 4255.09334440 0 -231.92912850 0 -462.61937031 0 14205
0.11550000 0.11549300 14597.67886340 0 178.11575003 0 5146.98085579 0 -263.75309991 0 385.48675025 0 14776
0.11650000 0.11649800 14503.73642525 0 179.49882229 0 4943.15792947 0 -642.25350520 0 -476.27928847 0 14553
0.11750000 0.11747300 14572.28002239 0 -27.94027788 0 5414.18997267 0 468.20378797 0 77.31540298 0 14568
0.11850000 0.11849100 14479.89035181 0 45.49420438 0 4878.26333613 0 370.63674666 0 -1297.69222534 0 16015
0.11950000 0.11950300 14306.97859139 0 291.59865897 0 4662.76137943 0 -167.65231483 0 -332.01276241 0 15270
0.12050000 0.12050700 13927.99239167 0 114.26483832 0 4837.25918101 0 417.95844756 0 -32.83925957 0 15999
0.12150000 0.12150000 13737.55654007 0 82.41480260 0 4561.68730164 0 442.39790003 0 -537.98627181 0 15670
0.12250000 0.12250700 13653.81800311 0 150.96782726 0 3998.26558786 0 370.43821423 0 -209.85099186 0 16887
0.12350000 0.12352200 13296.34872547 0 324.54505950 0 4596.79093998 0 -496.50519523 0 -754.55963814 0 16407
0.12450000 0.12449800 13137.30096123 0 294.21063585 0 4218.20402335 0 -294.84505231 0 276.45806601 0 16306
0.12550000 0.12549900 12408.72023370 0 260.03311245 0 4818.19341346 0 -386.07125633 0 -1608.94448529 0 17523
0.12650000 0.12650100 12604.59077181 0 101.23356920 0 5109.18205659 0 -64.88183847 0 -954.69252323 0 17154
0.12750000 0.12750600 12196.10198820 0 217.88656405 0 5338.53691828 0 -3.61632913 0 -1716.98383477 0 18007
0.12850000 0.12850300 12101.93772611 0 59.95612699 0 4918.96802893 0 134.95879359 0 -1243.87773774 0 17496
0.12950000 0.12949900 12150.96081663 0 -148.71520516 0 4598.18843079 0 736.73164817 0 -1404.27862801 0 18405
0.13050000 0.13049000 12181.35069626 0 61.27442666 0 4292.91432599 0 379.49528566 0 -1218.43453194 0 18100
0.13150000 0.13148800 12135.43314090 0 51.50896048 0 4499.15513324 0 229.07758177 0 -249.47207472 0 19059
0.13250000 0.13249300 11968.06697895 0 106.38221374 0 3790.41655706 0 51.02682615 0 -1021.71662639 0 18957
0.13350000 0.13349100 11996.23861920 0 91.48263249 0 3827.72734359 0 211.14089806 0 68.59439482 0 19468
0.13450000 0.13450700 12087.07552220 0 -92.56358055 0 3809.92597249 0 -22.98617294 0 -493.65808497 0 19953
0.13550000 0.13551000 12038.27425563 0 48.53884885 0 3736.89044058 0 423.77688948 0 -83.63305968 0 19956
0.13650000 0.13649900 11974.27804924 0 65.56283796 0 3477.71135030 0 13.02561261 0 293.53074547 0 19723
0.13750000 0.13749600 11897.52696636 0 232.01231248 0 3878.81339673 0 -167.70000698 0 -390.84379838 0 20946
0.13850000 0.13851100 11655.51704895 0 166.22265954 0 4057.28184683 0 28.28909602 0 56.71428103 0 20955
0.13950000 0.13949800 11437.02046907 0 90.08203614 0 4212.54751290 0 -9.84584408 0 251.07031620 0 20506
0.14050000 0.14048300 11319.89742929 0 241.82802178 0 4360.27116506 0 -207.98545253 0 716.82073140 0 21447
0.14150000 0.14148400 11250.68836034 0 19.02650472 0 4466.48046703 0 300.13666238 0 330.79273074 0 21771
0.14250000 0.14249400 11158.63142567 0 37.66858855 0 4207.68956864 0 186.03597377 0 530.17806916 0 22470
0.14350000 0.14350900 11307.91893659 0 -18.66260254 0 3921.55886977 0 665.98755755 0 1001.66928791 0 22519
0.14450000 0.14449900 11085.35188743 0 -21.95524618 0 3775.65417392 0 349.36715827 0 856.10065532 0 22218
0.14550000 0.14550500 11156.85683416 0 199.09696730 0 3862.67570517 0 16.06737337 0 1523.28717126 0 23559
0.14650000 0.14650700 10806.66338171 0 175.72670621 0 3378.27876966 0 222.40179033 0 816.50508222 0 23044
0.14750000 0.14750500 10621.87294936 0 273.51557146 0 3445.28069042 0 -294.77406865 0 1707.71159412 0 23649
0.14850000 0.14849900 10364.46845058 0 106.94032277 0 3470.91244657 0 -194.47526553 0 616.95892144 0 23640
0.14950000 0.14949500 10007.05462893 0 252.56651867 0 3953.22423706 0 116.44758588 0 841.96936129 0 24457
0.15050000 0.15050000 9884.76309138 0 85.24915798 0 3580.08309813 0 -73.28319833 0 551.94343405 0 24591
0.15150000 0.15149900 9723.44163176 0 90.43806356 0 3768.01233922 0 10.95306718 0 456.33953460 0 25020
0.15250000 0.15250500 9795.70077988 0 30.84173500 0 3639.97556165 0 270.73722663 0 292.84420038 0 25297
0.15350000 0.15350100 9690.05712895 0 -50.08906545 0 3042.12677255 0 196.44728035 0 170.50053421 0 25452
0.15450000 0.15450400 9823.93896731 0 -2.88714948 0 2955.53779797 0 294.52451672 0 0.04220744 0 26061
0.15550000 0.15549900 9943.24697288 0 -42.06369716 0 2808.11360814 0 -8.23969458 0 -255.71309124 0 26128
0.15650000 0.15649500 9716.67600163 0 121.66488492 0 2595.39554187 0 56.09949599 0 13.95993504 0 26331
0.15750000 0.15749700 9613.71642036 0 211.00780370 0 3017.91468961 0 -336.84963339 0 -340.00729717 0 27345
0.15850000 0.15849900 9497.13684923 0 94.18566810 0 2809.14508945 0 133.62119523 0 73.51378432 0 26980
0.15950000 0.15949700 9318.71276393 0 67.15420290 0 3117.33617906 0 149.23870966 0 -261.99403607 0 27777
0.16050000 0.16050000 9373.19272334 0 124.75267415 0 3045.66486438 0 -224.59230172 0 304.78498302 0 28224
0.16150000 0.16150500 9169.34761463 0 64.90668275 0 3303.33555188 0 23.97916780 0 270.64406057 0 28075
0.16250000 0.16249700 9118.50556781 0 142.23461878 0 3629.29473899 0 -3.17267016 0 32.91634339 0 28590
0.16350000 0.16349900 9228.18641444 0 19.36234616 0 3490.88769227 0 132.41558213 0 753.13441933 0 29163
0.16450000 0.16449100 9040.11298778 0 -29.51456237 0 3383.91309771 0 334.89092801 0 700.55992756 0 28996
0.16550000 0.16550500 9008.58071486 0 73.42383471 0 3277.79252531 0 446.36078470 0 1199.06930207 0 30777
0.16650000 0.16650700 8931.86290557 0 180.26966048 0 3201.40745192 0 83.81883722 0 899.49829074 0 29211
0.16750000 0.16749900 8760.47063913 0 244.45108986 0 3068.27981495 0 18.74534287 0 1308.76123989 0 30922
0.16850000 0.16850800 8242.92211593 0 221.12075708 0 3177.59465207 0 -126.64594147 0 991.74155752 0 30867
0.16950000 0.16949900 8023.47169312 0 231.80601622 0 3179.30269640 0 -156.82841573 0 1328.94721834 0 30852
0.17050000 0.17049200 7822.68775476 0 84.07282564 0 3052.90741598 0 223.99004973 0 746.10481871 0 31257
0.17150000 0.17149500 7887.17197382 0 -177.40480431 0 2691.02384196 0 383.47480713 0 644.12569925 0 32608
0.17250000 0.17250900 7899.80484714 0 -123.32967359 0 2329.18463272 0 483.16914001 0 387.31125215 0 32361
0.17350000 0.17350400 8089.35340299 0 118.96972407 0 2296.55433130 0 -334.37186000 0 294.76630481 0 32508
0.17450000 0.17449800 7926.03552793 0 119.44997289 0 2125.60571273 0 -207.85235817 0 110.04718886 0 32791
0.17550000 0.17549800 7715.99044012 0 101.99420349 0 2437.65653887 0 -258.66778611 0 -155.60616582 0 33633
0.17650000 0.17650100 7886.00739814 0 -18.93511325 0 2403.61765544 0 -18.61845958 0 -410.15468138 0 33984
0.17750000 0.17750300 7874.27291177 0 0.41024452 0 2723.68741697 0 128.81537960 0 -532.61258689 0 34069
0.17850000 0.17849800 7744.65009304 0 128.57913710 0 2462.55627602 0 -120.36943312 0 -516.61020793 0 34536
