### header ###
fiducial parameters:
Omega_m = 0.31
Omega_nu = 0
Omega_de = 0.69
Omega_k = 0
H_0 = 100
w_de = -1
zeff = 0
beta = 0
fgrowth = 0
b_1 = 2
gamma = 0.55
Lx = 3500 Ly = 3500 Lz = 3500
nx = 700 ny = 700 nz = 700
xoffset = 1379.75464 yoffset = 22.6059522 zoffset = 368.141391
bins = 400 dk = 0.001
kx_ny = 0.628318531 ky_ny = 0.628318531 kz_ny = 0.628318531
############################
A(data) = 3.36002613 (not used)
A(ran) = 3.36369317 (used)
Ngal = 189432
weighted Ngal = 0
Nran = 9399747
weighted Nran = 0
SN(data) = 6639.98173
SN(ran) = 133.792184
SN(data+ran) = 6773.77391
############################
13 columns: k_central k_mean P_0(k) sigma^{lin}_{P_0(k)} P^img_1(k) sigma^{lin}_{P_1(k)} P_2(k) sigma^{lin}_{P_2(k)} P^img_3(k) sigma^{lin}_{P_3(k)} P_4(k) sigma^{lin}_{P_4(k)} N_modes
### header ###
0.00050000 0 0 0 0 0 0 0 0 0 0 0 0
0.00150000 0.00179520 17331.99164705 0 -16011.69556233 0 -27586.46869750 0 23636.44981636 0 4987.88872677 0 3
0.00250000 0.00253879 37397.29787002 0 -22589.88447232 0 -10486.73780574 0 -32106.24236587 0 30810.56873838 0 6
0.00350000 0.00331552 46807.40209680 0 -13928.54695152 0 -40400.35035572 0 -1132.02301652 0 -39031.25300443 0 7
0.00450000 0.00420575 68923.35972352 0 -15445.71178206 0 -23554.59678288 0 -30443.45011939 0 -7551.40816861 0 24
0.00550000 0.00557378 82675.44573159 0 -8850.03205449 0 -14056.31754036 0 -21693.27211103 0 -2809.14508945 0 45
0.00650000 0.00659388 87509.65483345 0 10447.44169495 0 31552.34799027 0 -33827.37430829 0 -27786.33206650 0 40
0.00750000 0.00754703 79923.83068071 0 6693.69263501 0 10036.50175683 0 -11022.20970320 0 14986.86896432 0 57
0.00850000 0.00846663 71914.76645243 0 9846.28772916 0 42513.55611026 0 13122.66058126 0 1400.24143232 0 75
0.00950000 0.00948925 60613.50223401 0 5207.19496402 0 33172.21730456 0 10735.08079661 0 26167.57187191 0 112
0.01050000 0.01054430 66200.58178470 0 -803.92322840 0 47772.89079114 0 10242.77583767 0 -17864.14727662 0 105
0.01150000 0.01145670 66114.51409639 0 -3195.75094148 0 36675.48277263 0 965.71939124 0 11418.49817016 0 144
0.01250000 0.01249090 70293.23345860 0 582.43313446 0 42264.33691484 0 -7618.23263022 0 -2366.02958898 0 169
0.01350000 0.01339930 71617.41146225 0 453.92719926 0 37065.89290520 0 -8813.90802603 0 16463.10727812 0 180
0.01450000 0.01448870 78167.42873199 0 5038.63095280 0 52538.66720782 0 -6220.23161968 0 -13816.85859825 0 267
0.01550000 0.01550050 75494.67209141 0 101.70439051 0 64421.77561815 0 7822.86521391 0 -18239.91702923 0 238
0.01650000 0.01653350 79098.97836367 0 1131.61264223 0 67374.14133380 0 7370.48856399 0 -6100.75724616 0 315
0.01750000 0.01747870 79723.08001595 0 1412.47502255 0 64749.52048797 0 15606.31231387 0 3710.68194219 0 297
0.01850000 0.01844180 77907.11833961 0 1799.50234006 0 61746.13526636 0 15111.53401801 0 8678.08522820 0 388
0.01950000 0.01947590 75560.11015340 0 2052.84746075 0 57992.54148317 0 9071.71180789 0 11330.98862624 0 399
0.02050000 0.02045430 77095.13181103 0 -504.81028350 0 54912.84882656 0 13455.61831364 0 18147.74918259 0 462
0.02150000 0.02154770 72713.22172073 0 1947.07071546 0 51637.17471987 0 8027.96362788 0 16289.97369376 0 571
0.02250000 0.02255340 72866.28023862 0 3285.22362726 0 41486.62218483 0 8010.25098635 0 25123.44659121 0 510
0.02350000 0.02348930 67947.33439208 0 1609.60995711 0 42305.15251961 0 10774.42127218 0 19634.52413350 0 555
0.02450000 0.02439640 64587.36718858 0 2144.32765318 0 32357.67980068 0 9144.27041833 0 15635.03851397 0 592
0.02550000 0.02547300 64285.24298372 0 1906.80967054 0 40060.62699319 0 2432.96496256 0 24804.90741485 0 837
0.02650000 0.02652900 57359.34504940 0 4699.18487020 0 33423.76565135 0 -680.34733024 0 6389.06181963 0 723
0.02750000 0.02749970 56056.90579177 0 4121.21150604 0 40184.18292720 0 -569.72262276 0 22353.64197733 0 826
0.02850000 0.02848090 50057.01189066 0 1225.38871243 0 37540.70704656 0 2150.51654108 0 2116.71057278 0 831
0.02950000 0.02946900 50583.28918585 0 66.71177505 0 36657.95868145 0 5284.23441803 0 9958.68591904 0 996
0.03050000 0.03053250 53141.80649787 0 -1996.88128095 0 31536.26575470 0 5564.95261279 0 5231.80633005 0 1041
0.03150000 0.03150510 53215.45204560 0 -649.88424870 0 27263.16030646 0 2214.25764994 0 -7406.25767415 0 1036
0.03250000 0.03246190 52476.22376900 0 521.60679216 0 21726.54570187 0 1190.95054591 0 4998.91337653 0 1059
0.03350000 0.03345080 50810.99145920 0 741.87241795 0 20191.85678015 0 2416.58326467 0 -12238.91400842 0 1302
0.03450000 0.03451200 53904.65902397 0 685.51471890 0 20590.25257453 0 2108.04834796 0 3204.54626066 0 1339
0.03550000 0.03553350 50966.60095238 0 -372.25162493 0 16195.25487183 0 5435.08578772 0 -9598.05565027 0 1365
0.03650000 0.03647120 48800.04654052 0 -5.50388448 0 13569.30308236 0 -900.74937776 0 -5864.41493039 0 1308
0.03750000 0.03744890 50513.96920492 0 1231.86597145 0 15013.37692502 0 856.91253094 0 -9532.08521082 0 1579
0.03850000 0.03847530 49366.80670457 0 631.08910635 0 12770.62599012 0 -2012.73060139 0 -9385.17121604 0 1662
0.03950000 0.03950240 49596.50539337 0 110.80993047 0 15219.22954038 0 179.56536947 0 -11061.58345237 0 1683
0.04050000 0.04050350 48916.61502044 0 275.40440230 0 12738.79425488 0 -2061.58732395 0 -15709.01679762 0 1822
0.04150000 0.04152450 47800.72969548 0 2062.90717638 0 18915.37092338 0 -4128.63151679 0 -13006.31392527 0 1887
0.04250000 0.04250150 46140.59933627 0 2281.79194816 0 20076.17559598 0 -3580.57111079 0 -14094.02760998 0 1920
0.04350000 0.04349210 42722.62517274 0 1686.16139845 0 21419.98501822 0 1915.84899605 0 -9624.59688456 0 2005
0.04450000 0.04448520 42577.99596453 0 625.10873296 0 24030.29821999 0 1479.75422324 0 -14030.69687541 0 2151
0.04550000 0.04548030 41533.53794792 0 855.27879763 0 23354.62250190 0 2683.91438471 0 -4378.70473439 0 2274
0.04650000 0.04648670 39801.20389657 0 1660.90674300 0 22300.07149607 0 2266.97410904 0 -5395.51239701 0 2311
0.04750000 0.04749250 38066.98434175 0 489.27040746 0 20968.68421440 0 1327.98228420 0 616.61065786 0 2568
0.04850000 0.04851840 37265.20171436 0 529.83646029 0 20616.20597539 0 2860.70806407 0 1326.40733423 0 2493
0.04950000 0.04949480 37464.73234746 0 121.24341944 0 18937.88605318 0 3293.58638976 0 3429.76410589 0 2644
0.05050000 0.05050630 36227.62023986 0 811.48853384 0 20231.78508916 0 373.66464343 0 5385.63014053 0 2829
0.05150000 0.05149060 35441.80893608 0 1364.46123096 0 19360.01700903 0 -1478.06836130 0 2009.88016378 0 2784
0.05250000 0.05249300 33989.63851965 0 1013.79640265 0 22675.84124867 0 -832.53297093 0 4489.81634541 0 3055
0.05350000 0.05348950 32661.91133297 0 596.90603736 0 20715.25036413 0 -611.38115850 0 -290.04589139 0 3009
0.05450000 0.05448610 34347.77326910 0 -605.93538079 0 20716.24857186 0 2689.27143284 0 1563.06020352 0 3336
0.05550000 0.05550870 34225.43736676 0 -1417.44387879 0 18299.47675684 0 2349.79207665 0 -152.24886051 0 3349
0.05650000 0.05647670 34713.56094446 0 77.80707574 0 17253.24414872 0 2402.73035968 0 172.44814839 0 3324
0.05750000 0.05747970 35587.21452807 0 505.84287394 0 15162.77534792 0 376.80123392 0 -2906.65889302 0 3639
0.05850000 0.05849280 34208.13509953 0 546.01297104 0 15048.42510738 0 150.89018888 0 -1443.79656273 0 3846
0.05950000 0.05951020 33245.64102836 0 267.02500301 0 13302.11614788 0 1586.56244985 0 1671.79829840 0 3787
0.06050000 0.06049470 33368.08784267 0 -409.69106935 0 13392.95305089 0 393.75967406 0 -1526.60343915 0 3930
0.06150000 0.06148310 33553.64356761 0 856.12505595 0 12250.67067719 0 1670.45626357 0 -2175.80447012 0 4083
0.06250000 0.06249100 32449.40399945 0 339.50597506 0 12446.31939136 0 1757.68852757 0 -389.21561067 0 4303
0.06350000 0.06350600 31477.26058693 0 411.51889861 0 11028.44295589 0 -245.97280208 0 720.46308048 0 4470
0.06450000 0.06451750 31266.86058083 0 646.41159494 0 12083.19360327 0 1036.01428838 0 -577.45873263 0 4479
0.06550000 0.06550280 30047.27256440 0 1239.66308290 0 12454.19414119 0 -665.94762924 0 2019.55168751 0 4636
0.06650000 0.06648880 29504.80212166 0 -465.82694447 0 11639.65663731 0 1753.26313998 0 3586.79327228 0 4653
0.06750000 0.06749660 30070.23134208 0 -161.61981281 0 11033.53381529 0 1671.64302164 0 3021.40841665 0 5220
0.06850000 0.06852730 30227.72633875 0 0.07996553 0 9575.15232857 0 685.21858394 0 2743.98430738 0 5029
0.06950000 0.06949320 29981.61267847 0 391.58358121 0 10165.09309424 0 434.69062727 0 3125.24420248 0 5040
0.07050000 0.07048030 29155.65124173 0 748.16556310 0 9958.41973031 0 -898.66201449 0 3114.84065974 0 5475
0.07150000 0.07148790 28353.97952631 0 666.61088282 0 11458.64830312 0 -780.01060778 0 2070.92611178 0 5509
0.07250000 0.07249820 27838.01704428 0 537.38623806 0 10915.67875652 0 551.90461486 0 2889.06825466 0 5916
0.07350000 0.07351270 27118.42018628 0 450.50445588 0 11292.61308480 0 504.13593873 0 1330.36689155 0 5721
0.07450000 0.07449140 26666.45391064 0 416.63637688 0 10833.37098396 0 361.73273375 0 1732.79988161 0 6028
0.07550000 0.07549160 25886.29911730 0 153.04964493 0 10239.74794090 0 1285.15917278 0 2561.99994786 0 6183
0.07650000 0.07648840 26317.96850253 0 -119.11612786 0 10436.80523708 0 889.74358302 0 2597.31431894 0 6330
0.07750000 0.07749960 25369.44933952 0 338.63753434 0 9004.04441531 0 715.91458061 0 554.49219111 0 6583
0.07850000 0.07848650 25661.59146713 0 167.90630324 0 8638.00164243 0 1138.10099245 0 3829.69048545 0 6549
0.07950000 0.07947320 24435.90329239 0 320.80288965 0 7559.27182724 0 613.77020232 0 2391.83880428 0 6828
0.08050000 0.08048110 24561.45564184 0 488.40196673 0 7588.58586078 0 379.71932784 0 2760.02217817 0 7147
0.08150000 0.08149960 23069.35691639 0 837.06594312 0 7510.73674940 0 40.45580634 0 2230.36206791 0 7386
0.08250000 0.08250610 22651.21879145 0 563.25090934 0 8112.67819017 0 413.34229139 0 4432.82977549 0 7227
0.08350000 0.08350160 21756.49193363 0 65.32304628 0 7624.37715333 0 863.52732080 0 3592.27232358 0 7798
0.08450000 0.08449610 22020.01877312 0 -99.52785402 0 6563.38216206 0 882.70621856 0 3363.70493687 0 7371
0.08550000 0.08548940 21861.63648070 0 103.57858097 0 6510.77661494 0 140.84378269 0 3259.62514470 0 8256
0.08650000 0.08650700 21573.81991990 0 442.98795171 0 5931.29484799 0 -331.47705759 0 1852.13006958 0 8037
0.08750000 0.08749060 21439.83826076 0 499.61849421 0 7254.04208723 0 -1111.52648456 0 2012.22040633 0 8155
0.08850000 0.08849210 20071.62820523 0 965.47982139 0 7546.76095709 0 -1538.30465193 0 1013.26846168 0 8718
0.08950000 0.08949900 19714.26983956 0 904.72224450 0 10183.59321075 0 -1084.96972259 0 616.92786609 0 8571
0.09050000 0.09049190 18275.07612356 0 191.83223330 0 9907.45568033 0 365.57583349 0 476.50222153 0 8932
0.09150000 0.09150830 18401.07212089 0 353.67165181 0 9289.27672723 0 1097.87322112 0 -37.37877557 0 9285
0.09250000 0.09250820 17975.39198201 0 -83.35777617 0 8833.53944462 0 1340.12714486 0 951.79217523 0 9204
0.09350000 0.09350330 17896.75539565 0 -57.45118016 0 7908.06778887 0 1718.21495763 0 1934.97021959 0 9349
0.09450000 0.09448040 17673.04595321 0 248.16109524 0 7275.83628923 0 877.65085099 0 2082.71605413 0 9564
0.09550000 0.09549270 17322.89686555 0 210.15821801 0 5871.03637497 0 257.45440916 0 3033.26490619 0 10155
0.09650000 0.09649430 17361.16149502 0 -212.81677792 0 4746.62191955 0 1849.23526718 0 3205.23391487 0 9913
0.09750000 0.09749140 17287.29412335 0 -505.09532726 0 3915.56962342 0 1415.46964573 0 3969.76121171 0 10476
0.09850000 0.09850240 18104.93716237 0 20.93940345 0 3271.67018459 0 181.55623932 0 3206.70904406 0 10575
0.09950000 0.09950330 17209.10118486 0 441.02037337 0 3407.93663030 0 -552.20518630 0 3067.47015758 0 10882
0.10050000 0.10051200 17007.01957647 0 468.79827613 0 3286.42147653 0 -1099.45704404 0 2492.66887573 0 10875
0.10150000 0.10150300 16549.72952629 0 473.32681184 0 4485.36877544 0 -1148.60435596 0 605.11463222 0 11118
0.10250000 0.10250800 16101.75608155 0 255.12636692 0 5055.85558167 0 74.60382715 0 983.39765006 0 11575
0.10350000 0.10349800 15726.98453667 0 186.10584831 0 5286.28628946 0 -108.04411869 0 -340.17588336 0 11364
0.10450000 0.10450100 15731.86466333 0 -52.46646352 0 4524.26560313 0 336.26956379 0 -130.66206389 0 12093
0.10550000 0.10551000 15666.31568936 0 -23.35306973 0 4564.06081778 0 359.36143584 0 -1064.81701773 0 12067
0.10650000 0.10649700 15847.65675947 0 46.71024321 0 4092.52967073 0 132.61633279 0 -414.96049702 0 12054
0.10750000 0.10749900 15399.46149079 0 427.33938194 0 4537.28666835 0 -682.18403245 0 -1415.05927144 0 12807
0.10850000 0.10850100 14933.85304290 0 492.93050245 0 4852.66485357 0 -847.68465508 0 -1492.77528846 0 12736
0.10950000 0.10950300 14475.89752091 0 213.26264404 0 5782.95008880 0 -441.20781460 0 -2104.39934417 0 12933
0.11050000 0.11050200 14383.61876230 0 73.25280845 0 5716.23653916 0 -264.82118217 0 -2287.68137374 0 13428
0.11150000 0.11150900 14428.87084585 0 129.10375072 0 5904.52069855 0 136.66018320 0 -2783.06968543 0 13453
0.11250000 0.11250000 14208.26693855 0 -67.71608294 0 6288.20956578 0 -288.17924295 0 -2680.12119536 0 13668
0.11350000 0.11349100 14278.47421523 0 227.67787271 0 6368.05509261 0 -154.05228913 0 -2069.53971216 0 13791
0.11450000 0.11448600 14491.20337270 0 86.47772987 0 6782.35566341 0 468.57756131 0 -2266.57482594 0 14205
0.11550000 0.11549300 14056.98301218 0 -28.81903341 0 5824.46443898 0 558.95417964 0 -1565.53354044 0 14776
0.11650000 0.11649800 14002.30341122 0 84.10077545 0 5819.59540352 0 844.59908409 0 -1247.69310949 0 14553
0.11750000 0.11747300 14037.35159358 0 59.06705664 0 5687.03341760 0 506.34863252 0 95.72612444 0 14568
0.11850000 0.11849100 14004.74347455 0 -13.76750277 0 4671.75634015 0 785.84235913 0 69.82729227 0 16015
0.11950000 0.11950300 13902.37172672 0 0.91408100 0 4972.84906371 0 508.01896678 0 171.55530704 0 15270
0.12050000 0.12050700 13884.18216372 0 127.38905167 0 3897.43551641 0 -80.87312623 0 758.94731565 0 15999
0.12150000 0.12150000 13633.74293663 0 132.67400701 0 4097.17688225 0 340.91566620 0 -261.80881308 0 15670
0.12250000 0.12250700 13468.70592604 0 253.03789454 0 4281.71221707 0 -367.74748985 0 753.68454270 0 16887
0.12350000 0.12352200 13361.45405155 0 50.20031016 0 4090.01196902 0 0.17200672 0 -278.08625372 0 16407
0.12450000 0.12449800 13112.34576810 0 15.93760637 0 4196.49855092 0 357.75321228 0 -132.90470391 0 16306
0.12550000 0.12549900 13115.78403915 0 157.39850325 0 4202.02196700 0 -438.00024044 0 -613.13024026 0 17523
0.12650000 0.12650100 13275.16453930 0 14.42853811 0 4111.41797913 0 -83.41167939 0 -476.41460107 0 17154
0.12750000 0.12750600 13046.35314626 0 19.23934479 0 4169.11438566 0 545.01365420 0 -444.19689218 0 18007
0.12850000 0.12850300 12946.42146175 0 36.27009952 0 3448.81878225 0 207.45529332 0 -295.04025738 0 17496
0.12950000 0.12949900 13032.04550219 0 63.18166889 0 3852.13906807 0 329.78121358 0 -895.37125636 0 18405
0.13050000 0.13049000 12963.50190505 0 210.36451428 0 3405.88475886 0 -197.47987078 0 -620.63343499 0 18100
0.13150000 0.13148800 12323.87257705 0 381.13678281 0 4132.13633503 0 -361.99670424 0 -406.31379988 0 19059
0.13250000 0.13249300 12015.87003780 0 401.10537379 0 3839.80565707 0 -506.27210326 0 -911.23943183 0 18957
0.13350000 0.13349100 11755.00508557 0 115.65678354 0 4537.85231940 0 95.81940141 0 -543.98106376 0 19468
0.13450000 0.13450700 11637.77113383 0 -43.53871544 0 4164.13443823 0 692.41566164 0 -852.68013018 0 19953
0.13550000 0.13551000 11545.82511113 0 79.47197532 0 3765.43918153 0 218.19600844 0 -515.80165968 0 19956
0.13650000 0.13649900 11546.49058295 0 20.16945256 0 3375.93852710 0 318.31513417 0 -608.09816420 0 19723
0.13750000 0.13749600 11644.20402806 0 -15.59000825 0 3434.89933008 0 427.26839828 0 59.74861070 0 20946
0.13850000 0.13851100 11506.22953803 0 100.81598564 0 3148.20298016 0 66.42817315 0 597.93973692 0 20955
0.13950000 0.13949800 11429.70027908 0 66.57269144 0 3033.43127414 0 60.04762937 0 292.46044497 0 20506
0.14050000 0.14048300 11320.56290111 0 203.03545133 0 3411.97382598 0 -139.73688123 0 146.83191992 0 21447
0.14150000 0.14148400 11004.30851133 0 275.07610287 0 3671.44128739 0 -566.16013030 0 -245.88074515 0 21771
0.14250000 0.14249400 10747.95767627 0 232.37832198 0 3988.01732188 0 -366.86130322 0 -300.39286903 0 22470
0.14350000 0.14350900 10517.64897164 0 11.55137071 0 3841.19205668 0 -15.04909058 0 -960.37343431 0 22519
0.14450000 0.14449900 10616.22753011 0 97.36817615 0 4213.60117661 0 28.02834198 0 -979.84403055 0 22218
0.14550000 0.14550500 10645.00918619 0 23.24626151 0 3924.48694577 0 296.66179037 0 -1068.47822184 0 23559
0.14650000 0.14650700 10454.05204833 0 -68.30813103 0 3483.11276321 0 289.80632154 0 -1360.41294408 0 23044
0.14750000 0.14750500 10628.35020838 0 -41.68204908 0 3180.31199533 0 432.71084862 0 -804.44784201 0 23649
0.14850000 0.14849900 10587.19077650 0 -70.95249421 0 2635.70095158 0 626.02153847 0 -1276.82968388 0 23640
0.14950000 0.14949500 10535.84962583 0 180.04672742 0 2445.67547426 0 77.18729966 0 -520.74833351 0 24457
0.15050000 0.15050000 10197.52375412 0 200.26597946 0 2335.56207096 0 -7.43782322 0 -768.84953629 0 24591
0.15150000 0.15149900 10037.72178849 0 185.20524312 0 2291.58547506 0 25.05623394 0 -355.41851533 0 25020
0.15250000 0.15250500 9941.35037821 0 88.33317621 0 2130.43038341 0 291.38127151 0 -448.33501776 0 25297
0.15350000 0.15350100 9586.42098467 0 201.68010707 0 2411.75859400 0 -31.70008273 0 -528.72290412 0 25452
0.15450000 0.15450400 9599.70823861 0 100.41392975 0 2167.25315727 0 3.83709941 0 -43.14231607 0 26061
0.15550000 0.15549900 9287.92360120 0 -1.00434338 0 2023.82179834 0 150.48646931 0 -415.74242641 0 26128
0.15650000 0.15649500 9364.61922810 0 95.09181889 0 2225.42648527 0 102.67986128 0 50.11634979 0 26331
0.15750000 0.15749700 9285.91609455 0 136.28086426 0 2190.40048530 0 -157.55932561 0 -554.08181682 0 27345
0.15850000 0.15849900 9033.58027278 0 214.24865145 0 2407.12247367 0 -92.45266858 0 96.90190223 0 26980
0.15950000 0.15949700 9026.22680921 0 96.89957308 0 2517.66843366 0 -52.60698898 0 120.09437144 0 27777
0.16050000 0.16050000 8767.29172525 0 109.10643353 0 2665.69154813 0 204.24661004 0 -39.05432269 0 28224
0.16150000 0.16150500 8599.69264817 0 200.83717610 0 2829.68598620 0 -77.65379540 0 367.79185464 0 28075
0.16250000 0.16249700 8403.79992767 0 181.73480760 0 2849.12885445 0 53.06793913 0 361.87137371 0 28590
0.16350000 0.16349900 8335.56688404 0 -10.59279183 0 2952.44335403 0 191.52278890 0 1241.90350469 0 29163
0.16450000 0.16449100 8458.75680855 0 -140.35687914 0 2603.15937973 0 473.28799265 0 905.00063355 0 28996
0.16550000 0.16550500 8615.87470452 0 -137.11159491 0 2344.00247184 0 386.04796482 0 986.59967861 0 30777
0.16650000 0.16650700 8848.60129008 0 -66.26413434 0 2026.93842468 0 228.57736879 0 1048.97213377 0 29211
0.16750000 0.16749900 8721.44071707 0 95.39605042 0 1910.97996059 0 -240.73110240 0 914.63999281 0 30922
0.16850000 0.16850800 8639.90932830 0 244.24257536 0 2155.44103252 0 -479.24840189 0 355.04696023 0 30867
0.16950000 0.16949900 8324.20949837 0 197.83700732 0 2480.25782635 0 -279.32735866 0 641.71447303 0 30852
0.17050000 0.17049200 8081.62283872 0 184.77157732 0 2930.84879357 0 -95.65336619 0 -151.75641136 0 31257
0.17150000 0.17149500 8033.88632705 0 77.35832591 0 2619.95145191 0 79.87103658 0 -73.38590282 0 32608
0.17250000 0.17250900 7798.35366866 0 105.95109891 0 2693.54154366 0 91.07503100 0 -103.27279667 0 32361
0.17350000 0.17350400 7783.75765347 0 63.73134861 0 2657.51733598 0 29.58565695 0 -170.74564966 0 32508
0.17450000 0.17449800 7722.17932802 0 -14.64470554 0 2630.54354500 0 200.55545970 0 285.57059342 0 32791
0.17550000 0.17549800 7843.84975854 0 19.84403684 0 2324.06049973 0 119.27916846 0 -143.19067996 0 33633
0.17650000 0.17650100 7808.76830259 0 48.75590358 0 2451.54271745 0 19.64250980 0 10.42112228 0 33984
0.17750000 0.17750300 7693.02057124 0 51.21637471 0 2382.46674286 0 -229.41808151 0 -146.52136640 0 34069
0.17850000 0.17849800 7711.93106204 0 87.91636903 0 2576.92869895 0 139.00153487 0 189.65724958 0 34536
