### header ###
fiducial parameters:
Omega_m = 0.31
Omega_nu = 0
Omega_de = 0.69
Omega_k = 0
H_0 = 100
w_de = -1
zeff = 0
beta = 0
fgrowth = 0
b_1 = 2
gamma = 0.55
Lx = 3500 Ly = 3500 Lz = 3500
nx = 700 ny = 700 nz = 700
xoffset = 1379.75464 yoffset = 22.6059522 zoffset = 368.141391
bins = 400 dk = 0.001
kx_ny = 0.628318531 ky_ny = 0.628318531 kz_ny = 0.628318531
############################
A(data) = 3.33510284 (not used)
A(ran) = 3.33445455 (used)
Ngal = 187405
weighted Ngal = 0
Nran = 9399747
weighted Nran = 0
SN(data) = 6676.84737
SN(ran) = 132.629206
SN(data+ran) = 6809.47657
############################
13 columns: k_central k_mean P_0(k) sigma^{lin}_{P_0(k)} P^img_1(k) sigma^{lin}_{P_1(k)} P_2(k) sigma^{lin}_{P_2(k)} P^img_3(k) sigma^{lin}_{P_3(k)} P_4(k) sigma^{lin}_{P_4(k)} N_modes
### header ###
0.00050000 0 0 0 0 0 0 0 0 0 0 0 0
0.00150000 0.00179520 36969.06675585 0 -34253.27627110 0 -31725.81431054 0 9839.98792930 0 -8925.36346416 0 3
0.00250000 0.00253879 65807.28794092 0 -28211.34673356 0 -34966.32932291 0 -38499.98467061 0 14258.73188467 0 6
0.00350000 0.00331552 92699.66953340 0 -28196.59544162 0 -63584.94480840 0 -21024.25111111 0 11691.00887918 0 7
0.00450000 0.00420575 96922.86459537 0 -9566.53446854 0 -56729.36506274 0 -38835.27155435 0 -8629.67215352 0 24
0.00550000 0.00557378 94054.68106456 0 12684.89103771 0 -39918.10511241 0 -56308.12140264 0 -14248.74980741 0 45
0.00650000 0.00659388 69271.17965982 0 9652.73525122 0 11671.71019649 0 -37407.50177121 0 -35814.02950566 0 40
0.00750000 0.00754703 60759.12964994 0 15078.81498702 0 7746.32486377 0 -15018.25705168 0 -1784.20757947 0 57
0.00850000 0.00846663 48564.46951733 0 3169.18752479 0 12426.24432488 0 625.70211200 0 -27341.02050903 0 75
0.00950000 0.00948925 43874.77871172 0 1451.88204531 0 11141.44007040 0 -1790.86229764 0 -20902.91341650 0 112
0.01050000 0.01054430 49346.84255006 0 -3966.33403185 0 8006.67962094 0 19112.57240512 0 -2923.57296837 0 105
0.01150000 0.01145670 49221.06837667 0 -6080.42708215 0 -4675.76026225 0 11410.51250836 0 -6356.57570377 0 144
0.01250000 0.01249090 72835.33579913 0 -17173.60935463 0 -19726.58106817 0 15412.99275107 0 -6884.25048978 0 169
0.01350000 0.01339930 85167.52677389 0 -15191.61245998 0 -16515.56863969 0 2355.03821280 0 -7743.55206454 0 180
0.01450000 0.01448870 87616.79579597 0 6221.77329606 0 -32861.77470198 0 -23963.52921436 0 -18527.62267807 0 267
0.01550000 0.01550050 93257.77856383 0 4664.48051495 0 92.93602294 0 -34809.38888609 0 -9798.39594074 0 238
0.01650000 0.01653350 77044.11230507 0 2231.08299571 0 3991.94360560 0 -6971.02801470 0 -23285.30252098 0 315
0.01750000 0.01747870 93236.15072978 0 490.82206591 0 24232.82347626 0 927.04660572 0 2322.34136420 0 297
0.01850000 0.01844180 82688.31152005 0 -838.75845977 0 15659.32823529 0 7922.70816884 0 -942.64415599 0 388
0.01950000 0.01947590 84344.55996033 0 2104.21079382 0 16073.02988146 0 13839.26281608 0 -7274.48316320 0 399
0.02050000 0.02045430 85458.55978181 0 2607.64022330 0 12395.74353327 0 -2265.31042949 0 11287.17839830 0 462
0.02150000 0.02154770 73863.15702032 0 8201.91796082 0 20734.65995879 0 -8801.49697664 0 8846.58269224 0 571
0.02250000 0.02255340 66465.10683192 0 6651.97864329 0 32070.08506382 0 4120.94531731 0 16890.00744866 0 510
0.02350000 0.02348930 63962.48915252 0 -702.72936568 0 36250.02445769 0 3456.68244088 0 11329.32494670 0 555
0.02450000 0.02439640 64885.49856255 0 -2350.74591958 0 25285.04533074 0 13146.50665470 0 -1232.52035207 0 592
0.02550000 0.02547300 63936.31392772 0 1747.17407286 0 20372.53237843 0 -181.36436162 0 5947.09980364 0 837
0.02650000 0.02652900 62710.40392904 0 2209.65480321 0 19990.10790766 0 -3984.82305716 0 -1855.18014874 0 723
0.02750000 0.02749970 58661.89521900 0 625.51910725 0 21816.60622109 0 153.72953530 0 1512.77271656 0 826
0.02850000 0.02848090 58229.22762605 0 2035.23464000 0 19556.88575486 0 4990.11805735 0 -12905.93859289 0 831
0.02950000 0.02946900 55389.99211927 0 1825.15627860 0 17028.98014642 0 -1325.26494095 0 -5684.32716554 0 996
0.03050000 0.03053250 53484.52448357 0 705.90144801 0 15130.05631692 0 5438.60169715 0 -5163.01872658 0 1041
0.03150000 0.03150510 51249.75921047 0 1112.64669545 0 18558.12346967 0 4361.76847665 0 -851.08299782 0 1036
0.03250000 0.03246190 50175.13313816 0 613.17127768 0 12294.48090514 0 2628.90204785 0 2383.30967382 0 1059
0.03350000 0.03345080 48395.32876387 0 1985.87881358 0 12245.01416675 0 1678.76357008 0 2013.11879328 0 1302
0.03450000 0.03451200 47283.99082966 0 464.73224333 0 13062.54629380 0 834.77782919 0 11354.72378771 0 1339
0.03550000 0.03553350 45614.98751289 0 1709.13126733 0 16484.62420020 0 1600.82572913 0 10014.67428123 0 1365
0.03650000 0.03647120 45433.20279491 0 895.46996801 0 18254.89014511 0 -467.43184066 0 14196.95391766 0 1308
0.03750000 0.03744890 43550.36120098 0 1025.66287427 0 19176.01405166 0 1717.72694496 0 12662.81955579 0 1579
0.03850000 0.03847530 42480.17160745 0 2128.81106865 0 23305.15576351 0 2233.91125093 0 21716.78544856 0 1662
0.03950000 0.03950240 39890.59894398 0 1349.98721895 0 24547.14799778 0 857.61460370 0 19904.37295525 0 1683
0.04050000 0.04050350 40456.13907637 0 -482.60127073 0 23516.66488932 0 3564.41123684 0 23953.10348923 0 1822
0.04150000 0.04152450 40468.89395286 0 -533.02074294 0 23873.46869514 0 7014.72733068 0 23348.07869570 0 1887
0.04250000 0.04250150 42551.59891579 0 -1089.05682866 0 21125.73556319 0 1225.42198602 0 24195.22431861 0 1920
0.04350000 0.04349210 42810.24562863 0 -1052.47140641 0 18172.81528769 0 4633.46952829 0 23337.54205860 0 2005
0.04450000 0.04448520 44118.34139670 0 429.74949903 0 18656.72421054 0 11.20321804 0 18807.78631298 0 2151
0.04550000 0.04548030 42829.76613526 0 671.09949022 0 13440.64519776 0 2.61206561 0 17104.40028567 0 2274
0.04650000 0.04648670 42050.38772570 0 521.52249906 0 17255.68421204 0 988.19681097 0 19582.61733178 0 2311
0.04750000 0.04749250 41516.23568068 0 735.41623221 0 14996.18556975 0 -886.20992768 0 12130.10936636 0 2568
0.04850000 0.04851840 41833.00026552 0 339.80321914 0 16165.30864006 0 2324.82579232 0 14604.22266960 0 2493
0.04950000 0.04949480 40521.35531442 0 595.83130038 0 16089.88850082 0 650.34675162 0 8566.75179323 0 2644
0.05050000 0.05050630 39955.92609400 0 964.34297370 0 16498.71002033 0 -3570.15647686 0 9543.66442043 0 2829
0.05150000 0.05149060 37815.76873087 0 1891.98074022 0 17847.73230514 0 257.56421201 0 7587.01091081 0 2784
0.05250000 0.05249300 37079.09142957 0 1114.99802920 0 21547.31195919 0 -1012.87583330 0 8624.58129412 0 3055
0.05350000 0.05348950 35857.06334982 0 242.96154211 0 19559.32581819 0 3059.62868133 0 9358.99599124 0 3009
0.05450000 0.05448610 37180.35405771 0 -686.18906367 0 20170.67259398 0 5125.57484568 0 11056.98060564 0 3336
0.05550000 0.05550870 35859.05976527 0 -58.88272095 0 14708.81265682 0 986.71613618 0 7887.28288579 0 3349
0.05650000 0.05647670 36043.17363461 0 580.01081705 0 15573.37145894 0 740.23535728 0 9805.94904586 0 3324
0.05750000 0.05747970 35001.26659329 0 1704.86115650 0 17088.87260994 0 -2843.61652957 0 7305.78252099 0 3639
0.05850000 0.05849280 33230.88973642 0 1360.01366099 0 17071.01578286 0 -683.88985855 0 5791.45703686 0 3846
0.05950000 0.05951020 32182.88253678 0 -8.13595861 0 15943.92834898 0 1914.22968129 0 3446.48963089 0 3787
0.06050000 0.06049470 30858.48270919 0 -669.91273215 0 14064.52502610 0 2038.85037020 0 2866.40893930 0 3930
0.06150000 0.06148310 32507.96551933 0 378.58913487 0 12279.72961319 0 1360.31312331 0 85.04474722 0 4083
0.06250000 0.06249100 31444.09790806 0 1168.77924321 0 11583.20244485 0 -1795.87551866 0 -2542.27979968 0 4303
0.06350000 0.06350600 29301.38956963 0 1000.84521197 0 12801.34860567 0 -582.16361838 0 -1478.48982679 0 4470
0.06450000 0.06451750 28582.56909542 0 898.41689904 0 13673.56033368 0 -825.13181520 0 -2419.14533116 0 4479
0.06550000 0.06550280 28221.88337066 0 274.80215031 0 13528.37656563 0 526.97936796 0 -1743.91326096 0 4636
0.06650000 0.06648880 27939.16876045 0 -723.66289080 0 11467.63217265 0 2600.58622204 0 -3371.84587543 0 4653
0.06750000 0.06749660 29066.36710630 0 -766.90746770 0 11164.06611217 0 2324.49305641 0 -2384.03060163 0 5220
0.06850000 0.06852730 29588.42974665 0 837.90776497 0 10322.38844936 0 -1141.22870999 0 -1887.13388715 0 5029
0.06950000 0.06949320 27788.55030589 0 1243.05698917 0 11921.37303980 0 -1798.41540276 0 -2141.71013070 0 5040
0.07050000 0.07048030 26673.55227669 0 683.45841098 0 13800.11089086 0 -464.66015055 0 594.29295136 0 5475
0.07150000 0.07148790 27447.49599974 0 -448.79197507 0 12425.24611715 0 1190.60671880 0 -1154.71560548 0 5509
0.07250000 0.07249820 27113.31823569 0 -521.76317804 0 12087.63008205 0 2785.03282729 0 -848.15159447 0 5916
0.07350000 0.07351270 28106.31309846 0 360.83989239 0 11709.97482596 0 239.58316352 0 352.96736080 0 5721
0.07450000 0.07449140 27234.65593030 0 -0.43930789 0 9199.62658229 0 1171.38567449 0 1182.32159468 0 6028
0.07550000 0.07549160 26987.21132638 0 184.16488885 0 10943.96130873 0 812.37582959 0 1667.32854603 0 6183
0.07650000 0.07648840 27043.44369491 0 473.35564895 0 8905.77641035 0 -308.90314444 0 984.97481826 0 6330
0.07750000 0.07749960 25750.98651454 0 733.53627433 0 10808.24942288 0 416.21047492 0 2327.92023627 0 6583
0.07850000 0.07848650 25685.88118845 0 267.06160396 0 9191.85165323 0 306.82354502 0 1291.17060153 0 6549
0.07950000 0.07947320 25162.59851643 0 -196.97522132 0 9898.47181080 0 1199.69040910 0 2638.64011877 0 6828
0.08050000 0.08048110 25208.51607180 0 252.67299416 0 8090.73980261 0 862.49805772 0 2038.75054943 0 7147
0.08150000 0.08149960 24950.75665472 0 296.08504813 0 9621.80190293 0 531.00214509 0 2453.19530580 0 7386
0.08250000 0.08250610 24252.56580683 0 388.51797438 0 9037.51764770 0 -631.54273631 0 1920.81785228 0 7227
0.08350000 0.08350160 24202.76633253 0 555.30406673 0 9771.45542335 0 7.42827370 0 3159.52709225 0 7798
0.08450000 0.08449610 23553.15492728 0 496.48966755 0 10617.63611212 0 -1144.04587401 0 2846.94388865 0 7371
0.08550000 0.08548940 22428.28573279 0 789.42814311 0 10393.78248412 0 356.23371830 0 1266.81433303 0 8256
0.08650000 0.08650700 22198.47613202 0 353.43430019 0 11563.68193822 0 811.92330876 0 3168.82151529 0 8037
0.08750000 0.08749060 20887.16391683 0 526.76641698 0 10233.48141463 0 1212.34546482 0 2082.39440942 0 8155
0.08850000 0.08849210 20901.47156089 0 317.08290219 0 10041.09351236 0 1706.75775118 0 4912.05821323 0 8718
0.08950000 0.08949900 20192.63316393 0 -170.45395118 0 8432.92541085 0 888.11206795 0 3468.90493992 0 8571
0.09050000 0.09049190 19982.12224586 0 261.04573873 0 7518.74459359 0 933.09685366 0 4240.45296443 0 8932
0.09150000 0.09150830 19381.53393111 0 540.22669359 0 6951.60732884 0 -147.51735589 0 3533.58880052 0 9285
0.09250000 0.09250820 19144.84778824 0 281.30270084 0 6832.23277609 0 -228.58402350 0 2746.89020098 0 9204
0.09350000 0.09350330 18904.16881446 0 -227.75440197 0 6493.21925017 0 1208.00880681 0 2869.56993043 0 9349
0.09450000 0.09448040 18759.31778232 0 80.06679621 0 5508.64260588 0 -167.35396163 0 596.09637998 0 9564
0.09550000 0.09549270 18645.41118966 0 359.26050595 0 4699.36232936 0 -2.30438472 0 1007.88590380 0 10155
0.09650000 0.09649430 17868.69466737 0 309.31906433 0 4598.19952199 0 324.80126615 0 365.60467060 0 9913
0.09750000 0.09749140 17926.59071544 0 58.57582753 0 5699.23373424 0 419.96262685 0 1395.99350389 0 10476
0.09850000 0.09850240 17757.56087395 0 -305.88522975 0 3986.02090643 0 956.94847269 0 0.39022491 0 10575
0.09950000 0.09950330 18071.88539546 0 143.60216337 0 4143.03898163 0 226.83383263 0 513.75644296 0 10882
0.10050000 0.10051200 17796.04732736 0 308.77892304 0 3574.98114753 0 -505.99482333 0 946.94199481 0 10875
0.10150000 0.10150300 17366.92891744 0 596.74743324 0 4154.15236097 0 -16.52832352 0 -213.76840262 0 11118
0.10250000 0.10250800 16598.64170483 0 528.56540912 0 4899.46970470 0 -503.72889180 0 2422.21759272 0 11575
0.10350000 0.10349800 15719.33161078 0 279.84864492 0 4256.31337606 0 558.94308845 0 1626.08038458 0 11364
0.10450000 0.10450100 15818.15417559 0 36.43458197 0 5187.92955493 0 914.63777457 0 3269.67376914 0 12093
0.10550000 0.10551000 16125.04759514 0 -360.48275585 0 3308.38204649 0 1377.55993456 0 2388.87745469 0 12067
0.10650000 0.10649700 16005.81722795 0 -72.05030088 0 3902.67056137 0 277.64149673 0 3512.28261118 0 12054
0.10750000 0.10749900 16343.98782290 0 237.44256251 0 3474.21762326 0 -799.37361941 0 2896.76554535 0 12807
0.10850000 0.10850100 15851.53867840 0 187.67636180 0 3741.12727782 0 -262.90129598 0 2483.71827980 0 12736
0.10950000 0.10950300 15954.46498608 0 295.86766067 0 4689.60207604 0 -1040.92657951 0 992.18076892 0 12933
0.11050000 0.11050200 15324.70682336 0 265.52325494 0 4586.58703879 0 -665.14129922 0 476.17059474 0 13428
0.11150000 0.11150900 15071.16206112 0 217.25991142 0 5570.45384647 0 -387.14821155 0 335.08502396 0 13453
0.11250000 0.11250000 15257.38325788 0 -24.14697761 0 4945.26525689 0 385.29376343 0 -486.04952386 0 13668
0.11350000 0.11349100 15359.20044587 0 -175.98956758 0 5267.25379550 0 956.42607732 0 146.08215501 0 13791
0.11450000 0.11448600 15223.33328325 0 58.76814889 0 3935.05685646 0 478.54854737 0 -194.33884381 0 14205
0.11550000 0.11549300 15278.90017996 0 198.73650340 0 4612.35188930 0 4.66901681 0 1370.81648682 0 14776
0.11650000 0.11649800 14846.67623489 0 209.38848895 0 3774.75578696 0 731.55427743 0 1200.35588092 0 14553
0.11750000 0.11747300 14696.16869230 0 132.38785413 0 4324.19150139 0 206.14985944 0 1207.49861175 0 14568
0.11850000 0.11849100 14374.96762868 0 378.03124766 0 3955.19847011 0 -60.15721039 0 2051.62742909 0 16015
0.11950000 0.11950300 13868.76539997 0 293.27675706 0 4472.01497431 0 19.04391790 0 1382.44006122 0 15270
0.12050000 0.12050700 13464.93491908 0 255.25835216 0 4573.95416546 0 -284.84522914 0 2019.38531956 0 15999
0.12150000 0.12150000 13476.02611603 0 116.86905136 0 4213.10207275 0 -9.29375757 0 688.59696253 0 15670
0.12250000 0.12250700 12978.69684487 0 371.48411410 0 5114.86074943 0 -741.30011219 0 679.89813676 0 16887
0.12350000 0.12352200 12874.77232947 0 284.91732192 0 4849.91423673 0 -562.71187717 0 330.09953093 0 16407
0.12450000 0.12449800 12575.86457171 0 -22.27234350 0 5427.08903472 0 348.76823364 0 441.91543297 0 16306
0.12550000 0.12549900 12827.30200653 0 -89.85777214 0 5103.88046445 0 481.00192013 0 -265.33692283 0 17523
0.12650000 0.12650100 12844.27153786 0 -125.61667840 0 4376.85250450 0 712.28775921 0 424.09298859 0 17154
0.12750000 0.12750600 12877.32330476 0 -69.46594108 0 4512.54220796 0 456.16096633 0 635.09413757 0 18007
0.12850000 0.12850300 12947.64149342 0 125.24179594 0 3943.69689888 0 179.34132729 0 1151.70989110 0 17496
0.12950000 0.12949900 12790.25740872 0 142.43204209 0 4469.97419407 0 -117.18404136 0 646.52250691 0 18405
0.13050000 0.13049000 12634.64791554 0 154.86749211 0 4224.64800877 0 -234.18175060 0 791.15171511 0 18100
0.13150000 0.13148800 12245.01416675 0 331.31068964 0 4854.26198593 0 -258.03004228 0 1252.40686820 0 19059
0.13250000 0.13249300 12156.17367919 0 152.02925481 0 4721.48926727 0 180.30626143 0 788.84807351 0 18957
0.13350000 0.13349100 11943.99908157 0 39.11765343 0 4990.10696616 0 268.70531934 0 920.01478686 0 19468
0.13450000 0.13450700 11854.16038629 0 112.04992629 0 4037.73915780 0 501.59605462 0 411.68637568 0 19953
0.13550000 0.13551000 11457.98283130 0 256.42847344 0 4310.03913408 0 -16.25858561 0 662.85651265 0 19956
0.13650000 0.13649900 11237.93348385 0 198.81636002 0 3885.47920610 0 -222.14336544 0 447.76160288 0 19723
0.13750000 0.13749600 11257.01034260 0 -134.23232019 0 3968.68536560 0 640.92256157 0 247.44127656 0 20946
0.13850000 0.13851100 11135.45082405 0 -139.98199668 0 3038.37794798 0 372.59877940 0 -304.01192659 0 20955
0.13950000 0.13949800 11422.71282500 0 178.56827087 0 2495.16439505 0 -130.31712766 0 -555.25859282 0 20506
0.14050000 0.14048300 11048.68439032 0 46.03689664 0 2617.58902696 0 149.75334119 0 -507.46329781 0 21447
0.14150000 0.14148400 10870.37121698 0 136.25424539 0 2771.33519906 0 -48.15365158 0 -431.74813272 0 21771
0.14250000 0.14249400 10987.74935429 0 166.95911502 0 2495.34185420 0 104.10175273 0 -638.33720356 0 22470
0.14350000 0.14350900 10798.83299667 0 55.56800583 0 2536.21291495 0 168.53184675 0 -549.46787889 0 22519
0.14450000 0.14449900 10614.44184740 0 70.70183315 0 2605.87672298 0 -69.34438156 0 -7.98658237 0 22218
0.14550000 0.14550500 10683.78401072 0 105.01444733 0 2930.07240978 0 -75.37621811 0 97.06716107 0 23559
0.14650000 0.14650700 10528.38525028 0 142.77586919 0 2916.20841360 0 216.25615810 0 -65.59866253 0 23044
0.14750000 0.14750500 10184.87978960 0 220.10036696 0 3310.50046511 0 -138.00887275 0 604.50017991 0 23649
0.14850000 0.14849900 10171.55926206 0 175.26642153 0 3427.40168094 0 -145.41446495 0 637.07946183 0 23640
0.14950000 0.14949500 10067.16891639 0 41.95677802 0 3569.05844836 0 250.59672209 0 576.32077582 0 24457
0.15050000 0.15050000 9864.36638019 0 59.84432773 0 3387.10736243 0 -9.95187592 0 583.72747715 0 24591
0.15150000 0.15149900 9924.44739406 0 28.43549982 0 3579.14034639 0 119.20263920 0 1156.45692340 0 25020
0.15250000 0.15250500 9943.92353590 0 -104.61738248 0 3128.26100805 0 466.85288018 0 942.78945067 0 25297
0.15350000 0.15350100 10023.69142435 0 0.62408612 0 2804.12077724 0 414.05434623 0 839.54593476 0 25452
0.15450000 0.15450400 9935.40549664 0 224.82521686 0 2483.17481115 0 82.88795307 0 1220.22021465 0 26061
0.15550000 0.15549900 9498.80052878 0 287.35294877 0 2697.09072669 0 -301.23136352 0 888.02001102 0 26128
0.15650000 0.15649500 9297.14038586 0 225.65372927 0 2908.64421728 0 117.11638506 0 1202.68503228 0 26331
0.15750000 0.15749700 8993.14176871 0 84.46789407 0 2915.16584108 0 159.46922972 0 765.99688043 0 27345
0.15850000 0.15849900 8961.75368135 0 86.69167906 0 2619.16397693 0 93.58818532 0 1184.68401963 0 26980
0.15950000 0.15949700 8828.28221727 0 -76.26218292 0 2273.78410396 0 136.42172246 0 510.04643758 0 27777
0.16050000 0.16050000 8996.39148941 0 64.43053766 0 2248.50726612 0 -10.93454488 0 592.92540677 0 28224
0.16150000 0.16150500 8787.78825721 0 100.37411235 0 2129.08834857 0 -201.22869535 0 -284.39603567 0 28075
0.16250000 0.16249700 8768.91104001 0 31.33762242 0 2304.71745225 0 -80.87024252 0 -71.10666184 0 28590
0.16350000 0.16349900 8799.72238513 0 33.15369501 0 2042.69901554 0 177.46026029 0 -96.36442283 0 29163
0.16450000 0.16449100 8790.53887406 0 -21.41488307 0 2081.60693444 0 312.08520885 0 -312.65640549 0 28996
0.16550000 0.16550500 8840.48253391 0 -45.22934660 0 1690.20968533 0 145.59525146 0 -234.92486080 0 30777
0.16650000 0.16650700 8740.68394377 0 131.50943133 0 1974.47706312 0 -20.97445164 0 -551.04726534 0 29211
0.16750000 0.16749900 8554.03019033 0 219.80866848 0 1939.43997196 0 -469.62567942 0 83.39703901 0 30922
0.16850000 0.16850800 8519.27037910 0 105.02420758 0 2191.65379056 0 -34.59599426 0 -373.43172829 0 30867
0.16950000 0.16949900 8402.95699670 0 22.69813455 0 2397.93896260 0 34.25582725 0 -208.99807881 0 30852
0.17050000 0.17049200 8328.80125390 0 113.43965327 0 2076.07242716 0 157.11900509 0 -209.92419376 0 31257
0.17150000 0.17149500 8162.46657327 0 59.70014217 0 2179.64202426 0 220.12698583 0 -207.30001656 0 32608
0.17250000 0.17250900 8152.48449602 0 15.41121816 0 2112.85083624 0 307.01653184 0 346.85167480 0 32361
0.17350000 0.17350400 8047.52849930 0 36.81545368 0 1669.08095515 0 222.22100382 0 -29.93913339 0 32508
0.17450000 0.17449800 8104.38197485 0 54.51522942 0 1632.50218761 0 -83.33171186 0 309.71169270 0 32791
0.17550000 0.17549800 8050.17929537 0 -5.37585880 0 1595.72377853 0 81.27895312 0 -316.11464070 0 33633
0.17650000 0.17650100 8057.94313323 0 110.03753951 0 1469.61686923 0 -69.05678682 0 104.12726249 0 33984
0.17750000 0.17750300 7886.79487312 0 33.68917799 0 1641.73006347 0 -69.97979623 0 12.57919193 0 34069
0.17850000 0.17849800 7714.70386128 0 148.06858838 0 1769.71138506 0 -230.16784643 0 -98.76189596 0 34536
