### header ###
fiducial parameters:
Omega_m = 0.31
Omega_nu = 0
Omega_de = 0.69
Omega_k = 0
H_0 = 100
w_de = -1
zeff = 0
beta = 0
fgrowth = 0
b_1 = 2
gamma = 0.55
Lx = 3500 Ly = 3500 Lz = 3500
nx = 700 ny = 700 nz = 700
xoffset = 1379.75464 yoffset = 22.6059522 zoffset = 368.141391
bins = 400 dk = 0.001
kx_ny = 0.628318531 ky_ny = 0.628318531 kz_ny = 0.628318531
############################
A(data) = 3.30619591 (not used)
A(ran) = 3.30811045 (used)
Ngal = 185892
weighted Ngal = 0
Nran = 9399747
weighted Nran = 0
SN(data) = 6666.42985
SN(ran) = 131.58136
SN(data+ran) = 6798.01121
############################
13 columns: k_central k_mean P_0(k) sigma^{lin}_{P_0(k)} P^img_1(k) sigma^{lin}_{P_1(k)} P_2(k) sigma^{lin}_{P_2(k)} P^img_3(k) sigma^{lin}_{P_3(k)} P_4(k) sigma^{lin}_{P_4(k)} N_modes
### header ###
0.00050000 0 0 0 0 0 0 0 0 0 0 0 0
0.00150000 0.00179520 35560.15200751 0 -41817.47258979 0 -71787.32859949 0 90180.85870646 0 35174.73291356 0 3
0.00250000 0.00253879 54937.02763591 0 -32701.83964199 0 -12673.79984076 0 -67572.89558311 0 -23559.58782151 0 6
0.00350000 0.00331552 80396.64840661 0 -16161.20489719 0 -72259.48085358 0 -19380.20298748 0 20076.73015583 0 7
0.00450000 0.00420575 84227.65874450 0 1455.69741706 0 -38424.34270742 0 -53061.17349605 0 -11839.63091829 0 24
0.00550000 0.00557378 69349.92715815 0 14198.83942115 0 -26867.20457540 0 -39848.56330754 0 1516.29971719 0 45
0.00650000 0.00659388 42546.60787717 0 8086.28114143 0 26549.99634269 0 -2982.13448826 0 -25170.25144233 0 40
0.00750000 0.00754703 41907.20037310 0 2980.93663899 0 -12287.16071515 0 -1962.44311443 0 9.70002812 0 57
0.00850000 0.00846663 39425.87779185 0 -6636.16259644 0 -4243.12594289 0 20235.44518415 0 -20943.83993324 0 75
0.00950000 0.00948925 50688.43373292 0 -10480.61546503 0 -36265.21939751 0 14525.47517127 0 -4433.05159943 0 112
0.01050000 0.01054430 56848.59542993 0 -6567.78536725 0 -26376.64093439 0 -10471.74250747 0 -5456.73580416 0 105
0.01150000 0.01145670 65246.18428731 0 -2486.86817973 0 -44139.30375893 0 -12027.29397065 0 2587.02168817 0 144
0.01250000 0.01249090 61274.98122000 0 1686.11703366 0 -27518.25783627 0 -18102.38618707 0 -12859.46647768 0 169
0.01350000 0.01339930 68597.94400506 0 -616.05831625 0 -38916.68093995 0 -7112.15240467 0 197.88580859 0 180
0.01450000 0.01448870 64852.66861959 0 -1226.13182263 0 -12665.81417896 0 -7574.23385193 0 -16342.65687927 0 267
0.01550000 0.01550050 64603.78216007 0 1819.56631534 0 -8436.39695550 0 -5857.10583160 0 -20472.02041506 0 238
0.01650000 0.01653350 59028.34836617 0 2700.59554492 0 -1214.37515386 0 -12977.14407730 0 -18222.83658593 0 315
0.01750000 0.01747870 64128.63528281 0 2602.42736073 0 -624.57968286 0 -10933.03647974 0 -22118.50860202 0 297
0.01850000 0.01844180 59739.07226661 0 -1411.42135884 0 10755.17804548 0 -2808.18015532 0 -17422.60672612 0 388
0.01950000 0.01947590 60866.04878852 0 -534.52360012 0 9307.69920536 0 -4127.27839077 0 -30145.76239330 0 399
0.02050000 0.02045430 64158.02695472 0 -2608.44988068 0 6381.59744408 0 -1204.98091005 0 -25881.41899065 0 462
0.02150000 0.02154770 68401.29708317 0 -1946.41633484 0 5022.36016688 0 373.10121062 0 -30562.45866264 0 571
0.02250000 0.02255340 73006.02932016 0 45.77081883 0 4685.67579232 0 -5437.80313097 0 -16981.50982348 0 510
0.02350000 0.02348930 67128.13858548 0 1062.43906511 0 4603.84494124 0 2933.38867767 0 -16348.86794956 0 555
0.02450000 0.02439640 70947.50316657 0 1102.13445898 0 1002.28484934 0 3026.83201196 0 -13066.31730076 0 592
0.02550000 0.02547300 67630.23707133 0 996.03606898 0 7480.23595779 0 2668.85253926 0 -4779.74023364 0 837
0.02650000 0.02652900 63618.88387107 0 4275.68969713 0 6516.77695249 0 -541.53545483 0 942.33138423 0 723
0.02750000 0.02749970 61072.78869963 0 3576.24554398 0 12103.15775778 0 2254.81815718 0 14827.04481629 0 826
0.02850000 0.02848090 53877.92923932 0 1177.38601204 0 12163.82660509 0 5867.04354406 0 16717.31751218 0 831
0.02950000 0.02946900 55008.01129637 0 92.37669388 0 12587.06668063 0 7932.73461088 0 21114.53345427 0 996
0.03050000 0.03053250 56124.22935724 0 843.70624273 0 9924.10356695 0 2644.97319223 0 21459.69150330 0 1041
0.03150000 0.03150510 52142.48965283 0 1918.89907521 0 10147.97937735 0 -4810.25211644 0 14628.62330289 0 1036
0.03250000 0.03246190 52452.82134344 0 1315.34941088 0 13596.03286701 0 -3592.19468520 0 19070.75859262 0 1059
0.03350000 0.03345080 48847.29503951 0 989.54993700 0 17906.95929684 0 -5445.45605687 0 1263.19860283 0 1302
0.03450000 0.03451200 50173.13672271 0 1558.96755185 0 19797.23199273 0 -4204.08492963 0 5389.80043058 0 1339
0.03550000 0.03553350 48536.07605315 0 1043.44539033 0 24530.06755448 0 -2128.64470070 0 -9694.56015491 0 1365
0.03650000 0.03647120 45888.94007752 0 1514.11475139 0 21906.66674031 0 -3298.24469248 0 -9437.84331035 0 1308
0.03750000 0.03744890 46176.86755029 0 1389.76025120 0 25977.80149213 0 -1196.82888029 0 -7547.58170566 0 1579
0.03850000 0.03847530 44121.89057972 0 -565.90281453 0 17004.02495329 0 7860.42000678 0 -8917.95454460 0 1662
0.03950000 0.03950240 44876.42470811 0 -1264.64045843 0 20082.49757824 0 8194.55340604 0 -3698.85872625 0 1683
0.04050000 0.04050350 44498.54762809 0 38.84303539 0 9213.09129539 0 4633.18115717 0 -455.11173909 0 1822
0.04150000 0.04152450 43845.71977571 0 1076.67905287 0 10775.13110879 0 5258.90212420 0 4062.94944847 0 1887
0.04250000 0.04250150 42125.47512904 0 861.91687900 0 7658.12766564 0 -1189.76378783 0 2138.80423710 0 1920
0.04350000 0.04349210 40554.96164118 0 1235.62588721 0 8780.47915842 0 -1810.20534512 0 4300.10142161 0 2005
0.04450000 0.04448520 40969.99423098 0 643.36040666 0 12050.58548424 0 -2891.17558208 0 2500.22198086 0 2151
0.04550000 0.04548030 39764.27021074 0 509.48411389 0 10866.03455898 0 -2224.32845677 0 2211.70667464 0 2274
0.04650000 0.04648670 39734.32397898 0 103.04642534 0 14113.43720464 0 463.40795441 0 -1975.79691555 0 2311
0.04750000 0.04749250 40399.68488390 0 -427.70206408 0 13914.12839548 0 -310.64668060 0 -1730.62600701 0 2568
0.04850000 0.04851840 40219.45293349 0 227.31519057 0 13978.12460188 0 2075.47350253 0 -2460.52658698 0 2493
0.04950000 0.04949480 41541.74543366 0 -567.58756735 0 14153.03277775 0 1799.91271435 0 593.93026922 0 2644
0.05050000 0.05050630 42243.70728851 0 -175.25865770 0 12807.89241187 0 1459.73461275 0 687.98472846 0 2829
0.05150000 0.05149060 41943.91223500 0 -27.82748041 0 8329.62200248 0 2389.02164025 0 1672.05339593 0 2784
0.05250000 0.05249300 40922.08026016 0 662.30971664 0 14932.96574715 0 -1521.45712377 0 1306.05498783 0 3055
0.05350000 0.05348950 39721.01454264 0 2069.62844174 0 10656.81021975 0 -640.63529957 0 96.96534388 0 3009
0.05450000 0.05448610 37583.62997875 0 1991.34677367 0 15931.94985627 0 -2308.07808493 0 -2544.66440703 0 3336
0.05550000 0.05550870 34553.18223658 0 2216.56461891 0 15393.25042050 0 -3907.31777289 0 -2243.58277467 0 3349
0.05650000 0.05647670 32752.74823598 0 1543.62842647 0 18352.15994235 0 1112.58014827 0 -1621.89900333 0 3324
0.05750000 0.05747970 31694.53713515 0 -446.33860231 0 19293.13709143 0 1874.16827792 0 -2654.66689836 0 3639
0.05850000 0.05849280 32301.78016806 0 144.67024563 0 16443.69768347 0 2309.15393103 0 -2532.06480729 0 3846
0.05950000 0.05951020 32129.09023158 0 305.39610797 0 17550.37731496 0 306.33220499 0 -23.26788934 0 3787
0.06050000 0.06049470 31612.46227773 0 315.05321315 0 16600.97085619 0 74.77352247 0 231.21374630 0 3930
0.06150000 0.06148310 31624.44077044 0 336.94612681 0 17526.86397743 0 27.44572141 0 855.44072910 0 4083
0.06250000 0.06249100 31222.49579303 0 -131.67801753 0 16266.79309214 0 993.96977899 0 501.37644892 0 4303
0.06350000 0.06350600 32076.96160592 0 -235.85319398 0 16919.84276845 0 2632.90596995 0 827.61180684 0 4470
0.06450000 0.06451750 31980.24636854 0 -23.41440405 0 14758.39030718 0 738.34541732 0 -89.91988284 0 4479
0.06550000 0.06550280 31852.58669166 0 88.55444559 0 16020.45760792 0 1190.40707726 0 441.45293005 0 4636
0.06650000 0.06648880 31519.73987125 0 679.78722479 0 13202.51719929 0 -1039.52354309 0 -1458.60331066 0 4653
0.06750000 0.06749660 30144.98600951 0 912.66575976 0 15279.67656375 0 -1045.29762022 0 -1957.44098460 0 5220
0.06850000 0.06852730 30121.58358395 0 596.03648752 0 13952.06028905 0 -13.49355021 0 -1774.34750538 0 5029
0.06950000 0.06949320 28172.19480833 0 321.77226026 0 14253.18628619 0 420.49833166 0 -4904.67147606 0 5040
0.07050000 0.07048030 28803.72756256 0 210.31460389 0 13267.95526128 0 425.03352209 0 -3851.49577865 0 5475
0.07150000 0.07148790 27854.32110380 0 475.98204439 0 12949.41608493 0 677.52129326 0 -6503.63388410 0 5509
0.07250000 0.07249820 27250.18360603 0 442.53653999 0 12004.00245706 0 339.00576208 0 -4012.57323193 0 5916
0.07350000 0.07351270 26781.69144693 0 450.77397197 0 13359.34672413 0 1.85445922 0 -4799.18310189 0 5721
0.07450000 0.07449140 27043.11095900 0 -527.25221140 0 11203.55077331 0 2079.33323906 0 -4166.56341036 0 6028
0.07550000 0.07549160 27299.87216836 0 -474.46476865 0 9702.26853679 0 2329.60609820 0 -3696.62939566 0 6183
0.07650000 0.07648840 27309.96515758 0 345.77250134 0 8665.21943974 0 233.32883756 0 -2937.28168780 0 6330
0.07750000 0.07749960 26189.19970596 0 798.58614443 0 8347.40119119 0 422.99717833 0 -2110.11131060 0 6583
0.07850000 0.07848650 25272.84501410 0 1172.60570615 0 9015.45725697 0 -612.74093924 0 -3133.86206251 0 6549
0.07950000 0.07947320 24470.95147474 0 816.65370426 0 9586.59844382 0 -1350.83014991 0 -2333.16637242 0 6828
0.08050000 0.08048110 23074.12613108 0 497.01982676 0 10210.21208343 0 622.78179984 0 -2708.62557151 0 7147
0.08150000 0.08149960 23137.78960157 0 45.25707459 0 9461.74483977 0 501.07809573 0 -1650.71393300 0 7386
0.08250000 0.08250610 22868.27351572 0 264.50397394 0 9152.95482554 0 737.85185906 0 -2452.79602271 0 7227
0.08350000 0.08350160 22173.52093889 0 317.19270504 0 9406.02266630 0 333.55887526 0 -1177.94057189 0 7798
0.08450000 0.08449610 22243.06274375 0 328.60221934 0 9395.76330913 0 318.75656381 0 -823.01894218 0 7371
0.08550000 0.08548940 22101.76089463 0 -185.09433115 0 8987.57398784 0 1243.93319373 0 -395.81930933 0 8256
0.08650000 0.08650700 21790.98555614 0 -186.96874343 0 8439.20302833 0 1663.18043837 0 1295.81781305 0 8037
0.08750000 0.08749060 22200.91619535 0 194.33551645 0 7964.46652535 0 220.04158361 0 332.41648197 0 8155
0.08850000 0.08849210 21689.94475194 0 367.95933171 0 6063.21354449 0 1168.00285942 0 2976.64434577 0 8718
0.08950000 0.08949900 21241.52765933 0 252.55653659 0 7038.92832242 0 765.87487727 0 2526.90740071 0 8571
0.09050000 0.09049190 20125.30959846 0 495.87632436 0 6211.22556776 0 332.70263486 0 3385.27731493 0 8932
0.09150000 0.09150830 19968.81280952 0 309.01738377 0 5154.53396091 0 950.13404129 0 2477.99522217 0 9285
0.09250000 0.09250820 19387.63408943 0 193.71108206 0 5641.33768617 0 -67.04539826 0 3161.74533164 0 9204
0.09350000 0.09350330 18800.02247512 0 512.98560477 0 4159.30976755 0 406.76742984 0 3199.39994528 0 9349
0.09450000 0.09448040 18583.18957478 0 166.27700641 0 4312.93393648 0 834.61367947 0 2052.41490407 0 9564
0.09550000 0.09549270 17925.92524363 0 88.33539445 0 4272.28469967 0 -43.15185449 0 2950.71312730 0 10155
0.09650000 0.09649430 18230.04586395 0 291.62527784 0 3150.15503083 0 213.52217805 0 2049.50901047 0 9913
0.09750000 0.09749140 17633.67220404 0 191.99305565 0 4399.00162480 0 241.00949145 0 2706.96189197 0 10476
0.09850000 0.09850240 17420.61031066 0 11.46752126 0 3761.56835379 0 -316.54608826 0 900.85252589 0 10575
0.09950000 0.09950330 17540.94979755 0 280.82356113 0 4809.54227984 0 -513.59007500 0 1943.13334054 0 10882
0.10050000 0.10051200 17008.46143207 0 230.57932984 0 4856.56895490 0 -413.29459924 0 2070.90392938 0 10875
0.10150000 0.10150300 16962.65478867 0 184.72388517 0 5486.39366480 0 304.27700620 0 2218.57212555 0 11118
0.10250000 0.10250800 17062.36464924 0 49.74923118 0 5472.62948939 0 -176.42323338 0 2009.23687435 0 11575
0.10350000 0.10349800 16950.01082415 0 73.14710935 0 5955.00782706 0 329.65366481 0 1519.27215797 0 11364
0.10450000 0.10450100 16764.56601118 0 199.33320979 0 5793.19835478 0 -28.55384290 0 2629.23478376 0 12093
0.10550000 0.10551000 16845.53174890 0 17.37746555 0 6235.49310668 0 63.96404192 0 2395.48780807 0 12067
0.10650000 0.10649700 17021.43813250 0 -136.26533659 0 5846.10336423 0 641.81429380 0 2303.05377271 0 12054
0.10750000 0.10749900 16604.29821528 0 184.84588834 0 5867.52046553 0 183.68020354 0 2576.91760775 0 12807
0.10850000 0.10850100 16786.08293326 0 226.39129387 0 4985.55957541 0 -271.55353872 0 2884.18812801 0 12736
0.10950000 0.10950300 16510.57760106 0 378.16434203 0 6368.48764929 0 -255.16296787 0 2348.23930907 0 12933
0.11050000 0.11050200 15587.23545512 0 585.65623629 0 6116.22946590 0 47.87016059 0 1950.33152736 0 13428
0.11150000 0.11150900 15290.32411282 0 189.60844831 0 6532.02734829 0 259.83347091 0 2678.22460068 0 13453
0.11250000 0.11250000 14802.64418301 0 -11.21719295 0 5669.53150881 0 874.84034168 0 2120.39285017 0 13668
0.11350000 0.11349100 15126.95078177 0 -92.96508188 0 4967.48092438 0 971.98259016 0 2389.94220960 0 13791
0.11450000 0.11448600 14919.32357490 0 95.25253033 0 4864.22188079 0 367.84841975 0 2136.28653539 0 14205
0.11550000 0.11549300 14785.78556365 0 234.38139215 0 4060.68684429 0 -329.59709971 0 2232.75776645 0 14776
0.11650000 0.11649800 14437.07833159 0 201.52039383 0 4172.43065354 0 39.16268369 0 1977.83769579 0 14553
0.11750000 0.11747300 14288.56720446 0 25.39773189 0 3942.38813764 0 48.15553709 0 1023.27272132 0 14568
0.11850000 0.11849100 14373.85850899 0 -75.33518068 0 3216.15874386 0 479.50349942 0 826.09453110 0 16015
0.11950000 0.11950300 14044.44995963 0 -81.73302673 0 3635.96054835 0 366.40323678 0 -31.84593197 0 15270
0.12050000 0.12050700 14309.30774275 0 156.17847159 0 2662.04254433 0 -214.03570047 0 901.52797978 0 15999
0.12150000 0.12150000 14074.72892729 0 239.79944186 0 2966.87300126 0 -48.53962524 0 -98.23572958 0 15670
0.12250000 0.12250700 13702.28653377 0 371.34325590 0 3388.07229656 0 -562.91262783 0 170.54600811 0 16887
0.12350000 0.12352200 13552.11172709 0 210.67950427 0 3769.09927652 0 -215.27236893 0 289.95383446 0 16407
0.12450000 0.12449800 12948.86152508 0 239.99464692 0 3822.49229863 0 89.46192732 0 -8.52909718 0 16306
0.12550000 0.12549900 13309.87998575 0 103.92129896 0 4340.00754823 0 -111.36005384 0 23.21176789 0 17523
0.12650000 0.12650100 12833.73490076 0 -70.61665276 0 3649.84672693 0 631.27543846 0 480.96199182 0 17154
0.12750000 0.12750600 12972.26395064 0 -3.41834017 0 4092.08602285 0 102.02348425 0 614.60093297 0 18007
0.12850000 0.12850300 12881.09431173 0 245.73766870 0 3703.10665468 0 -207.42867445 0 -233.58393509 0 17496
0.12950000 0.12949900 12689.88207634 0 158.79377583 0 3683.69706002 0 344.41382971 0 468.63745377 0 18405
0.13050000 0.13049000 12426.68797276 0 104.22730508 0 3726.39816827 0 -75.33041146 0 -264.06587166 0 18100
0.13150000 0.13148800 12502.66267185 0 -53.21556296 0 3076.96422216 0 462.01157272 0 648.16400406 0 19059
0.13250000 0.13249300 12248.11970189 0 47.40399758 0 3708.51915879 0 39.66766589 0 -321.37852277 0 18957
0.13350000 0.13349100 12318.77062645 0 132.79711930 0 2673.48865958 0 -18.22816036 0 317.80050264 0 19468
0.13450000 0.13450700 12260.65275444 0 -17.42371585 0 2935.31854594 0 330.16940547 0 -288.13487816 0 19953
0.13550000 0.13551000 12151.84811238 0 177.45804205 0 3019.75582830 0 -388.62001339 0 -133.41157161 0 19956
0.13650000 0.13649900 12046.14900546 0 212.35094765 0 3332.62740302 0 -346.33815238 0 -617.07648813 0 19723
0.13750000 0.13749600 11846.50746040 0 100.17269621 0 3703.84976487 0 -57.58982012 0 -400.17482237 0 20946
0.13850000 0.13851100 11571.77851199 0 367.28165958 0 3550.03704560 0 -162.21430097 0 -214.65015278 0 20955
0.13950000 0.13949800 11386.66643492 0 120.61233033 0 3926.84937072 0 200.25488826 0 -170.85988899 0 20506
0.14050000 0.14048300 11113.49025409 0 70.24321216 0 4077.76728759 0 -53.93138881 0 -118.18446732 0 21447
0.14150000 0.14148400 11091.15258343 0 260.86938870 0 4155.63858136 0 158.61964404 0 427.99819903 0 21771
0.14250000 0.14249400 10818.93024554 0 180.97395148 0 4345.54205551 0 110.52333394 0 497.52003975 0 22470
0.14350000 0.14350900 10619.19997089 0 158.18597823 0 4411.40158299 0 -11.54649058 0 928.22892731 0 22519
0.14450000 0.14449900 10513.37886081 0 1.81364362 0 4304.20516448 0 238.78126998 0 755.95380160 0 22218
0.14550000 0.14550500 10456.58084124 0 154.34287849 0 4371.18490285 0 46.36819070 0 947.81376289 0 23559
0.14650000 0.14650700 10308.80173310 0 85.78086997 0 4149.30550791 0 137.48093177 0 850.99981384 0 23044
0.14750000 0.14750500 10155.48811769 0 95.61953804 0 4411.85632206 0 220.90226050 0 1435.52252981 0 23649
0.14850000 0.14849900 10279.88698266 0 -15.90311274 0 3986.19836559 0 179.84154028 0 1070.43692723 0 23640
0.14950000 0.14949500 10122.75799549 0 12.82164550 0 4233.12168324 0 400.44544758 0 1497.74414469 0 24457
0.15050000 0.15050000 10306.37276097 0 -21.02824394 0 3431.11723192 0 323.96055342 0 1418.38663053 0 24591
0.15150000 0.15149900 10083.66152625 0 23.02465939 0 3587.76929761 0 135.42129650 0 1186.54734072 0 25020
0.15250000 0.15250500 10135.36868642 0 89.14494091 0 3142.05845705 0 -9.98717920 0 1087.65601049 0 25297
0.15350000 0.15350100 9998.56986326 0 55.85748607 0 3182.97388259 0 510.60543391 0 1270.37460725 0 25452
0.15450000 0.15450400 9991.53804440 0 -13.36189770 0 2711.48710033 0 413.76819335 0 1430.35403203 0 26061
0.15550000 0.15549900 9899.28146818 0 49.50112110 0 2477.61812148 0 40.79109322 0 964.07345761 0 26128
0.15650000 0.15649500 9921.00912300 0 121.51182641 0 2220.33562587 0 -37.23015353 0 1173.45972832 0 26331
0.15750000 0.15749700 9523.32316523 0 211.89953594 0 2711.09890843 0 -320.06643417 0 660.28224584 0 27345
0.15850000 0.15849900 9511.66631724 0 246.24231817 0 2618.78687623 0 -399.82766791 0 761.83435422 0 26980
0.15950000 0.15949700 9229.88336757 0 174.22495814 0 3132.46457169 0 -255.70976388 0 367.58777662 0 27777
0.16050000 0.16050000 8919.15239387 0 145.61077913 0 3231.18731573 0 -126.13574641 0 383.64006596 0 28224
0.16150000 0.16150500 8952.89181498 0 44.45717746 0 3533.18951743 0 161.89709273 0 139.10468300 0 28075
0.16250000 0.16249700 8904.81147621 0 -26.95005582 0 3281.04224601 0 298.85230177 0 341.52013643 0 28590
0.16350000 0.16349900 9026.06044125 0 27.71823212 0 3035.74933430 0 407.87876777 0 681.78253113 0 29163
0.16450000 0.16449100 8723.98060117 0 101.01174526 0 2700.09644106 0 17.18702970 0 607.25079675 0 28996
0.16550000 0.16550500 8680.18146442 0 215.51859350 0 2905.77159727 0 -232.82307898 0 469.57798727 0 30777
0.16650000 0.16650700 8413.20526268 0 161.19945645 0 2965.63078720 0 -24.64142317 0 -118.35083528 0 29211
0.16750000 0.16749900 8291.57919695 0 86.05060787 0 3023.21628175 0 -218.80269692 0 513.11093530 0 30922
0.16850000 0.16850800 8115.71717814 0 51.59680276 0 2654.51162160 0 185.35941076 0 -577.12377848 0 30867
0.16950000 0.16949900 8214.67283731 0 -28.13259924 0 2811.05277533 0 282.20108779 0 -52.95314524 0 30852
0.17050000 0.17049200 8108.91827441 0 -0.40352547 0 2315.07663020 0 104.05694430 0 -566.10023784 0 31257
0.17150000 0.17149500 8246.13856305 0 -5.40888838 0 2282.37978160 0 325.28262410 0 -111.24137803 0 32608
0.17250000 0.17250900 8272.46906460 0 0.34275902 0 1942.93369900 0 346.13851084 0 83.16490025 0 32361
0.17350000 0.17350400 8035.79401293 0 46.76048633 0 1789.95281949 0 76.76960518 0 -140.70625184 0 32508
0.17450000 0.17449800 8133.47418445 0 170.02472186 0 1959.78122716 0 -56.75720397 0 380.68648021 0 32791
0.17550000 0.17549800 7847.62076550 0 55.42470757 0 1993.24336835 0 106.07598579 0 274.77664055 0 33633
0.17650000 0.17650100 7818.28454957 0 114.45782515 0 2093.80725108 0 -71.91299186 0 401.27617823 0 33984
0.17750000 0.17750300 7808.96794414 0 92.06658401 0 2159.00130674 0 -85.64145362 0 209.64802295 0 34069
0.17850000 0.17849800 7562.13335606 0 90.13560662 0 2137.99457972 0 28.07891784 0 388.32831491 0 34536
