### header ###
fiducial parameters:
Omega_m = 0.31
Omega_nu = 0
Omega_de = 0.69
Omega_k = 0
H_0 = 100
w_de = -1
zeff = 0
beta = 0
fgrowth = 0
b_1 = 2
gamma = 0.55
Lx = 3500 Ly = 3500 Lz = 3500
nx = 700 ny = 700 nz = 700
xoffset = 1379.75464 yoffset = 22.6059522 zoffset = 368.141391
bins = 400 dk = 0.001
kx_ny = 0.628318531 ky_ny = 0.628318531 kz_ny = 0.628318531
############################
A(data) = 3.32232037 (not used)
A(ran) = 3.32099891 (used)
Ngal = 186275
weighted Ngal = 0
Nran = 9399747
weighted Nran = 0
SN(data) = 6713.87904
SN(ran) = 132.094003
SN(data+ran) = 6845.97304
############################
13 columns: k_central k_mean P_0(k) sigma^{lin}_{P_0(k)} P^img_1(k) sigma^{lin}_{P_1(k)} P_2(k) sigma^{lin}_{P_2(k)} P^img_3(k) sigma^{lin}_{P_3(k)} P_4(k) sigma^{lin}_{P_4(k)} N_modes
### header ###
0.00050000 0 0 0 0 0 0 0 0 0 0 0 0
0.00150000 0.00179520 30777.07332359 0 -25243.56425415 0 -43085.41822491 0 40019.36774055 0 -36146.76541410 0 3
0.00250000 0.00253879 38662.69252984 0 -14230.33842048 0 -4807.86750910 0 -32480.01570302 0 827.98668930 0 6
0.00350000 0.00331552 51126.97966025 0 1699.28228444 0 -30275.75122153 0 -5128.46964809 0 -3767.74615049 0 7
0.00450000 0.00420575 65920.41814979 0 -4904.84893522 0 -8808.99462578 0 -38186.54744485 0 -2372.69539835 0 24
0.00550000 0.00557378 52636.82430081 0 1085.86145482 0 3942.74305594 0 -11711.08394566 0 7199.08520635 0 45
0.00650000 0.00659388 65654.89489485 0 -1183.66362951 0 -3838.21961590 0 2724.95181342 0 2568.59921004 0 40
0.00750000 0.00754703 63180.22703176 0 -5999.26170288 0 10169.20792831 0 -1443.97402189 0 -28054.62812068 0 57
0.00850000 0.00846663 79677.82793240 0 -3135.47028607 0 -7846.16781870 0 -649.84875687 0 -1655.42769170 0 75
0.00950000 0.00948925 59609.63799822 0 1645.40124966 0 -2813.89212175 0 2794.44925350 0 5386.26233875 0 112
0.01050000 0.01054430 71295.21219090 0 -688.28086342 0 -13329.62231631 0 9047.24462742 0 9390.33971382 0 105
0.01150000 0.01145670 66866.16451357 0 -2334.75241359 0 -13475.24973224 0 5249.96261946 0 3805.81113842 0 144
0.01250000 0.01249090 66499.60045443 0 1994.86268311 0 -18439.78039824 0 -2109.56784195 0 6255.10234289 0 169
0.01350000 0.01339930 68509.43625342 0 -3506.06044970 0 -20586.81430347 0 5859.64571570 0 17924.15065211 0 180
0.01450000 0.01448870 68223.28337215 0 -5039.88425806 0 -28982.96130525 0 4298.13827975 0 11394.31936082 0 267
0.01550000 0.01550050 74587.74491695 0 -6846.42950818 0 -33245.30829245 0 4233.49878394 0 -11560.13275519 0 238
0.01650000 0.01653350 81592.61217354 0 -2553.96992127 0 -41332.89819512 0 -7291.65233608 0 -8015.99622637 0 315
0.01750000 0.01747870 85702.23337876 0 -22.19049047 0 -26245.54298646 0 -28106.31309846 0 -11599.28468042 0 297
0.01850000 0.01844180 77234.54815667 0 8298.08972955 0 -13188.20955522 0 -23969.62937268 0 -14196.51026979 0 388
0.01950000 0.01947590 73777.08933200 0 5017.97914409 0 -2179.64202426 0 -15701.25295975 0 -24057.80438842 0 399
0.02050000 0.02045430 67328.88925025 0 4715.94366879 0 10792.69956476 0 -1911.70088839 0 -23115.60720767 0 462
0.02150000 0.02154770 65473.99747263 0 188.45940030 0 15976.53646801 0 5158.13859992 0 -16504.69926668 0 571
0.02250000 0.02255340 64184.75673936 0 -2207.78039092 0 7553.21603371 0 9473.12440784 0 -8502.88868120 0 510
0.02350000 0.02348930 65218.12355903 0 930.61020730 0 4537.19793878 0 93.09129970 0 -9195.61156900 0 555
0.02450000 0.02439640 63560.21143921 0 3095.17596755 0 7440.57383750 0 -1553.17794704 0 -5184.34709831 0 592
0.02550000 0.02547300 58798.87150131 0 2075.00767226 0 8447.84307075 0 -1200.46679289 0 290.54277702 0 837
0.02650000 0.02652900 57030.38014791 0 3484.38825086 0 5560.74904914 0 -1307.98485610 0 -9459.67078594 0 723
0.02750000 0.02749970 54112.50805477 0 1742.77086767 0 14597.78977537 0 -3427.86751121 0 3030.82484286 0 826
0.02850000 0.02848090 51947.95005836 0 1404.07898646 0 8232.31893165 0 2672.34626630 0 -4842.89350906 0 831
0.02950000 0.02946900 50748.88075629 0 -2550.01036396 0 12283.05697228 0 8591.98426629 0 2416.45017031 0 996
0.03050000 0.03053250 52933.07017130 0 -1194.46645534 0 3664.86420760 0 4194.46886188 0 -163.40771376 0 1041
0.03150000 0.03150510 53978.74821958 0 379.07049282 0 3628.80672632 0 -1802.45259845 0 -5208.34844851 0 1036
0.03250000 0.03246190 51882.17926046 0 3381.02938650 0 8189.77310016 0 -4935.95974266 0 351.27484415 0 1059
0.03350000 0.03345080 48592.08659774 0 2416.45017031 0 8151.13136999 0 -6357.85119142 0 -9317.37072910 0 1302
0.03450000 0.03451200 47437.27117149 0 944.11484870 0 16169.07964703 0 -1421.35907131 0 562.55881865 0 1339
0.03550000 0.03553350 46438.95253418 0 -18.28916194 0 11349.84366106 0 734.85834500 0 -11455.76459191 0 1365
0.03650000 0.03647120 47829.12315967 0 -677.38930801 0 15732.19739924 0 3660.64955276 0 -2254.45214768 0 1308
0.03750000 0.03744890 49346.17707825 0 -1717.68258017 0 7854.89659070 0 4744.11530904 0 -5934.62220707 0 1579
0.03850000 0.03847530 48951.33046689 0 78.58445774 0 10395.19106613 0 1573.81866456 0 3185.55813148 0 1662
0.03950000 0.03950240 48465.86877647 0 2123.16564940 0 12155.50820737 0 -2477.14120001 0 458.66314036 0 1683
0.04050000 0.04050350 47154.66747325 0 2320.66659346 0 15144.14213704 0 -2439.57531594 0 -713.94811139 0 1822
0.04150000 0.04152450 43254.22624246 0 1481.83936827 0 17006.02136874 0 1520.89147272 0 5462.20376426 0 1887
0.04250000 0.04250150 42807.58374136 0 659.25631012 0 17663.72934777 0 -1168.66833124 0 2047.50150382 0 1920
0.04350000 0.04349210 42948.33103063 0 138.45695710 0 18403.73400816 0 2059.28035498 0 4004.24374302 0 2005
0.04450000 0.04448520 42391.77476777 0 855.03700953 0 18592.50618021 0 203.72532378 0 1055.52037645 0 2151
0.04550000 0.04548030 40558.06717632 0 1347.70243238 0 17239.15832859 0 -682.75079262 0 3010.33940210 0 2274
0.04650000 0.04648670 40146.69468151 0 679.03745988 0 20219.25203661 0 -563.60028204 0 1679.50668028 0 2311
0.04750000 0.04749250 39038.57319441 0 229.55117588 0 18162.94412241 0 168.76476188 0 -3649.83563574 0 2568
0.04850000 0.04851840 40226.55129954 0 -224.14421737 0 18502.22383706 0 2609.25953805 0 -1831.70008480 0 2493
0.04950000 0.04949480 38559.98804610 0 201.53813975 0 14639.04902802 0 1579.20898628 0 -4043.88368091 0 2644
0.05050000 0.05050630 38047.57474709 0 883.08221014 0 15980.97294679 0 1671.23264736 0 274.05904011 0 2829
0.05150000 0.05149060 37148.63323444 0 80.45809364 0 10232.23920057 0 2127.89049930 0 -2547.23756472 0 2784
0.05250000 0.05249300 37472.27436139 0 64.02981272 0 15360.86412541 0 2448.89192138 0 4417.71247405 0 3055
0.05350000 0.05348950 36374.24586351 0 1078.73425166 0 9970.80859730 0 1172.06223750 0 -568.83310876 0 3009
0.05450000 0.05448610 35062.60091242 0 589.18878252 0 12409.49661749 0 712.77133540 0 7961.56063175 0 3336
0.05550000 0.05550870 35285.86670698 0 321.78889706 0 10804.81115182 0 746.97991415 0 3725.05613344 0 3349
0.05650000 0.05647670 34142.03156571 0 532.82221051 0 12722.60110734 0 406.54560590 0 3539.24531097 0 3324
0.05750000 0.05747970 33672.54119890 0 1050.25427614 0 12558.56230447 0 -772.61499765 0 6844.47745752 0 3639
0.05850000 0.05849280 32796.22572802 0 75.40305880 0 12257.43630733 0 625.90840826 0 2819.28244347 0 3846
0.05950000 0.05951020 33382.17366279 0 75.05934261 0 12811.44159489 0 1407.91654061 0 4486.08970324 0 3787
0.06050000 0.06049470 32487.22498104 0 285.68816011 0 14217.58354399 0 -627.65859914 0 2628.20330244 0 3930
0.06150000 0.06148310 32247.54421499 0 482.34284584 0 10725.27617851 0 1239.49671495 0 5518.83541588 0 4083
0.06250000 0.06249100 31927.11953515 0 433.31642797 0 12820.31455245 0 601.23049505 0 3370.04910152 0 4303
0.06350000 0.06350600 30747.57073971 0 424.33255844 0 11601.17018390 0 -94.66125863 0 2603.27029170 0 4470
0.06450000 0.06451750 30953.20153113 0 496.11922157 0 13822.18237278 0 521.85634409 0 3053.42870224 0 4479
0.06550000 0.06550280 29658.63702333 0 511.15333903 0 10817.59930190 0 52.65645572 0 2993.63605949 0 4636
0.06650000 0.06648880 29618.70871432 0 246.84678840 0 11611.70682100 0 1704.18459349 0 2685.75552341 0 4653
0.06750000 0.06749660 29189.25756848 0 -173.42528284 0 9585.83315123 0 1665.65377529 0 1941.90221768 0 5220
0.06850000 0.06852730 29029.10068455 0 148.83831745 0 9078.04488135 0 630.20957444 0 3560.56259150 0 5029
0.06950000 0.06949320 28866.61464926 0 424.00536813 0 8754.22629525 0 -403.18940970 0 1177.00891134 0 5040
0.07050000 0.07048030 28275.12111601 0 629.14592865 0 8950.68466679 0 -425.79326908 0 2475.48861166 0 5475
0.07150000 0.07148790 27381.94702577 0 836.22301215 0 10010.50399118 0 -2016.25760202 0 -1339.31748748 0 5509
0.07250000 0.07249820 26846.57494908 0 421.55975921 0 11127.57607421 0 -1058.03585992 0 -963.51224305 0 5916
0.07350000 0.07351270 26031.48288536 0 429.03411683 0 11768.75816979 0 -332.43866437 0 -2189.93465503 0 5721
0.07450000 0.07449140 26155.59337921 0 -160.12804682 0 11334.31598533 0 764.99312711 0 -2087.52963361 0 6028
0.07550000 0.07549160 27005.40088938 0 -631.63812060 0 10705.35638879 0 2613.84020239 0 -1280.36777570 0 6183
0.07650000 0.07648840 26762.39276424 0 -252.69184919 0 8917.44434954 0 1572.08843783 0 -1726.32262260 0 6330
0.07750000 0.07749960 27261.38571494 0 412.55925288 0 8705.10338396 0 -196.15780011 0 -1109.16405961 0 6583
0.07850000 0.07848650 26608.44695060 0 685.60788495 0 10504.82754796 0 -1862.62234189 0 -2334.10912416 0 6549
0.07950000 0.07947320 25414.81233504 0 1319.96334881 0 10232.00628543 0 -1268.57783335 0 -1241.70386314 0 6828
0.08050000 0.08048110 24747.45501466 0 608.78692753 0 12220.61353346 0 -997.49234314 0 -2778.44465630 0 7147
0.08150000 0.08149960 23510.45381903 0 360.19882121 0 10881.70642026 0 1328.05992258 0 -3095.35342670 0 7386
0.08250000 0.08250610 22761.02164123 0 468.67072736 0 11188.68856940 0 1051.88135473 0 -2741.54424406 0 7227
0.08350000 0.08350160 22961.32865812 0 261.39289320 0 10488.87840675 0 1058.61703864 0 -2065.81306999 0 7798
0.08450000 0.08449610 22149.67486545 0 21.72588023 0 10055.92244268 0 1723.50545857 0 231.82265301 0 7371
0.08550000 0.08548940 21814.94254155 0 94.82485378 0 8316.72294043 0 1286.00210375 0 -481.93358067 0 8256
0.08650000 0.08650700 21854.53811466 0 448.21412371 0 8903.87981567 0 -80.83253245 0 946.15008334 0 8037
0.08750000 0.08749060 20741.31467696 0 543.80249549 0 9071.73399028 0 -438.56700061 0 -658.39674236 0 8155
0.08850000 0.08849210 20663.67629833 0 414.09427454 0 9052.75695231 0 -299.70743305 0 1686.01721289 0 8718
0.08950000 0.08949900 20213.70643814 0 116.50304186 0 8186.44574107 0 469.28517967 0 -553.73133500 0 8571
0.09050000 0.09049190 20075.84286007 0 -112.64663268 0 9579.76626650 0 503.41833828 0 870.76765417 0 8932
0.09150000 0.09150830 20076.28650795 0 106.34638917 0 7765.78991442 0 926.10385398 0 552.92167762 0 9285
0.09250000 0.09250820 20587.14703938 0 -47.59210428 0 8300.81816400 0 967.03369808 0 -137.42991227 0 9204
0.09350000 0.09350330 19563.98412091 0 470.71039848 0 6998.42327116 0 -386.82989420 0 395.42779008 0 9349
0.09450000 0.09448040 19490.00583726 0 541.32804945 0 6851.38727322 0 118.46285636 0 -671.28804057 0 9564
0.09550000 0.09549270 18191.78123447 0 470.84571109 0 7943.09378883 0 -478.90013831 0 511.11673808 0 10155
0.09650000 0.09649430 17539.95158983 0 769.28431121 0 6961.43412934 0 287.11226980 0 -859.35813986 0 9913
0.09750000 0.09749140 17077.33776512 0 287.53040793 0 7632.92846618 0 312.80502753 0 -195.99254127 0 10476
0.09850000 0.09850240 16486.95335156 0 -33.48942554 0 6435.32320210 0 246.54510784 0 -1576.09235993 0 10575
0.09950000 0.09950330 16423.73352896 0 113.54723788 0 6913.19851381 0 847.38408364 0 -1073.12099689 0 10882
0.10050000 0.10051200 16539.63653707 0 -67.71685932 0 5555.02599152 0 127.63416712 0 -1383.46045134 0 10875
0.10150000 0.10150300 16242.39245886 0 -66.72342081 0 5279.89776002 0 826.73671140 0 -951.33743616 0 11118
0.10250000 0.10250800 16517.67596711 0 54.50746558 0 5388.07020386 0 133.89847516 0 -1059.31245669 0 11575
0.10350000 0.10349800 16473.20026735 0 119.65072356 0 4471.08331377 0 182.29380392 0 -2072.29032900 0 11364
0.10450000 0.10450100 16141.12983072 0 314.34448567 0 4886.79246658 0 64.57195042 0 -908.35793886 0 12093
0.10550000 0.10551000 15506.49154134 0 382.37456039 0 4898.77095929 0 -562.26822929 0 -891.57252140 0 12067
0.10650000 0.10649700 15345.89100953 0 398.25937266 0 5309.64435023 0 238.32764002 0 -411.96698297 0 12054
0.10750000 0.10749900 14728.44407542 0 227.03347417 0 5269.42767010 0 460.66177405 0 -625.36050313 0 12807
0.10850000 0.10850100 14275.14685615 0 129.39323096 0 4839.67706195 0 488.46296832 0 333.28048622 0 12736
0.10950000 0.10950300 14423.10342344 0 31.06211709 0 4491.41347777 0 431.10484330 0 -72.13049023 0 12933
0.11050000 0.11050200 14183.86630526 0 -77.56506583 0 4130.32846993 0 328.50572593 0 -327.43209807 0 13428
0.11150000 0.11150900 14202.61042811 0 214.32185335 0 4414.97294841 0 -201.45273753 0 589.64352160 0 13453
0.11250000 0.11250000 14096.46767331 0 206.80091270 0 4345.22041080 0 -244.86479150 0 -253.30851974 0 13668
0.11350000 0.11349100 14007.29444985 0 -130.97261740 0 4464.78351390 0 72.02900578 0 225.56167234 0 13791
0.11450000 0.11448600 14320.73167561 0 -166.69181717 0 4277.41992385 0 530.26347138 0 -776.83519809 0 14205
0.11550000 0.11549300 14677.64639340 0 -14.16656404 0 4194.46886188 0 134.92773823 0 546.23701322 0 14776
0.11650000 0.11649800 14311.85871805 0 183.53158150 0 4198.70569911 0 1.47190166 0 288.51197886 0 14553
0.11750000 0.11747300 14371.41844566 0 229.67428816 0 4726.45812350 0 -288.49645118 0 1109.11193098 0 14568
0.11850000 0.11849100 13947.18016239 0 426.28128175 0 5269.06166060 0 -369.55646408 0 763.24293623 0 16015
0.11950000 0.11950300 13621.09897211 0 320.00321435 0 6240.16250060 0 -232.00122128 0 1326.48497261 0 15270
0.12050000 0.12050700 13489.00281646 0 -185.08989467 0 5532.63286488 0 652.87554452 0 1776.93175427 0 15999
0.12150000 0.12150000 13558.76644526 0 -157.50165138 0 5288.87053835 0 374.81701879 0 453.27281864 0 15670
0.12250000 0.12250700 13917.12301866 0 13.27516454 0 4522.65737958 0 247.47233191 0 1644.00375885 0 16887
0.12350000 0.12352200 13831.83171413 0 18.55113602 0 4712.07284106 0 -150.00178401 0 -205.29583727 0 16407
0.12450000 0.12449800 13541.35326605 0 250.44699093 0 4392.35799783 0 -121.34767669 0 651.33941374 0 16306
0.12550000 0.12549900 13391.95484316 0 260.77844089 0 4281.17983962 0 -107.76417688 0 -746.13698318 0 17523
0.12650000 0.12650100 12940.76495131 0 201.24200479 0 4268.92406699 0 -218.65740224 0 -768.61662115 0 17154
0.12750000 0.12750600 12747.00174062 0 111.85915770 0 4384.22815047 0 357.73879373 0 -1405.73157481 0 18007
0.12850000 0.12850300 12587.84306442 0 236.38224408 0 4079.67497346 0 -313.79658054 0 -1683.31096083 0 17496
0.12950000 0.12949900 12262.31643399 0 201.50486616 0 4252.66437227 0 216.50792827 0 -1600.92554990 0 18405
0.13050000 0.13049000 12064.33856846 0 66.04419591 0 4133.66692021 0 398.98140958 0 -953.55900291 0 18100
0.13150000 0.13148800 11977.16176045 0 -71.98963203 0 3823.21322643 0 244.96683052 0 -902.45076737 0 19059
0.13250000 0.13249300 12155.39729540 0 -16.19924770 0 3311.68722318 0 671.56864786 0 -797.20529041 0 18957
0.13350000 0.13349100 12165.37937266 0 -47.68161024 0 3248.85559247 0 569.52409033 0 -195.49676477 0 19468
0.13450000 0.13450700 12186.89629474 0 7.01019103 0 2970.24472513 0 224.22296486 0 412.67349221 0 19953
0.13550000 0.13551000 12223.60815664 0 99.28429134 0 2513.97506507 0 304.19382222 0 656.77520937 0 19956
0.13650000 0.13649900 11945.55184914 0 130.24947136 0 3273.16749618 0 -61.50734180 0 368.49947301 0 19723
0.13750000 0.13749600 11669.82469301 0 402.24111236 0 2691.29003068 0 -316.03589320 0 644.68247733 0 20946
0.13850000 0.13851100 11348.40180545 0 192.22707991 0 3148.92390796 0 135.76512360 0 690.17967633 0 20955
0.13950000 0.13949800 10987.60516873 0 72.87559684 0 3180.74455201 0 492.54231056 0 1063.81326441 0 20506
0.14050000 0.14048300 11063.54659423 0 56.16526679 0 2645.53884327 0 326.54036583 0 1419.17410551 0 21447
0.14150000 0.14148400 10872.57836518 0 12.00411337 0 2554.48011633 0 233.09592242 0 1298.16914680 0 21771
0.14250000 0.14249400 10871.14760077 0 189.94783894 0 2637.17608077 0 -31.93865438 0 1218.85599743 0 22470
0.14350000 0.14350900 10744.98523548 0 53.04997139 0 2593.94259507 0 -255.38701005 0 1101.38136671 0 22519
0.14450000 0.14449900 10568.60193042 0 125.58229569 0 2948.52816150 0 -234.11631254 0 1046.72394815 0 22218
0.14550000 0.14550500 10580.43623756 0 58.00895645 0 2792.10901094 0 -224.73648728 0 572.17599552 0 23559
0.14650000 0.14650700 10425.86931689 0 188.05235338 0 3451.10356882 0 -320.74410631 0 142.68159402 0 23044
0.14750000 0.14750500 10299.27439492 0 236.28464155 0 3419.34947196 0 -230.06358918 0 264.63595918 0 23649
0.14850000 0.14849900 10171.39289411 0 -3.64883743 0 3906.92958100 0 286.45678006 0 444.33109566 0 23640
0.14950000 0.14949500 10040.36149336 0 76.71093275 0 3263.06341576 0 167.71442553 0 123.27310848 0 24457
0.15050000 0.15050000 10153.52497583 0 108.78501064 0 3658.88605245 0 -69.22881129 0 418.90785402 0 24591
0.15150000 0.15149900 9849.97000655 0 110.16930293 0 3538.73511591 0 122.75293134 0 121.05265085 0 25020
0.15250000 0.15250500 9702.87855262 0 104.18072205 0 3277.23796546 0 256.60925995 0 391.84200610 0 25297
0.15350000 0.15350100 9815.97548790 0 -3.23099877 0 3241.12502819 0 109.30163860 0 119.87365662 0 25452
0.15450000 0.15450400 9613.58332599 0 85.00337706 0 3140.50568948 0 46.82902993 0 129.58067219 0 26061
0.15550000 0.15549900 9486.63348572 0 158.81373998 0 3004.89362439 0 -57.46038585 0 332.49301123 0 26128
0.15650000 0.15649500 9356.16773602 0 -10.91390417 0 2857.24761062 0 243.56157586 0 56.39629642 0 26331
0.15750000 0.15749700 9468.04463964 0 -91.43250028 0 2647.98999780 0 176.60291077 0 -191.41742253 0 27345
0.15850000 0.15849900 9574.93050463 0 34.31250326 0 2606.29818847 0 131.92091474 0 -130.53451512 0 26980
0.15950000 0.15949700 9355.74627054 0 84.56028374 0 2212.09486654 0 199.78573063 0 -111.89686777 0 27777
0.16050000 0.16050000 9473.96733881 0 -29.41252336 0 2073.11107758 0 365.93297003 0 491.69827047 0 28224
0.16150000 0.16150500 9295.73180385 0 51.58083144 0 1897.62615946 0 348.85363585 0 31.80822190 0 28075
0.16250000 0.16249700 9173.52899587 0 283.39560970 0 1899.22329182 0 -71.35377371 0 105.21264702 0 28590
0.16350000 0.16349900 8822.69225401 0 295.27871811 0 1900.08840518 0 -434.72500998 0 616.36886976 0 29163
0.16450000 0.16449100 8646.29785774 0 124.41882913 0 2534.99288329 0 -107.45972352 0 350.59162641 0 28996
0.16550000 0.16550500 8471.68914419 0 74.44866131 0 2318.99182272 0 -131.65361690 0 -152.14903974 0 30777
0.16650000 0.16650700 8426.81416134 0 14.96757028 0 2509.93786938 0 -68.17381663 0 -107.20540237 0 29211
0.16750000 0.16749900 8382.59355910 0 71.06495894 0 2377.75298415 0 -9.36853442 0 11.45498821 0 30922
0.16850000 0.16850800 8485.67514354 0 -31.71971415 0 2333.15528123 0 262.55081416 0 -404.32071179 0 30867
0.16950000 0.16949900 8519.52547663 0 -7.44523214 0 2340.88584550 0 151.88617837 0 -54.86316026 0 30852
0.17050000 0.17049200 8403.93302203 0 108.91888139 0 2376.10039581 0 -173.89776783 0 -302.05211209 0 31257
0.17150000 0.17149500 8412.16269017 0 173.12360228 0 2380.90288409 0 -42.81235296 0 -33.92808238 0 32608
0.17250000 0.17250900 8176.33056946 0 65.64957112 0 2527.35104859 0 -111.93790520 0 51.64760045 0 32361
0.17350000 0.17350400 8184.27186647 0 0.64394159 0 2465.60635518 0 253.69227516 0 227.66899976 0 32508
0.17450000 0.17449800 8240.24913747 0 22.99293857 0 2520.44123289 0 222.10010977 0 379.26015229 0 32791
0.17550000 0.17549800 8128.38332505 0 58.75495036 0 2298.26237563 0 106.72936820 0 202.25463107 0 33633
0.17650000 0.17650100 8064.39820986 0 123.54595193 0 2398.73752878 0 83.09680030 0 613.62047116 0 33984
0.17750000 0.17750300 7860.68619551 0 113.34537809 0 2428.80576371 0 -37.63875323 0 451.39175164 0 34069
0.17850000 0.17849800 7779.90900813 0 171.23477144 0 2506.16686242 0 -28.18106777 0 835.42222773 0 34536
