### header ###
fiducial parameters:
Omega_m = 0.31
Omega_nu = 0
Omega_de = 0.69
Omega_k = 0
H_0 = 100
w_de = -1
zeff = 0
beta = 0
fgrowth = 0
b_1 = 2
gamma = 0.55
Lx = 3500 Ly = 3500 Lz = 3500
nx = 700 ny = 700 nz = 700
xoffset = 1379.75464 yoffset = 22.6059522 zoffset = 368.141391
bins = 400 dk = 0.001
kx_ny = 0.628318531 ky_ny = 0.628318531 kz_ny = 0.628318531
############################
A(data) = 3.34019003 (not used)
A(ran) = 3.3457784 (used)
Ngal = 188317
weighted Ngal = 0
Nran = 9399747
weighted Nran = 0
SN(data) = 6613.3122
SN(ran) = 133.079617
SN(data+ran) = 6746.39182
############################
13 columns: k_central k_mean P_0(k) sigma^{lin}_{P_0(k)} P^img_1(k) sigma^{lin}_{P_1(k)} P_2(k) sigma^{lin}_{P_2(k)} P^img_3(k) sigma^{lin}_{P_3(k)} P_4(k) sigma^{lin}_{P_4(k)} N_modes
### header ###
0.00050000 0 0 0 0 0 0 0 0 0 0 0 0
0.00150000 0.00179520 47065.60516175 0 -36591.18967582 0 8993.20831589 0 -43970.49574138 0 166153.89412224 0 3
0.00250000 0.00253879 77844.45307686 0 -37001.00940306 0 -49009.44833890 0 -13481.90445041 0 -32435.65091523 0 6
0.00350000 0.00331552 113230.02964440 0 -35704.55939178 0 -35299.06523135 0 -33636.27298487 0 3614.87618296 0 7
0.00450000 0.00420575 136117.82366676 0 -19176.01405166 0 -42022.32699743 0 -42086.65593973 0 -21904.00485304 0 24
0.00550000 0.00557378 156349.27602001 0 2271.62132056 0 9838.83444481 0 -57561.09392189 0 5546.14194276 0 45
0.00650000 0.00659388 140282.56812081 0 12023.74478763 0 1632.16945170 0 -34429.51539061 0 -77300.31895458 0 40
0.00750000 0.00754703 130833.97744062 0 25677.45187877 0 78841.55168250 0 -38479.35504429 0 8541.03130751 0 57
0.00850000 0.00846663 107253.20543295 0 22772.88922197 0 74095.07394851 0 13137.63369714 0 -20976.44805226 0 75
0.00950000 0.00948925 96514.37581177 0 6383.94877784 0 107598.47439394 0 33406.57429608 0 28567.37415560 0 112
0.01050000 0.01054430 83417.66863137 0 3050.20116393 0 53244.51098161 0 48339.20730732 0 -12877.98877658 0 105
0.01150000 0.01145670 93340.62980503 0 2240.86543142 0 72997.93274639 0 15350.54931225 0 6359.07122308 0 144
0.01250000 0.01249090 67646.76295478 0 9620.62623605 0 39530.91142695 0 6988.75174742 0 11174.49183730 0 169
0.01350000 0.01339930 73624.03081412 0 479.48908087 0 48481.95101204 0 18040.49730810 0 30459.19961906 0 180
0.01450000 0.01448870 69681.44303493 0 -3904.35642330 0 28972.75740406 0 16187.60194593 0 -3782.68599278 0 267
0.01550000 0.01550050 73431.15489919 0 -2758.33631624 0 8267.84403548 0 4579.52194633 0 -15404.56344139 0 238
0.01650000 0.01653350 74366.69736177 0 2953.57465611 0 16673.95093211 0 -12016.09186173 0 3302.31516176 0 315
0.01750000 0.01747870 67814.12911673 0 6266.09371906 0 23593.41597220 0 -14848.45082640 0 -9874.12663350 0 297
0.01850000 0.01844180 65957.01909972 0 6488.53876506 0 35034.54018414 0 -6087.60308658 0 -3506.89228947 0 388
0.01950000 0.01947590 56837.39332101 0 2062.09751901 0 35145.78488953 0 2872.81965113 0 -13442.97434912 0 399
0.02050000 0.02045430 60381.25256991 0 151.59226165 0 47217.66547191 0 13346.25911174 0 9797.53082738 0 462
0.02150000 0.02154770 63389.62883015 0 -3228.11505417 0 31925.34494364 0 11923.92401510 0 6674.19431077 0 571
0.02250000 0.02255340 62316.44461344 0 654.50484135 0 38994.87387844 0 18686.55953033 0 21044.54800153 0 510
0.02350000 0.02348930 64753.62423084 0 -709.06798474 0 27884.04551162 0 -228.94559652 0 27064.62788108 0 555
0.02450000 0.02439640 64694.06450323 0 -2157.61490713 0 13859.11605862 0 12661.59952412 0 10143.09925069 0 592
0.02550000 0.02547300 68933.67453668 0 -957.18693343 0 24667.82022057 0 3992.12106476 0 23038.41247691 0 837
0.02650000 0.02652900 61366.81633073 0 4215.93032797 0 7489.26419211 0 -5411.02898154 0 4269.21243811 0 723
0.02750000 0.02749970 66681.93973226 0 1164.85295949 0 15777.22765885 0 7617.42297284 0 22836.99634033 0 826
0.02850000 0.02848090 57328.84425779 0 919.83843682 0 13850.24310106 0 -6149.24795922 0 -152.84445778 0 831
0.02950000 0.02946900 55702.32022533 0 4524.49851827 0 7148.05460919 0 2523.19184974 0 7179.87525323 0 996
0.03050000 0.03053250 53005.05203949 0 21.35166325 0 14763.38134581 0 2907.10254090 0 4110.33104183 0 1041
0.03150000 0.03150510 50121.00809705 0 -310.73430106 0 1709.47509443 0 4307.23306125 0 -271.34946070 0 1036
0.03250000 0.03246190 52547.76198932 0 857.45932695 0 8113.16620284 0 3500.57030721 0 8101.07679816 0 1059
0.03350000 0.03345080 49654.17961750 0 1070.61549550 0 93.96539693 0 -5379.50779981 0 -2487.06782128 0 1302
0.03450000 0.03451200 48234.28458419 0 2970.24472513 0 11878.56101958 0 -4660.78714637 0 1166.84937494 0 1339
0.03550000 0.03553350 46277.24288267 0 972.83550320 0 11552.59074127 0 -4429.50241641 0 -4353.10625183 0 1365
0.03650000 0.03647120 46857.86704291 0 283.44773833 0 21973.43574594 0 -4167.84998920 0 -4246.27584282 0 1308
0.03750000 0.03744890 46740.63309117 0 -723.20371525 0 15725.20994516 0 2492.40268701 0 -7605.46666253 0 1579
0.03850000 0.03847530 47015.25112761 0 277.20006709 0 22148.56574575 0 770.03407612 0 -4953.82766094 0 1662
0.03950000 0.03950240 47289.64734011 0 753.59026753 0 22093.44249692 0 -1449.03160769 0 -2810.01020282 0 1683
0.04050000 0.04050350 47134.25967086 0 1172.88298608 0 25254.76636307 0 3958.61455877 0 1200.22278655 0 1822
0.04150000 0.04152450 44661.92095913 0 2087.21908010 0 27424.53722205 0 -1503.51156710 0 4932.21091809 0 1887
0.04250000 0.04250150 44161.59706480 0 184.69061158 0 23961.20006300 0 1978.63626197 0 3276.96068553 0 1920
0.04350000 0.04349210 42475.40239276 0 1183.64144712 0 26537.01964226 0 2777.34662780 0 2345.54414822 0 2005
0.04450000 0.04448520 41590.21396432 0 1841.77089163 0 26001.86938950 0 -1794.56675742 0 5631.49979448 0 2151
0.04550000 0.04548030 38569.19373957 0 1576.93529090 0 26614.10346105 0 661.57880676 0 2267.63958085 0 2274
0.04650000 0.04648670 38868.10149732 0 575.73294239 0 25818.19916804 0 1767.00513300 0 3001.99882199 0 2311
0.04750000 0.04749250 36207.32334944 0 -146.48254721 0 21471.66999600 0 3063.02258760 0 763.80082344 0 2568
0.04850000 0.04851840 37719.60805333 0 41.93858846 0 20146.49378463 0 3885.36829413 0 4563.75026427 0 2493
0.04950000 0.04949480 36112.93726341 0 669.58997832 0 18413.93790935 0 3508.33414507 0 1090.05059991 0 2644
0.05050000 0.05050630 35737.16751081 0 145.08949288 0 15906.55101526 0 2748.58715412 0 6535.45452815 0 2829
0.05150000 0.05149060 35754.02613017 0 -231.99789393 0 14552.87042773 0 2430.69126719 0 4718.66101205 0 2784
0.05250000 0.05249300 33990.96946328 0 1143.93496204 0 12773.73152527 0 721.50343476 0 6440.96862135 0 3055
0.05350000 0.05348950 33939.94995732 0 524.68349019 0 12933.99932117 0 -576.51043529 0 6585.89729187 0 3009
0.05450000 0.05448610 34093.11938717 0 -526.31500526 0 12747.66721244 0 2175.78228773 0 8029.70494580 0 3336
0.05550000 0.05550870 34030.67594835 0 -286.76955181 0 10635.88113110 0 2212.82688553 0 4067.57447759 0 3349
0.05650000 0.05647670 33129.18346040 0 331.96617938 0 9750.79252344 0 493.37415033 0 2141.06684128 0 3324
0.05750000 0.05747970 32920.66895778 0 1379.62289719 0 10952.87863108 0 -2467.63604422 0 4365.67257797 0 3639
0.05850000 0.05849280 31351.48641354 0 663.03951740 0 10790.74751409 0 80.81556292 0 2554.83503463 0 3846
0.05950000 0.05951020 31897.94968718 0 -336.28952795 0 10282.23831641 0 1827.67398031 0 1608.03500714 0 3787
0.06050000 0.06049470 30951.20511568 0 -33.21203470 0 9551.23970795 0 280.69157589 0 -432.54891714 0 3930
0.06150000 0.06148310 31378.88167000 0 790.02263126 0 8120.24238649 0 282.35636455 0 1315.60450841 0 4083
0.06250000 0.06249100 31813.98932628 0 -823.28069443 0 7815.26774400 0 504.90344955 0 -1755.13755227 0 4303
0.06350000 0.06350600 31663.92543157 0 -636.26647709 0 6737.05921508 0 1411.80955074 0 -1125.24629518 0 4470
0.06450000 0.06451750 32626.30859077 0 66.20878927 0 6590.98815127 0 -97.37516361 0 -3411.84073162 0 4479
0.06550000 0.06550280 31780.93755938 0 239.80831482 0 6432.15111977 0 -609.16070087 0 -2320.72204945 0 4636
0.06650000 0.06648880 31885.41663463 0 864.19611997 0 6875.22225546 0 -1224.62341984 0 -2000.63010552 0 4653
0.06750000 0.06749660 30973.05477367 0 374.08943627 0 6034.67589474 0 403.88704599 0 -3579.51744708 0 5220
0.06850000 0.06852730 30748.90168334 0 249.33232564 0 6749.49244686 0 493.49282613 0 -3560.45167953 0 5029
0.06950000 0.06949320 29904.19612377 0 50.30556561 0 7043.69753710 0 514.73357741 0 -1208.03098921 0 5040
0.07050000 0.07048030 29990.15290012 0 925.36296202 0 7095.06087017 0 -431.08266091 0 -3593.30380489 0 5475
0.07150000 0.07148790 28925.95255293 0 1096.16184943 0 8710.20533456 0 -1507.28257407 0 -1929.52444189 0 5509
0.07250000 0.07249820 27083.26109196 0 1061.03159221 0 8945.72690176 0 -981.67851453 0 -2494.36582887 0 5916
0.07350000 0.07351270 26710.70778647 0 0.50116239 0 10623.95809438 0 493.61150194 0 -1365.34852672 0 5721
0.07450000 0.07449140 26411.46729280 0 142.39433202 0 10085.42502656 0 809.81043574 0 -2299.37149532 0 6028
0.07550000 0.07549160 27034.45982538 0 -11.78118031 0 9101.58040127 0 1462.06376411 0 -747.95150300 0 6183
0.07650000 0.07648840 26249.31399342 0 242.02877245 0 9136.62858363 0 910.55288674 0 426.21806192 0 6330
0.07750000 0.07749960 25920.68182784 0 333.23057583 0 7915.44343484 0 632.52319812 0 1568.67234917 0 6583
0.07850000 0.07848650 25510.30754076 0 438.30303012 0 8684.19647772 0 1093.82160687 0 1310.08109233 0 6549
0.07950000 0.07947320 25290.36910528 0 379.01614595 0 7666.69006969 0 -321.75229611 0 1570.19184316 0 6828
0.08050000 0.08048110 24070.11561703 0 1024.87650840 0 8915.64757563 0 -1428.09142786 0 1043.69383314 0 7147
0.08150000 0.08149960 23236.94490228 0 735.73454956 0 9904.47214835 0 -830.49773629 0 1614.43462778 0 7386
0.08250000 0.08250610 22547.84883589 0 -207.07597438 0 9455.64468145 0 799.01870111 0 -845.74258649 0 7227
0.08350000 0.08350160 23242.37958879 0 -149.87978084 0 8642.91504267 0 1032.44846856 0 -424.64754844 0 7798
0.08450000 0.08449610 22362.18219898 0 591.95714528 0 8459.01190608 0 -616.12708167 0 -1768.62444776 0 7371
0.08550000 0.08548940 22300.29332000 0 446.04912207 0 8332.30607214 0 45.41456958 0 -1514.39203131 0 8256
0.08650000 0.08650700 21125.07009137 0 333.56331174 0 8697.43936687 0 377.39017648 0 -1170.12127804 0 8037
0.08750000 0.08749060 21323.26978084 0 439.78592315 0 8135.79224461 0 492.34045077 0 -1672.44158782 0 8155
0.08850000 0.08849210 20484.88620352 0 211.35163081 0 8567.89418652 0 927.39486930 0 -310.84299479 0 8718
0.08950000 0.08949900 20209.38087133 0 147.54952036 0 6929.31402298 0 336.09986848 0 225.98202870 0 8571
0.09050000 0.09049190 19652.38096059 0 246.21902665 0 8176.06438073 0 815.70097044 0 857.84086412 0 8932
0.09150000 0.09150830 19933.32097928 0 127.20382868 0 6575.40501956 0 1106.82825353 0 1447.12392182 0 9285
0.09250000 0.09250820 19440.42818691 0 70.79766110 0 6987.16570626 0 295.04247562 0 1531.21737708 0 9204
0.09350000 0.09350330 19237.68110669 0 443.20755741 0 7095.85943635 0 -365.71780081 0 2141.29975641 0 9349
0.09450000 0.09448040 18955.07740845 0 391.99173726 0 7241.80849699 0 -1083.15520277 0 311.04596369 0 9564
0.09550000 0.09549270 18184.01739661 0 255.59552455 0 7731.37393029 0 263.64551530 0 1091.46694576 0 10155
0.09650000 0.09649430 17876.01485736 0 230.16784643 0 7227.00174907 0 -63.44464117 0 -765.48113978 0 9913
0.09750000 0.09749140 17856.16161482 0 300.31301241 0 7713.82765672 0 346.90380343 0 29.89011030 0 10476
0.09850000 0.09850240 17373.69454757 0 91.17451904 0 6379.02428639 0 417.06006060 0 -1722.44070367 0 10575
0.09950000 0.09950330 17024.76549158 0 176.63618436 0 6618.68287005 0 512.18260211 0 86.35195570 0 10882
0.10050000 0.10051200 16866.27228719 0 -11.15319674 0 4874.93597705 0 886.85210798 0 -1216.41593410 0 10875
0.10150000 0.10150300 16904.42600469 0 -72.13891954 0 5257.91500767 0 1086.88295406 0 -280.41762332 0 11118
0.10250000 0.10250800 16844.31171724 0 -71.16333786 0 3438.31541874 0 731.99237971 0 -285.22787544 0 11575
0.10350000 0.10349800 16703.00986811 0 70.17389218 0 3620.94306769 0 1132.57757637 0 101.41857037 0 11364
0.10450000 0.10450100 16451.90516921 0 451.08785284 0 3037.22446350 0 -968.43784361 0 1060.62454529 0 12093
0.10550000 0.10551000 16228.86119858 0 265.44118008 0 3370.57038778 0 186.40863799 0 741.32118546 0 12067
0.10650000 0.10649700 15633.04209852 0 302.45583166 0 4363.48761217 0 -672.87851822 0 1211.71326659 0 12054
0.10750000 0.10749900 15574.25875469 0 417.21644648 0 4535.09061136 0 -399.25536214 0 -108.11820788 0 12807
0.10850000 0.10850100 14756.94845158 0 372.87827756 0 5565.98409410 0 -341.22511059 0 413.76042951 0 12736
0.10950000 0.10950300 14510.72387933 0 392.71044682 0 5980.31793850 0 -355.80670722 0 683.65583429 0 12933
0.11050000 0.11050200 14186.41728056 0 91.75647414 0 5626.93022133 0 529.88193420 0 198.78308642 0 13428
0.11150000 0.11150900 14214.36709687 0 -172.80861229 0 5542.77021889 0 894.20002596 0 1480.58606301 0 13453
0.11250000 0.11250000 14065.30140989 0 89.79765785 0 4328.91635129 0 987.88071186 0 131.78782038 0 13668
0.11350000 0.11349100 14066.96508943 0 78.85807757 0 4713.25959913 0 45.14782630 0 1907.27550081 0 13791
0.11450000 0.11448600 13787.24510240 0 112.90616669 0 3791.85841266 0 70.81041597 0 116.91341615 0 14205
0.11550000 0.11549300 13842.03561532 0 15.48064905 0 3624.80280422 0 47.52533528 0 691.06697209 0 14776
0.11650000 0.11649800 13648.05058070 0 110.23684832 0 3529.09686576 0 -320.46793550 0 -566.51615772 0 14553
0.11750000 0.11747300 13696.07546348 0 15.75803989 0 3029.64917598 0 518.01768083 0 301.68942995 0 14568
0.11850000 0.11849100 13754.85880731 0 -188.96072241 0 2924.40480814 0 715.30900126 0 649.97630564 0 16015
0.11950000 0.11950300 13849.91036515 0 -105.86780402 0 2526.40829685 0 835.89249448 0 189.82029017 0 15270
0.12050000 0.12050700 14016.61105529 0 226.67411939 0 2275.07068281 0 131.81000277 0 1654.61803433 0 15999
0.12150000 0.12150000 13708.71942800 0 216.44692668 0 2557.35273634 0 -15.37040255 0 912.90976609 0 15670
0.12250000 0.12250700 13256.30950449 0 215.00285284 0 2854.15316667 0 -293.56069171 0 3012.21381438 0 16887
0.12350000 0.12352200 13227.36148045 0 240.84645085 0 2818.81661319 0 172.95057961 0 1562.41691410 0 16407
0.12450000 0.12449800 12917.36252575 0 71.63770835 0 2664.91516434 0 85.35907175 0 2663.11839043 0 16306
0.12550000 0.12549900 12595.38507834 0 224.38378722 0 3227.02811687 0 54.00869445 0 1922.68117337 0 17523
0.12650000 0.12650100 12714.39362159 0 108.08027599 0 3104.20420187 0 -2.64933203 0 1824.08043250 0 17154
0.12750000 0.12750600 12465.17442617 0 140.58313956 0 3268.71992620 0 -498.78776356 0 1378.40286553 0 18007
0.12850000 0.12850300 11932.13150084 0 405.46643243 0 3416.29939279 0 -490.82095679 0 587.19236707 0 17496
0.12950000 0.12949900 11852.27488281 0 167.71886201 0 3450.48246179 0 -362.54460936 0 570.76297703 0 18405
0.13050000 0.13049000 11752.12137437 0 -232.13431565 0 3459.37760174 0 469.13212116 0 -356.71729449 0 18100
0.13150000 0.13148800 12304.35207042 0 -344.38942908 0 2682.12870200 0 814.79149229 0 -302.53457916 0 19059
0.13250000 0.13249300 12294.03725726 0 -154.82867292 0 2282.53505835 0 248.93526078 0 -643.46244567 0 18957
0.13350000 0.13349100 12637.42071477 0 94.70174149 0 1718.32586960 0 -397.32105740 0 -968.23709295 0 19468
0.13450000 0.13450700 12236.80668100 0 231.44333408 0 2635.68986038 0 -312.86270175 0 -587.35651679 0 19953
0.13550000 0.13551000 12219.94806164 0 218.96906487 0 2529.12564010 0 60.55183518 0 -194.56621334 0 19956
0.13650000 0.13649900 11910.17093088 0 62.67879402 0 2898.50686327 0 205.22263537 0 -20.71059206 0 19723
0.13750000 0.13749600 11980.26729559 0 151.92167020 0 2748.02150307 0 355.79450690 0 305.78429986 0 20946
0.13850000 0.13851100 11727.49891714 0 152.82893011 0 3042.09349896 0 -143.82953290 0 706.45157138 0 20955
0.13950000 0.13949800 11581.42785333 0 304.70623552 0 3373.01045111 0 -261.49604133 0 846.90605305 0 20506
0.14050000 0.14048300 11361.04576997 0 65.37805862 0 3258.51602501 0 9.97699749 0 1189.33123115 0 21447
0.14150000 0.14148400 11144.54560554 0 98.16995878 0 3506.32663842 0 133.71990689 0 829.34425180 0 21771
0.14250000 0.14249400 11187.57944970 0 42.56546291 0 3109.43924683 0 227.37286480 0 517.59066974 0 22470
0.14350000 0.14350900 10929.47620552 0 41.36095892 0 3325.30721303 0 308.97301899 0 642.95114149 0 22519
0.14450000 0.14449900 10763.45207840 0 340.72489761 0 2799.65102487 0 -300.05126016 0 303.05142893 0 22218
0.14550000 0.14550500 10671.27314057 0 81.05746192 0 3031.92287136 0 210.64068508 0 616.97444912 0 23559
0.14650000 0.14650700 10445.44527950 0 39.80430943 0 2996.38667633 0 -92.32700532 0 -294.89607182 0 23044
0.14750000 0.14750500 10396.66619532 0 181.65827834 0 2588.70755011 0 -18.27185968 0 156.19732662 0 23649
0.14850000 0.14849900 10246.56902702 0 105.87723154 0 3244.43020488 0 -252.04523241 0 -518.67538880 0 23640
0.14950000 0.14949500 10070.18572196 0 92.87979057 0 2933.74359597 0 -45.89182379 0 101.27083562 0 24457
0.15050000 0.15050000 10017.52471885 0 -23.62580227 0 2776.08223135 0 498.49495596 0 -325.33475272 0 24591
0.15150000 0.15149900 10213.07361224 0 -106.38897937 0 2636.69915930 0 545.18334951 0 193.36170936 0 25020
0.15250000 0.15250500 10176.45047992 0 1.99372029 0 2269.02598047 0 185.83633223 0 30.52729957 0 25297
0.15350000 0.15350100 10267.22083574 0 186.91772393 0 2461.58025069 0 -188.02906186 0 105.10495150 0 25452
0.15450000 0.15450400 9731.80439426 0 337.47517690 0 2679.97700980 0 -477.14662007 0 233.52182439 0 26061
0.15550000 0.15549900 9565.31443687 0 259.17687205 0 2908.82167643 0 -191.99527389 0 102.17132990 0 26128
0.15650000 0.15649500 9293.53574685 0 -15.86573541 0 2919.21412797 0 300.01133185 0 135.68415787 0 26331
0.15750000 0.15749700 9275.86747012 0 -23.82311466 0 2681.26358864 0 306.56844749 0 -278.94360325 0 27345
0.15850000 0.15849900 9285.23953154 0 117.74525592 0 2747.23402809 0 14.82338472 0 -46.34101727 0 26980
0.15950000 0.15949700 9281.20233585 0 48.24548669 0 2109.88948666 0 101.84713422 0 89.99552481 0 27777
0.16050000 0.16050000 9028.73341972 0 100.73424351 0 2469.39954454 0 108.09447272 0 366.50416668 0 28224
0.16150000 0.16150500 9049.83996751 0 124.23471526 0 2204.65267338 0 209.41843518 0 277.61265961 0 28075
0.16250000 0.16249700 8881.28704749 0 26.29889164 0 2353.40780685 0 259.99429326 0 20.86853071 0 28590
0.16350000 0.16349900 8852.46102662 0 81.21273868 0 2039.52693322 0 19.09604652 0 931.04054574 0 29163
0.16450000 0.16449100 8644.41235426 0 128.00904958 0 2066.85564250 0 94.97081393 0 585.17376923 0 28996
0.16550000 0.16550500 8620.03390337 0 72.38458956 0 2062.54116689 0 -14.56651260 0 693.64123890 0 30777
0.16650000 0.16650700 8550.75828723 0 -22.97508174 0 1988.92889274 0 236.18149341 0 806.53853264 0 29211
0.16750000 0.16749900 8612.89117254 0 -20.32151287 0 1733.16589111 0 272.17131839 0 893.02657732 0 30922
0.16850000 0.16850800 8635.19556960 0 2.38931001 0 1668.18256819 0 265.08071618 0 848.10279320 0 30867
0.16950000 0.16949900 8563.23588380 0 40.90577620 0 1729.47252253 0 97.04775147 0 1296.16164016 0 30852
0.17050000 0.17049200 8565.15466087 0 147.98651352 0 1714.63250101 0 -270.24588660 0 1060.26740874 0 31257
0.17150000 0.17149500 8349.69706895 0 186.37536440 0 2084.84556395 0 -291.41010862 0 1099.72212365 0 32608
0.17250000 0.17250900 8259.12635468 0 34.10875797 0 2368.79129702 0 -245.75985110 0 1302.07324813 0 32361
0.17350000 0.17350400 8427.42417717 0 26.45106287 0 2690.02563423 0 -19.50120795 0 1023.94152050 0 32508
0.17450000 0.17449800 8347.83374787 0 129.78253197 0 2731.27379568 0 -196.85099992 0 711.09323730 0 32791
0.17550000 0.17549800 8212.02204124 0 163.01508539 0 3099.50153436 0 -562.40354189 0 311.87447611 0 33633
0.17650000 0.17650100 8080.49153663 0 178.83002311 0 3478.63191964 0 -404.01570387 0 350.04483040 0 33984
0.17750000 0.17750300 8009.38587299 0 53.40267145 0 3514.48975938 0 -17.52475665 0 -85.25636726 0 34069
0.17850000 0.17849800 7871.10082944 0 42.65485796 0 3655.89142927 0 196.49275425 0 260.08745932 0 34536
