### header ###
fiducial parameters:
Omega_m = 0.31
Omega_nu = 0
Omega_de = 0.69
Omega_k = 0
H_0 = 100
w_de = -1
zeff = 0
beta = 0
fgrowth = 0
b_1 = 2
gamma = 0.55
Lx = 3500 Ly = 3500 Lz = 3500
nx = 700 ny = 700 nz = 700
xoffset = 1379.75464 yoffset = 22.6059522 zoffset = 368.141391
bins = 400 dk = 0.001
kx_ny = 0.628318531 ky_ny = 0.628318531 kz_ny = 0.628318531
############################
A(data) = 3.36971849 (not used)
A(ran) = 3.36617698 (used)
Ngal = 188819
weighted Ngal = 0
Nran = 9399747
weighted Nran = 0
SN(data) = 6686.54869
SN(ran) = 133.890978
SN(data+ran) = 6820.43967
############################
13 columns: k_central k_mean P_0(k) sigma^{lin}_{P_0(k)} P^img_1(k) sigma^{lin}_{P_1(k)} P_2(k) sigma^{lin}_{P_2(k)} P^img_3(k) sigma^{lin}_{P_3(k)} P_4(k) sigma^{lin}_{P_4(k)} N_modes
### header ###
0.00050000 0 0 0 0 0 0 0 0 0 0 0 0
0.00150000 0.00179520 -6093.66997131 0 -2920.50070682 0 -4308.68600805 0 4198.62806073 0 -10643.95552248 0 3
0.00250000 0.00253879 1238.90888151 0 -11453.87908843 0 -15149.02226370 0 11216.97112162 0 2094.72782043 0 6
0.00350000 0.00331552 19445.75196144 0 -23592.63958841 0 -26421.22754612 0 402.02705226 0 -11527.85737207 0 7
0.00450000 0.00420575 39988.53421303 0 -23599.51613052 0 -37533.83050445 0 -7244.44820187 0 -9408.03017295 0 24
0.00550000 0.00557378 62299.03143423 0 -3851.19631633 0 -48590.53383016 0 -34950.69073521 0 -3686.31458250 0 45
0.00650000 0.00659388 78144.69177824 0 -4531.74106988 0 -15916.31126858 0 -34007.49534673 0 -10914.07053296 0 40
0.00750000 0.00754703 76680.98651699 0 -6568.94994293 0 -22535.09395940 0 -11033.64472726 0 -16689.03495996 0 57
0.00850000 0.00846663 70032.92306622 0 4001.42657900 0 11043.18315663 0 -29336.21592805 0 -20303.21239751 0 75
0.00950000 0.00948925 72562.38144223 0 14752.51197280 0 22602.19570094 0 -30983.81323471 0 -17801.14927796 0 112
0.01050000 0.01054430 58083.26747421 0 8456.58293394 0 50442.09824870 0 5493.43657486 0 -2391.21769725 0 105
0.01150000 0.01145670 56736.68525272 0 -1458.29275715 0 51954.49386456 0 15933.61353582 0 25114.46272168 0 144
0.01250000 0.01249090 58089.14580859 0 -2209.32206730 0 49321.99826890 0 30683.35270938 0 13284.81388064 0 169
0.01350000 0.01339930 75185.11678458 0 -5802.94751690 0 56685.00027495 0 27910.99712020 0 31408.38425389 0 180
0.01450000 0.01448870 69535.59379506 0 -2971.43148320 0 29311.14982295 0 14111.99534904 0 44516.73719108 0 267
0.01550000 0.01550050 73968.52339133 0 1591.76422122 0 38389.07270113 0 8277.90375111 0 42365.59954297 0 238
0.01650000 0.01653350 74209.53510102 0 1122.39585757 0 34442.15935513 0 -1280.46759648 0 34236.52856371 0 315
0.01750000 0.01747870 78599.98541297 0 1173.89228500 0 31505.98678703 0 3690.12995425 0 21363.97447364 0 297
0.01850000 0.01844180 72271.23752234 0 3813.22005798 0 42723.06882061 0 -7379.62771027 0 11909.94910694 0 388
0.01950000 0.01947590 70391.16872765 0 3438.04923001 0 37952.41227728 0 -3473.43014827 0 -2064.89250064 0 399
0.02050000 0.02045430 67959.53470872 0 862.46700237 0 42884.00208833 0 5399.17249200 0 8237.02159916 0 462
0.02150000 0.02154770 67860.82305588 0 -1566.18792106 0 34075.70620796 0 8489.45724170 0 -8687.13564491 0 571
0.02250000 0.02255340 69432.55657542 0 1218.66744708 0 32891.94275768 0 4251.67725574 0 -1156.49019699 0 510
0.02350000 0.02348930 68804.68391618 0 612.36827502 0 28715.66345880 0 9054.97519170 0 -2183.11356891 0 555
0.02450000 0.02439640 68431.35422690 0 1521.92295404 0 27927.19026775 0 9099.11815555 0 5914.55823179 0 592
0.02550000 0.02547300 64969.68074739 0 1120.52144529 0 18088.52219089 0 5189.06085701 0 12625.33131010 0 837
0.02650000 0.02652900 63290.14079352 0 847.74787490 0 18941.87888408 0 9393.94435283 0 9967.43687343 0 723
0.02750000 0.02749970 59004.05864485 0 1723.63855294 0 15016.48246017 0 4822.27497394 0 21657.78028079 0 826
0.02850000 0.02848090 60296.40491326 0 1930.81102073 0 14504.06916116 0 -89.27881166 0 18486.25251345 0 831
0.02950000 0.02946900 54351.96699689 0 3840.12730178 0 12439.22102531 0 -1532.45959114 0 14715.13463908 0 996
0.03050000 0.03053250 54098.08949874 0 1194.32226978 0 19574.63166998 0 77.58192445 0 19535.36883278 0 1041
0.03150000 0.03150510 48081.33697827 0 658.71505971 0 13031.26911841 0 1191.34982900 0 3695.65337033 0 1036
0.03250000 0.03246190 49618.13322742 0 60.22176116 0 22360.62943140 0 3398.67548084 0 22669.18653050 0 1059
0.03350000 0.03345080 49687.56412031 0 -779.92409644 0 7575.90862267 0 3485.59719133 0 428.53057649 0 1302
0.03450000 0.03451200 53007.15936691 0 -445.20951846 0 13984.89023201 0 3760.79197001 0 13702.06470983 0 1339
0.03550000 0.03553350 49935.56328407 0 1461.30956272 0 11845.28742873 0 -342.44514226 0 7235.10941404 0 1365
0.03650000 0.03647120 47239.51512990 0 2095.77039294 0 11689.01246373 0 -260.31926533 0 11407.62879716 0 1308
0.03750000 0.03744890 47683.93939162 0 462.63267975 0 15943.15196519 0 948.45816143 0 9549.88658192 0 1579
0.03850000 0.03847530 46292.10508658 0 542.84421607 0 9660.55454507 0 -1336.01231079 0 -985.22547931 0 1662
0.03950000 0.03950240 44882.30304249 0 2168.02954106 0 18342.17786509 0 -3736.85716699 0 7455.15876149 0 1683
0.04050000 0.04050350 42444.45795328 0 423.00383305 0 12282.16967652 0 118.23215947 0 2445.84184222 0 1822
0.04150000 0.04152450 44465.71768512 0 -1945.15193839 0 18415.82341283 0 8004.97157661 0 9136.28475652 0 1887
0.04250000 0.04250150 44883.41216219 0 -763.46586929 0 11372.35879086 0 1924.12302897 0 -3983.46993114 0 1920
0.04350000 0.04349210 45793.00122391 0 1566.78684569 0 10533.79775439 0 -379.13925824 0 5881.10718180 0 2005
0.04450000 0.04448520 42006.91023367 0 2555.09013216 0 15527.67572751 0 -5667.29108703 0 4073.86318626 0 2151
0.04550000 0.04548030 41729.40848602 0 1993.89774897 0 14049.33008628 0 -1344.31961731 0 5087.03293629 0 2274
0.04650000 0.04648670 38991.99016723 0 -82.54590055 0 18340.73600949 0 2098.62083056 0 1068.98952602 0 2311
0.04750000 0.04749250 40867.84430709 0 -715.15594274 0 15115.63776089 0 1281.29943625 0 -557.05314849 0 2568
0.04850000 0.04851840 39116.87704487 0 151.57007926 0 13479.35347511 0 4307.23306125 0 -368.10684463 0 2493
0.04950000 0.04949480 40259.27033054 0 744.66629046 0 12660.82314034 0 -124.66283546 0 1596.68871267 0 2644
0.05050000 0.05050630 39087.92902083 0 618.51945285 0 14937.95678577 0 -341.25616594 0 1806.65616209 0 2829
0.05150000 0.05149060 37994.22608977 0 1174.82394554 0 13551.88990316 0 -736.07615843 0 4058.90116158 0 2784
0.05250000 0.05249300 36729.71872570 0 972.17668610 0 14827.59937614 0 -142.32556660 0 3380.37500588 0 3055
0.05350000 0.05348950 36319.01170271 0 154.17651054 0 15539.32148431 0 2492.34723102 0 2689.92581346 0 3009
0.05450000 0.05448610 36399.97744043 0 -241.03721944 0 14728.77681133 0 1766.48384675 0 6449.66411975 0 3336
0.05550000 0.05550870 36364.04196232 0 142.74148648 0 14154.47463335 0 1273.45796000 0 6177.79670016 0 3349
0.05650000 0.05647670 36212.31438807 0 633.33174638 0 14362.43457613 0 -100.40461314 0 5965.86610887 0 3324
0.05750000 0.05747970 36300.15666790 0 439.90238072 0 14532.57353732 0 941.71804104 0 9208.21116873 0 3639
0.05850000 0.05849280 35317.58753026 0 -22.03088815 0 14058.75760369 0 1997.35820242 0 4839.61051477 0 3846
0.05950000 0.05951020 35016.68335705 0 1048.54734093 0 16848.52637208 0 -2062.74080843 0 8593.42612189 0 3787
0.06050000 0.06049470 34239.19045098 0 692.94914821 0 12614.12920118 0 869.09731991 0 3597.03044707 0 3930
0.06150000 0.06148310 32890.38999011 0 396.44596196 0 17342.30646021 0 1129.17257890 0 8240.83697091 0 4083
0.06250000 0.06249100 32831.60664628 0 111.96008759 0 14424.76710298 0 1328.52575285 0 4715.95475999 0 4303
0.06350000 0.06350600 32002.20693849 0 660.04267599 0 12610.69093013 0 2116.53311363 0 7763.09475356 0 4470
0.06450000 0.06451750 32423.45059859 0 -135.12294330 0 11650.96965820 0 1892.01401381 0 7306.29271605 0 4479
0.06550000 0.06550280 30882.88334248 0 57.28004299 0 8596.09910036 0 3499.46118751 0 8732.23245170 0 4636
0.06650000 0.06648880 31810.44014326 0 326.70784291 0 10410.87401862 0 210.69059547 0 9522.77969658 0 4653
0.06750000 0.06749660 30424.81690852 0 300.01133185 0 7224.87223925 0 104.32069296 0 8478.65441587 0 5220
0.06850000 0.06852730 30283.62597137 0 736.02181156 0 11021.63296096 0 -561.79352606 0 7607.48526038 0 5029
0.06950000 0.06949320 29300.72409781 0 643.44248151 0 9512.05450913 0 -2113.42757848 0 5511.85905299 0 5040
0.07050000 0.07048030 28985.40136858 0 627.73845576 0 12444.32297591 0 -224.29727588 0 5440.72011577 0 5475
0.07150000 0.07148790 28486.96297772 0 -111.80259260 0 11635.44198247 0 87.54625578 0 5669.85315352 0 5509
0.07250000 0.07249820 29034.42445909 0 -182.47237219 0 10599.22472519 0 1822.66075929 0 3555.09463140 0 5916
0.07350000 0.07351270 29443.46780254 0 -268.45133093 0 10903.71135501 0 -417.79984344 0 2010.55672679 0 5721
0.07450000 0.07449140 29189.14665652 0 246.30886535 0 9538.55137864 0 508.71660307 0 1600.77027314 0 6028
0.07550000 0.07549160 28822.24986147 0 649.99959715 0 10639.26394617 0 -856.45002803 0 2831.29420976 0 6183
0.07650000 0.07648840 28049.30434615 0 359.77513749 0 9696.55657036 0 221.29045239 0 -648.18507733 0 6330
0.07750000 0.07749960 27859.75579030 0 143.09196831 0 8796.40611724 0 1323.91181492 0 1377.62648174 0 6583
0.07850000 0.07848650 26525.15206152 0 455.40565581 0 9932.17795833 0 604.54787206 0 -472.25429310 0 6549
0.07950000 0.07947320 26581.05169414 0 732.26078668 0 6908.20747519 0 138.18855014 0 822.95794060 0 6828
0.08050000 0.08048110 24541.38057536 0 1013.98273476 0 10428.52011296 0 -323.96166254 0 771.93843464 0 7147
0.08150000 0.08149960 24095.29263411 0 703.78635675 0 7752.28083654 0 114.22712825 0 -200.14619453 0 7386
0.08250000 0.08250610 23106.51242617 0 106.70951496 0 8958.25995431 0 429.18384799 0 -4.61337228 0 7227
0.08350000 0.08350160 23073.01701139 0 501.80013265 0 8538.74652094 0 -2.48426175 0 -646.59459969 0 7798
0.08450000 0.08449610 21971.43933049 0 468.30582698 0 8195.57379616 0 -23.58864676 0 -302.70982007 0 7371
0.08550000 0.08548940 22022.90248433 0 253.97510068 0 8052.23116680 0 -348.14934485 0 -1622.54229275 0 8256
0.08650000 0.08650700 20971.45701364 0 526.46917290 0 8909.24795499 0 -16.70522811 0 -637.32124992 0 8037
0.08750000 0.08749060 20997.18859056 0 288.01620235 0 7949.46013588 0 341.72754181 0 -2579.89004854 0 8155
0.08850000 0.08849210 20813.62928107 0 36.49525082 0 8655.12645051 0 274.12780553 0 -507.98458407 0 8718
0.08950000 0.08949900 20613.32226418 0 105.77020149 0 8503.59851781 0 547.52026471 0 -1194.14481063 0 8571
0.09050000 0.09049190 20255.07660275 0 -66.45279560 0 7466.48287357 0 954.67144996 0 -995.92182965 0 8932
0.09150000 0.09150830 20010.62662201 0 385.63759053 0 7852.77817208 0 67.37192309 0 -284.25074099 0 9285
0.09250000 0.09250820 20102.35082078 0 260.20280776 0 6320.14112179 0 489.91591512 0 -171.99784579 0 9204
0.09350000 0.09350330 19428.89334208 0 -60.96320767 0 7580.32291905 0 1504.63177800 0 1696.64257956 0 9349
0.09450000 0.09448040 19807.32498195 0 162.68567684 0 5995.97870859 0 133.00119732 0 -38.74754019 0 9564
0.09550000 0.09549270 19021.29185423 0 401.18966689 0 6724.98090160 0 358.19575104 0 1548.09817884 0 10155
0.09650000 0.09649430 18526.06991049 0 682.21176045 0 6452.42582779 0 -1088.51890561 0 777.45297776 0 9913
0.09750000 0.09749140 17915.05587062 0 113.66480456 0 6774.30345443 0 592.26991704 0 1177.75202154 0 10476
0.09850000 0.09850240 17742.58775807 0 -76.04002625 0 6385.60136618 0 922.16093346 0 1403.67970337 0 10575
0.09950000 0.09950330 18042.71554749 0 -144.33307325 0 5194.18499000 0 1374.77604413 0 2368.18128119 0 10882
0.10050000 0.10051200 18344.83975236 0 -398.81836898 0 4183.69930964 0 1750.20196963 0 2420.82010190 0 10875
0.10150000 0.10150300 18224.72208941 0 222.45946455 0 3312.48578936 0 -17.08998173 0 2262.19380315 0 11118
0.10250000 0.10250800 17843.40673833 0 387.11271972 0 2620.60583253 0 -620.67779978 0 1792.63688915 0 11575
0.10350000 0.10349800 17356.50319230 0 274.36626627 0 3754.40344056 0 208.21393119 0 2752.19179313 0 11364
0.10450000 0.10450100 16872.37244551 0 327.02837850 0 2562.11085983 0 -157.25653593 0 264.82118217 0 12093
0.10550000 0.10551000 16635.68630264 0 165.21779710 0 3696.21902137 0 -344.28960831 0 340.01838836 0 12067
0.10650000 0.10649700 16175.40162929 0 261.50047781 0 3140.61660145 0 -15.53932148 0 750.47696854 0 12054
0.10750000 0.10749900 15864.18264292 0 202.97666799 0 2821.23449413 0 395.66403257 0 325.88043961 0 12807
0.10850000 0.10850100 15757.37441631 0 238.62044762 0 3167.57930123 0 -128.06339644 0 -178.68251019 0 12736
0.10950000 0.10950300 15421.53297272 0 500.10761599 0 3016.63920196 0 -432.55889922 0 -533.36567916 0 12933
0.11050000 0.11050200 14737.98250480 0 446.35745734 0 3508.93306971 0 256.10904697 0 162.75111490 0 13428
0.11150000 0.11150900 14206.71417098 0 229.71643471 0 3822.30374828 0 -749.61185518 0 -302.22291652 0 13453
0.11250000 0.11250000 14148.92903488 0 159.72099989 0 3799.50024736 0 -208.07196387 0 -939.24137676 0 13668
0.11350000 0.11349100 13947.18016239 0 138.71649111 0 4327.86268758 0 -144.73346546 0 -907.05583234 0 13791
0.11450000 0.11448600 13804.76919357 0 -72.10830784 0 4078.42166821 0 440.96713563 0 -726.30370480 0 14205
0.11550000 0.11549300 14116.32091585 0 -306.56844749 0 3294.32949995 0 860.53491586 0 -869.61195144 0 14776
0.11650000 0.11649800 14190.74284737 0 -59.19671274 0 2937.20404942 0 564.27129946 0 -999.56861521 0 14553
0.11750000 0.11747300 14229.78386063 0 178.61596301 0 3218.26607128 0 84.42585843 0 -399.11561306 0 14568
0.11850000 0.11849100 13981.89560884 0 367.65986940 0 2688.62814342 0 -335.21922744 0 -173.67039829 0 16015
0.11950000 0.11950300 13707.94304422 0 163.62731946 0 3536.32832617 0 -233.76583072 0 190.57116420 0 15270
0.12050000 0.12050700 13400.93871269 0 29.12426315 0 3181.56530058 0 244.69842355 0 98.22452747 0 15999
0.12150000 0.12150000 13632.19016906 0 45.16035935 0 3672.06239442 0 112.69987043 0 154.94956697 0 15670
0.12250000 0.12250700 13686.75885805 0 -93.47804974 0 3347.64488369 0 406.61104396 0 610.38849637 0 16887
0.12350000 0.12352200 13730.67999796 0 20.45349812 0 3322.39022823 0 189.60068447 0 656.65875180 0 16407
0.12450000 0.12449800 13607.34588790 0 110.95411603 0 3256.30887682 0 -478.15591899 0 536.81947789 0 16306
0.12550000 0.12549900 13899.15527960 0 97.03000556 0 3906.30847397 0 -354.12195440 0 755.71534086 0 17523
0.12650000 0.12650100 13530.04024517 0 140.38349801 0 3982.64918256 0 -10.04475361 0 496.85124057 0 17154
0.12750000 0.12750600 13499.42854159 0 292.06338012 0 4523.23412182 0 -166.61196056 0 775.61738467 0 18007
0.12850000 0.12850300 13120.44234187 0 143.92269896 0 4610.23347068 0 234.82504003 0 687.37027615 0 17496
0.12950000 0.12949900 13061.65899804 0 175.88087385 0 4873.42757426 0 147.82236381 0 1203.52796325 0 18405
0.13050000 0.13049000 12713.50632584 0 221.74962794 0 4703.97626729 0 -258.68553202 0 794.05539047 0 18100
0.13150000 0.13148800 12515.41754834 0 342.88324453 0 5200.10768917 0 -11.36104577 0 1416.20166473 0 19059
0.13250000 0.13249300 12062.12032907 0 95.19230514 0 5029.69144806 0 -89.51372321 0 965.40772861 0 18957
0.13350000 0.13349100 11859.92780870 0 133.40491689 0 4903.66217714 0 400.82809387 0 893.80850671 0 19468
0.13450000 0.13450700 11775.96744781 0 87.07743089 0 4177.13332105 0 329.10021409 0 426.34561069 0 19953
0.13550000 0.13551000 11723.28426230 0 -44.81043209 0 4305.91320881 0 646.85746106 0 789.97493912 0 19956
0.13650000 0.13649900 11832.19981633 0 0.85497157 0 3375.18432571 0 285.01825182 0 283.70838146 0 19723
0.13750000 0.13749600 11475.39601051 0 44.55123081 0 3081.76671044 0 24.84217384 0 -138.46361182 0 20946
0.13850000 0.13851100 11494.91651714 0 109.07571092 0 3054.90383143 0 -168.93889368 0 -125.39929094 0 20955
0.13950000 0.13949800 11482.27255262 0 50.08595991 0 2892.18488101 0 -106.33895807 0 -669.75634627 0 20506
0.14050000 0.14048300 11345.18535834 0 168.85349146 0 3252.03876599 0 -371.24454425 0 -927.46807120 0 21447
0.14150000 0.14148400 11243.92273020 0 31.25532574 0 3304.22284763 0 -0.27582254 0 -1209.19556489 0 21771
0.14250000 0.14249400 11211.09278723 0 101.68276268 0 3154.71351277 0 40.99018021 0 -980.05143594 0 22470
0.14350000 0.14350900 11246.80644141 0 67.98881547 0 3359.41264365 0 83.43962920 0 -1042.38507190 0 22519
0.14450000 0.14449900 11099.62625790 0 47.83999253 0 3322.86714970 0 514.27883833 0 -425.85094331 0 22218
0.14550000 0.14550500 10977.70072985 0 103.93227924 0 3424.36269298 0 241.80916675 0 -96.16001207 0 23559
0.14650000 0.14650700 10849.45321954 0 142.21576375 0 2981.11409814 0 340.22690287 0 279.03455106 0 23044
0.14750000 0.14750500 10752.44961103 0 90.36242160 0 3083.51911956 0 -17.36437794 0 826.20544307 0 23649
0.14850000 0.14849900 10601.16568466 0 227.13994966 0 3109.11760212 0 199.80791302 0 669.02654552 0 23640
0.14950000 0.14949500 10275.10667677 0 108.27537014 0 3035.83806388 0 129.19691677 0 1062.77845573 0 24457
0.15050000 0.15050000 10246.12537915 0 56.10548523 0 2577.31689084 0 220.96880768 0 850.73029776 0 24591
0.15150000 0.15149900 10174.25442292 0 147.05152562 0 3613.57851291 0 -203.85619991 0 1326.08568952 0 25020
0.15250000 0.15250500 9914.04385132 0 171.58858063 0 2613.45201050 0 178.46290450 0 888.82855928 0 25297
0.15350000 0.15350100 9851.43404455 0 21.11564257 0 3460.53108622 0 145.24366052 0 1308.38413919 0 25452
0.15450000 0.15450400 9603.03559769 0 128.62904749 0 2847.59826927 0 162.23093776 0 1138.37827237 0 26061
0.15550000 0.15549900 9634.00221957 0 121.97322020 0 3371.02512685 0 29.70488731 0 1655.80479240 0 26128
0.15650000 0.15649500 9479.52402848 0 66.55849471 0 2737.98396984 0 -77.11620509 0 1303.71474528 0 26331
0.15750000 0.15749700 9378.12830598 0 108.70482129 0 3254.14609341 0 256.17226679 0 1479.70985845 0 27345
0.15850000 0.15849900 9331.16817810 0 53.93937447 0 2948.78325903 0 -157.54823441 0 1266.21540840 0 26980
0.15950000 0.15949700 9359.77237503 0 -69.05445767 0 2760.16636373 0 193.61126129 0 962.80018820 0 27777
0.16050000 0.16050000 9356.50047193 0 54.00913810 0 3078.63899290 0 107.28692267 0 834.77006535 0 28224
0.16150000 0.16150500 9273.42740679 0 140.76614431 0 2362.20312603 0 -177.87174370 0 457.15251933 0 28075
0.16250000 0.16249700 9183.83271784 0 96.71412827 0 2839.71242824 0 -37.27285464 0 298.88224800 0 28590
0.16350000 0.16349900 8997.35642355 0 74.62545499 0 2447.35024500 0 40.76591621 0 214.17544955 0 29163
0.16450000 0.16449100 8785.54783543 0 200.98136166 0 2710.88817569 0 -10.84031407 0 57.99686705 0 28996
0.16550000 0.16550500 8675.06842263 0 88.58139719 0 2333.19964601 0 159.23298723 0 88.29380246 0 30777
0.16650000 0.16650700 8537.13829738 0 -39.34557753 0 2139.32552336 0 414.01441792 0 71.84522465 0 29211
0.16750000 0.16749900 8582.81184641 0 58.67420645 0 1821.44072762 0 351.96138924 0 279.05562434 0 30922
0.16850000 0.16850800 8458.04697194 0 36.96884493 0 1557.93607053 0 49.56511731 0 392.10708571 0 30867
0.16950000 0.16949900 8408.79096629 0 133.10434546 0 1560.53141061 0 -94.10547875 0 312.73182563 0 30852
0.17050000 0.17049200 8275.31950222 0 145.23589668 0 1978.51425881 0 -145.66068952 0 191.95867294 0 31257
0.17150000 0.17149500 8027.42015923 0 228.05940989 0 2017.52199847 0 -339.00798032 0 38.90847345 0 32608
0.17250000 0.17250900 7856.63790862 0 115.06340450 0 2388.04561492 0 -72.57369446 0 361.34565097 0 32361
0.17350000 0.17350400 7905.88282307 0 -19.86455556 0 2492.06995110 0 96.75305837 0 280.24792801 0 32508
0.17450000 0.17449800 7899.09501054 0 -13.57407230 0 2458.23070921 0 151.25952574 0 204.00482195 0 32791
0.17550000 0.17549800 7979.87219791 0 9.43161006 0 2462.41209046 0 76.87042416 0 528.41345973 0 33633
0.17650000 0.17650100 7955.72666216 0 47.52666622 0 2419.32279032 0 5.32218849 0 392.56626126 0 33984
0.17750000 0.17750300 7957.30161212 0 81.38354311 0 2596.43811438 0 -76.28092704 0 718.30917003 0 34069
0.17850000 0.17849800 7935.19685661 0 -23.57822103 0 2467.11475797 0 23.32267985 0 418.51411652 0 34536
