### header ###
fiducial parameters:
Omega_m = 0.31
Omega_nu = 0
Omega_de = 0.69
Omega_k = 0
H_0 = 100
w_de = -1
zeff = 0
beta = 0
fgrowth = 0
b_1 = 2
gamma = 0.55
Lx = 3500 Ly = 3500 Lz = 3500
nx = 700 ny = 700 nz = 700
xoffset = 1379.75464 yoffset = 22.6059522 zoffset = 368.141391
bins = 400 dk = 0.001
kx_ny = 0.628318531 ky_ny = 0.628318531 kz_ny = 0.628318531
############################
A(data) = 3.31754511 (not used)
A(ran) = 3.3192974 (used)
Ngal = 186369
weighted Ngal = 0
Nran = 9399747
weighted Nran = 0
SN(data) = 6675.02771
SN(ran) = 132.026325
SN(data+ran) = 6807.05403
############################
13 columns: k_central k_mean P_0(k) sigma^{lin}_{P_0(k)} P^img_1(k) sigma^{lin}_{P_1(k)} P_2(k) sigma^{lin}_{P_2(k)} P^img_3(k) sigma^{lin}_{P_3(k)} P_4(k) sigma^{lin}_{P_4(k)} N_modes
### header ###
0.00050000 0 0 0 0 0 0 0 0 0 0 0 0
0.00150000 0.00179520 8616.37380838 0 -17647.75802416 0 -23370.70473748 0 24831.74811147 0 16446.69230664 0 3
0.00250000 0.00253879 27199.16410007 0 -23752.57464841 0 -33196.95067376 0 -3551.32362444 0 9263.65606228 0 6
0.00350000 0.00331552 54086.88738982 0 -35627.80830890 0 -56751.32563270 0 1637.43777025 0 -16589.87965924 0 7
0.00450000 0.00420575 74322.33257398 0 -26569.51684931 0 -65802.07507835 0 -21477.10468251 0 -7120.98099744 0 24
0.00550000 0.00557378 96155.68650246 0 -931.15256683 0 -81816.21070401 0 -54128.47937838 0 -163.61955562 0 45
0.00650000 0.00659388 93671.36929803 0 1811.66938311 0 -34751.38192605 0 -49534.50560243 0 -37068.55479247 0 40
0.00750000 0.00754703 93739.13651138 0 2395.31034892 0 -44537.36681740 0 -26929.75892619 0 -1389.27223854 0 57
0.00850000 0.00846663 82492.10824604 0 -110.14179677 0 -14733.21329011 0 -22193.70691733 0 -33897.80340891 0 75
0.00950000 0.00948925 76900.03765671 0 10958.96769821 0 -2729.56575135 0 -15965.77800697 0 -11435.46770150 0 112
0.01050000 0.01054430 70699.28217887 0 9600.16297769 0 17258.45701128 0 -9227.83149613 0 -3517.17382904 0 105
0.01150000 0.01145670 59384.48670017 0 7198.19791059 0 23938.46310926 0 2320.00112164 0 8735.97018507 0 144
0.01250000 0.01249090 59012.70977847 0 918.60842308 0 34366.51739195 0 13092.82526147 0 11469.73950007 0 169
0.01350000 0.01339930 61293.50351890 0 -3113.35443935 0 14039.68074494 0 16221.09736071 0 8654.63843785 0 180
0.01450000 0.01448870 62516.97345426 0 -5001.65290218 0 25273.62139788 0 6875.04479631 0 25666.36068182 0 267
0.01550000 0.01550050 78186.17285483 0 -6478.57887020 0 17365.59797380 0 14229.45112472 0 4009.14605207 0 238
0.01650000 0.01653350 74846.50254175 0 59.07648416 0 17612.82075378 0 -9160.25283313 0 12489.68597142 0 315
0.01750000 0.01747870 78010.26647123 0 4058.70152004 0 9266.73941503 0 -9786.48399522 0 7409.44084767 0 297
0.01850000 0.01844180 74887.20723455 0 744.18049604 0 23703.21882199 0 -3273.38932012 0 510.36697317 0 388
0.01950000 0.01947590 70630.84949370 0 5688.63054996 0 24892.19513483 0 -1924.66649762 0 -20864.20513915 0 399
0.02050000 0.02045430 64967.12977209 0 6110.72823221 0 39333.26629733 0 -16334.00574565 0 -13434.54503944 0 462
0.02150000 0.02154770 59165.65738438 0 3869.14187299 0 41205.68216613 0 -4121.20041484 0 -17958.97701053 0 571
0.02250000 0.02255340 58832.58874003 0 1023.11189897 0 41179.61785330 0 6288.81958161 0 -18691.21783305 0 510
0.02350000 0.02348930 59274.46202645 0 405.38546670 0 46696.60103928 0 3312.20850944 0 -17962.30436962 0 555
0.02450000 0.02439640 58517.93148261 0 -2388.36725963 0 34855.86100130 0 10625.15594366 0 -20506.29221363 0 592
0.02550000 0.02547300 60616.05320930 0 -984.57664429 0 37570.32054241 0 7190.46734632 0 -1966.45812772 0 837
0.02650000 0.02652900 63460.05793077 0 -216.42030781 0 20862.54145961 0 8756.68854097 0 -11805.69185563 0 723
0.02750000 0.02749970 63156.38095832 0 -3037.46846983 0 22743.38663809 0 7584.75939783 0 5850.71730216 0 826
0.02850000 0.02848090 64347.46459859 0 2071.07029734 0 17225.73798028 0 4645.58111535 0 496.76140187 0 831
0.02950000 0.02946900 64262.72785391 0 1129.48313242 0 14559.52514590 0 956.82092393 0 4350.63291491 0 996
0.03050000 0.03053250 61566.90152368 0 1583.61219146 0 16376.15229405 0 718.60419587 0 4982.23221632 0 1041
0.03150000 0.03150510 57617.88085026 0 1318.13330131 0 15626.27646838 0 2298.75038829 0 -414.73645484 0 1036
0.03250000 0.03246190 56728.25594304 0 1533.93472033 0 19310.77209458 0 -964.86204172 0 13686.86977002 0 1059
0.03350000 0.03345080 56322.65087065 0 841.50685838 0 16432.16283864 0 2855.29555996 0 944.40211070 0 1302
0.03450000 0.03451200 54458.44248759 0 2067.49893192 0 18203.53790324 0 -229.88391179 0 9325.37857329 0 1339
0.03550000 0.03553350 51773.15279446 0 1852.88427097 0 20380.40712827 0 -2189.64628391 0 6643.97079909 0 1365
0.03650000 0.03647120 49807.45995932 0 2916.47460232 0 26691.85275165 0 -1818.31301009 0 6929.22529340 0 1308
0.03750000 0.03744890 47979.51979029 0 2342.61607222 0 25046.25186045 0 -532.92868600 0 6297.70363037 0 1579
0.03850000 0.03847530 44754.64336562 0 1127.56435535 0 29030.98618803 0 -251.69918706 0 5632.60891417 0 1662
0.03950000 0.03950240 45560.30791194 0 -1095.00171023 0 27674.31097733 0 5709.84800972 0 8354.98756990 0 1683
0.04050000 0.04050350 46322.93861410 0 -2934.36470300 0 21521.46947030 0 7154.16585871 0 3542.47284928 0 1822
0.04150000 0.04152450 51127.64513207 0 -1295.96199861 0 16220.98644875 0 4187.31503985 0 6728.89609412 0 1887
0.04250000 0.04250150 49719.83950343 0 951.91417840 0 14920.65451854 0 379.31560827 0 505.06427191 0 1920
0.04350000 0.04349210 46876.83298969 0 2568.47720688 0 14143.93799625 0 -2083.05988124 0 4255.61463065 0 2005
0.04450000 0.04448520 43477.15930112 0 3504.11949023 0 16252.37453611 0 -3465.64412802 0 1903.08302836 0 2151
0.04550000 0.04548030 40501.05842401 0 2202.29024843 0 19536.92160036 0 1161.11522612 0 552.24733285 0 2274
0.04650000 0.04648670 37534.71780021 0 1204.40416780 0 15206.14192798 0 2629.26805735 0 5377.33392521 0 2311
0.04750000 0.04749250 35919.95043651 0 515.16835233 0 19481.68743955 0 4050.88222619 0 3710.92594853 0 2568
0.04850000 0.04851840 35579.33977823 0 -149.53484462 0 12068.44231133 0 3109.45033803 0 7065.81338382 0 2493
0.04950000 0.04949480 36041.28813113 0 -515.12731490 0 13693.30266425 0 3226.42919224 0 7054.74436927 0 2644
0.05050000 0.05050630 35776.43034800 0 205.50324266 0 8902.07195057 0 853.89017977 0 7229.55272437 0 2829
0.05150000 0.05149060 34757.81482028 0 929.31697374 0 12936.32847253 0 -1834.33978968 0 3403.48906032 0 2784
0.05250000 0.05249300 35267.12258414 0 376.35536780 0 11089.77727501 0 -609.07197129 0 5145.07316992 0 3055
0.05350000 0.05348950 33784.34046413 0 523.56771578 0 12674.24348864 0 -1075.70413666 0 983.07933270 0 3009
0.05450000 0.05448610 34249.61617611 0 -186.24005180 0 9750.29341958 0 1324.71038110 0 2943.70349083 0 3336
0.05550000 0.05550870 34200.37126166 0 -556.13701562 0 10086.65614943 0 2008.60467613 0 1406.54123219 0 3349
0.05650000 0.05647670 35602.52037986 0 -458.03981509 0 9241.54021556 0 962.51625356 0 286.60207474 0 3324
0.05750000 0.05747970 35182.05310355 0 -95.13829101 0 6657.59078894 0 2868.66045228 0 2973.17280112 0 3639
0.05850000 0.05849280 34844.76980435 0 457.71927950 0 6177.00922518 0 853.97669111 0 1705.07188924 0 3846
0.05950000 0.05951020 34392.02714493 0 389.17346412 0 5464.77692195 0 -988.47076354 0 2817.53003435 0 3787
0.06050000 0.06049470 34563.71887369 0 325.05081808 0 9085.26525056 0 -186.29772602 0 2437.54562690 0 3930
0.06150000 0.06148310 33459.36839355 0 379.15367679 0 7492.87992231 0 -820.42914770 0 1964.21770594 0 4083
0.06250000 0.06249100 33592.90640481 0 617.78299738 0 8723.74768603 0 -1859.33934760 0 -2873.46294056 0 4303
0.06350000 0.06350600 32073.30151093 0 1438.20659947 0 10303.94378884 0 -2021.41500860 0 -2910.48535597 0 4470
0.06450000 0.06451750 30965.18002383 0 1253.40507592 0 12280.50599698 0 -1418.89682559 0 -1691.67372333 0 4479
0.06550000 0.06550280 29766.88710555 0 613.20455127 0 12101.16134233 0 -59.25793614 0 -3122.30503529 0 4636
0.06650000 0.06648880 28305.62190762 0 622.24609503 0 13246.99289905 0 1795.53169155 0 -2535.50307835 0 4653
0.06750000 0.06749660 27942.60703150 0 803.67145823 0 12661.59952412 0 92.21542787 0 -1206.85532233 0 5220
0.06850000 0.06852730 27083.59382786 0 180.55914072 0 12226.38095587 0 1889.05266422 0 2629.76716121 0 5029
0.06950000 0.06949320 27720.56126860 0 -924.72078172 0 11111.93748652 0 3860.11363868 0 2863.49195450 0 5040
0.07050000 0.07048030 28999.15445279 0 -1259.70487579 0 7654.95558332 0 4435.34747720 0 6291.01563861 0 5475
0.07150000 0.07148790 29762.67245071 0 -381.18558408 0 7507.40939031 0 977.57366254 0 6346.24979941 0 5509
0.07250000 0.07249820 29301.05683372 0 803.09582511 0 6843.01341952 0 -990.94853694 0 7670.20597912 0 5916
0.07350000 0.07351270 28354.31226222 0 1592.64042578 0 8311.46571307 0 -2264.73368725 0 5901.89208488 0 5721
0.07450000 0.07449140 27080.82102863 0 1223.21483783 0 11182.03385123 0 -2400.01301643 0 5038.88605033 0 6028
0.07550000 0.07549160 25554.56141658 0 599.71765579 0 11921.15121586 0 -30.03529407 0 3675.87776617 0 6183
0.07650000 0.07648840 24881.88032167 0 202.67831479 0 11566.12200155 0 4.04645684 0 2045.41635880 0 6330
0.07750000 0.07749960 24859.03245596 0 194.49855704 0 10239.39302260 0 1633.87749603 0 1348.39008659 0 6583
0.07850000 0.07848650 24324.10402715 0 317.19381416 0 9049.15231330 0 865.70230452 0 1045.25991015 0 6549
0.07950000 0.07947320 23352.40426251 0 352.38174560 0 8597.56313835 0 621.03493632 0 720.84461766 0 6828
0.08050000 0.08048110 23598.40701082 0 15.65844094 0 6688.01394217 0 372.77180207 0 -574.20124809 0 7147
0.08150000 0.08149960 22923.95132440 0 69.93864789 0 6843.70107373 0 954.74354274 0 19.23945570 0 7386
0.08250000 0.08250610 22755.91969064 0 320.50120909 0 5492.98183579 0 628.08561022 0 -611.02402195 0 7227
0.08350000 0.08350160 22395.45578982 0 164.22402585 0 5327.49008612 0 -145.49986717 0 -86.91461212 0 7798
0.08450000 0.08449610 21927.62910254 0 -38.14684096 0 5287.65050669 0 1085.23147484 0 -407.21218683 0 7371
0.08550000 0.08548940 22076.47296559 0 269.97082492 0 5338.62564786 0 -736.02846628 0 -711.03334484 0 8256
0.08650000 0.08650700 21595.78048985 0 332.63719679 0 5266.87669480 0 32.36366905 0 242.02433597 0 8037
0.08750000 0.08749060 21555.18670902 0 -83.96524102 0 5211.99745230 0 1086.09769732 0 -1808.08692650 0 8155
0.08850000 0.08849210 21233.65290949 0 452.50974429 0 5219.47291905 0 -129.31448346 0 -88.83494196 0 8718
0.08950000 0.08949900 20994.85943920 0 469.86968575 0 4701.42529199 0 -130.45576762 0 -316.87660593 0 8571
0.09050000 0.09049190 19851.02429793 0 550.81545932 0 5612.52275650 0 225.59938241 0 967.75573500 0 8932
0.09150000 0.09150830 19453.62671127 0 365.86198637 0 4444.51989708 0 148.05084246 0 242.86172134 0 9285
0.09250000 0.09250820 18949.75363392 0 149.23649142 0 5341.37626470 0 964.53041493 0 1460.52208773 0 9204
0.09350000 0.09350330 18921.58199367 0 145.36788192 0 4254.28368702 0 582.15696366 0 1500.17311682 0 9349
0.09450000 0.09448040 18445.54782065 0 59.95457422 0 4355.00284651 0 558.58484278 0 2015.70304217 0 9564
0.09550000 0.09549270 18211.41265307 0 583.07531477 0 4914.40954698 0 -896.16538606 0 2605.21125117 0 10155
0.09650000 0.09649430 18136.10342579 0 25.02329308 0 4197.82949455 0 186.25779771 0 1929.45789470 0 9913
0.09750000 0.09749140 17655.41095006 0 49.79825427 0 5518.65795672 0 314.68498541 0 2492.83524369 0 10476
0.09850000 0.09850240 17661.62202035 0 436.67706065 0 5043.92145375 0 -669.19734995 0 1469.72778120 0 10575
0.09950000 0.09950330 17368.81442092 0 314.36999542 0 5814.53781771 0 -222.96855049 0 1011.47279689 0 10882
0.10050000 0.10051200 17059.37002606 0 314.22248250 0 5857.66039145 0 41.95955082 0 950.04198435 0 10875
0.10150000 0.10150300 16394.78550492 0 288.55190716 0 6413.67318566 0 -593.65520753 0 984.25167222 0 11118
0.10250000 0.10250800 16230.63579009 0 290.54277702 0 6169.77776477 0 121.22900088 0 924.33702631 0 11575
0.10350000 0.10349800 15899.89629709 0 222.75559951 0 6483.95810072 0 338.43567456 0 159.99606158 0 11364
0.10450000 0.10450100 15701.25295975 0 156.06866874 0 6008.00156608 0 -1.74441236 0 164.88062471 0 12093
0.10550000 0.10551000 15473.55068640 0 108.41001727 0 6592.98456672 0 -26.70349851 0 -466.67542103 0 12067
0.10650000 0.10649700 15433.51146542 0 112.00445238 0 5851.66005390 0 224.95942034 0 314.26573817 0 12054
0.10750000 0.10749900 15287.66222555 0 80.42027266 0 5808.77039530 0 224.35938659 0 27.46845836 0 12807
0.10850000 0.10850100 15567.60403653 0 -248.36295502 0 6007.77974214 0 549.41575027 0 221.27381560 0 12736
0.10950000 0.10950300 15258.49237758 0 231.90361875 0 5291.16641612 0 -27.14803368 0 -443.51256533 0 12933
0.11050000 0.11050200 15275.46190891 0 274.40286722 0 5631.55525046 0 -106.03505927 0 523.35476480 0 13428
0.11150000 0.11150900 14919.54539884 0 140.89036571 0 5483.53213599 0 168.94000280 0 370.90293538 0 13453
0.11250000 0.11250000 14954.26084529 0 -24.19500249 0 5748.62283425 0 494.06956838 0 682.80957596 0 13668
0.11350000 0.11349100 14788.55836288 0 273.34698527 0 5193.68588614 0 185.55461582 0 544.68424565 0 13791
0.11450000 0.11448600 14220.02360732 0 266.87083537 0 5881.73938002 0 106.04415405 0 1191.36092019 0 14205
0.11550000 0.11549300 14315.62972501 0 54.57545462 0 5270.81406972 0 695.90717044 0 1650.59192983 0 14776
0.11650000 0.11649800 14029.80957965 0 -50.24179123 0 4764.17928432 0 848.84701252 0 1750.71216469 0 14553
0.11750000 0.11747300 14102.34600770 0 42.66694736 0 4429.35823085 0 558.71017331 0 2509.49422150 0 14568
0.11850000 0.11849100 13868.76539997 0 118.66915263 0 4124.73850667 0 303.97643476 0 2815.96617558 0 16015
0.11950000 0.11950300 13717.92512147 0 212.31767406 0 4417.35755575 0 -61.64021434 0 2214.63475064 0 15270
0.12050000 0.12050700 13368.21968169 0 219.45153194 0 3867.87747654 0 43.23625850 0 2794.22742956 0 15999
0.12150000 0.12150000 13237.12173376 0 138.25731556 0 3976.01664679 0 199.55392461 0 2153.86608256 0 15670
0.12250000 0.12250700 13152.16316514 0 -60.97851353 0 3758.91755772 0 506.51278223 0 3038.98796381 0 16887
0.12350000 0.12352200 13044.68946671 0 -47.27611608 0 3214.08469003 0 423.61606712 0 1985.87881358 0 16407
0.12450000 0.12449800 13422.12289886 0 167.15099273 0 3121.65065467 0 190.49796230 0 2379.74939960 0 16306
0.12550000 0.12549900 12877.98877658 0 37.67335776 0 3023.95939195 0 -391.54143467 0 1506.66146704 0 17523
0.12650000 0.12650100 12832.18213319 0 242.70644458 0 3237.05455891 0 -171.22922585 0 1701.43397665 0 17154
0.12750000 0.12750600 12646.84823218 0 57.44996013 0 2973.94918491 0 -139.54167616 0 1030.76593398 0 18007
0.12850000 0.12850300 12866.78666766 0 -154.68448736 0 3387.36245996 0 8.22573076 0 693.82868013 0 17496
0.12950000 0.12949900 12833.95672470 0 110.64810991 0 3259.29240880 0 -70.36920816 0 296.01073711 0 18405
0.13050000 0.13049000 12684.55830180 0 283.10612946 0 3601.72202337 0 -260.16066122 0 -449.72252650 0 18100
0.13150000 0.13148800 12558.56230447 0 68.89640811 0 3569.20263392 0 -438.58918300 0 577.65837418 0 19059
0.13250000 0.13249300 12508.09735836 0 -117.49681311 0 3383.44726743 0 446.75452219 0 -91.99371485 0 18957
0.13350000 0.13349100 12741.01249427 0 -48.29650620 0 3483.90023819 0 365.37841018 0 -43.53527717 0 19468
0.13450000 0.13450700 12699.97506556 0 91.22720223 0 2996.60850027 0 268.25279851 0 -85.47286743 0 19953
0.13550000 0.13551000 12601.37432469 0 181.74035319 0 3347.16796222 0 59.09644832 0 887.67840215 0 19956
0.13650000 0.13649900 12184.12349550 0 325.99578806 0 3156.45483069 0 -237.32388670 0 302.56230715 0 19723
0.13750000 0.13749600 11928.02775797 0 248.64688966 0 3442.61880315 0 2.84351671 0 409.41489855 0 20946
0.13850000 0.13851100 11580.09690970 0 97.44592544 0 3389.41433139 0 440.55676134 0 680.37394911 0 20955
0.13950000 0.13949800 11497.80022834 0 92.98382600 0 3245.69460134 0 172.38714681 0 923.86121396 0 20506
0.14050000 0.14048300 11420.71640955 0 129.11484191 0 3109.40597324 0 54.45722246 0 948.62563850 0 21447
0.14150000 0.14148400 11064.73335230 0 305.20312114 0 3154.44732404 0 -224.95165650 0 398.40577646 0 21771
0.14250000 0.14249400 10873.83167043 0 286.93702889 0 3549.02774667 0 -89.00497001 0 1120.66563085 0 22470
0.14350000 0.14350900 10401.92342268 0 45.35412256 0 3369.13962337 0 282.32752744 0 935.26518266 0 22519
0.14450000 0.14449900 10608.51914823 0 -24.14786491 0 3434.87714768 0 372.50339510 0 1209.39520643 0 22218
0.14550000 0.14550500 10401.82360191 0 114.05077822 0 3213.31939745 0 -49.92846492 0 774.98740468 0 23559
0.14650000 0.14650700 10317.82996742 0 259.25229219 0 3298.12268931 0 -225.25222794 0 583.97259260 0 23044
0.14750000 0.14750500 10125.04278206 0 112.38155308 0 3381.26230164 0 -319.23681264 0 724.25072424 0 23649
0.14850000 0.14849900 9930.55864358 0 90.54531544 0 3714.29767240 0 -2.15689398 0 95.05555068 0 23640
0.14950000 0.14949500 9954.40471701 0 38.55222421 0 3194.69727777 0 -93.77440652 0 -179.30139898 0 24457
0.15050000 0.15050000 9882.93304388 0 28.96687907 0 3465.58867203 0 65.67241899 0 -457.10482719 0 24591
0.15150000 0.15149900 9797.36445942 0 34.95357445 0 3027.23129505 0 91.22487308 0 -587.76245460 0 25020
0.15250000 0.15250500 9930.07063091 0 50.30844933 0 2960.06300633 0 188.66791481 0 -1070.34819765 0 25297
0.15350000 0.15350100 9562.55272883 0 140.78389022 0 2872.59782720 0 -16.16608502 0 -1287.04467627 0 25452
0.15450000 0.15450400 9407.58652507 0 252.95027408 0 2916.72969985 0 -327.97113024 0 -1010.67866719 0 26061
0.15550000 0.15549900 9239.83217123 0 4.54553852 0 2729.27738023 0 590.36888588 0 -1106.98131205 0 26128
0.15650000 0.15649500 9252.47613575 0 -0.04080795 0 2586.15657481 0 490.71337218 0 -745.86635797 0 26331
0.15750000 0.15749700 9007.01685609 0 98.30970786 0 2222.09912618 0 23.87479964 0 -1083.24836882 0 27345
0.15850000 0.15849900 9014.21504291 0 205.73948515 0 2062.74080843 0 -15.95535228 0 -355.52942729 0 26980
0.15950000 0.15949700 8714.28689504 0 37.05191800 0 2366.82815516 0 120.51916428 0 -108.16534547 0 27777
0.16050000 0.16050000 8925.10836663 0 -14.83137038 0 2098.02190592 0 342.38968627 0 114.63528430 0 28224
0.16150000 0.16150500 8872.74682584 0 -184.92019936 0 1769.03482204 0 602.73002488 0 -23.69445678 0 28075
0.16250000 0.16249700 9044.78238170 0 -57.66169108 0 1508.44714975 0 454.29542700 0 652.82563413 0 28590
0.16350000 0.16349900 9173.34044553 0 -34.81770728 0 1135.09527807 0 144.32198205 0 1067.57318017 0 29163
0.16450000 0.16449100 9133.90014918 0 167.19979399 0 1517.47538406 0 -165.49396790 0 1038.72497691 0 28996
0.16550000 0.16550500 8893.23226660 0 206.40495697 0 1441.80014728 0 -364.39351190 0 948.94395586 0 30777
0.16650000 0.16650700 8695.86441691 0 130.47905914 0 1785.13924001 0 -69.45562627 0 709.32419139 0 29211
0.16750000 0.16749900 8509.51012578 0 173.02710887 0 1926.44108913 0 -189.36776933 0 780.88348498 0 30922
0.16850000 0.16850800 8314.01668837 0 339.16103884 0 2441.42754583 0 -404.83977981 0 654.05675699 0 30867
0.16950000 0.16949900 7948.16246584 0 281.97482737 0 2906.04887719 0 -522.49852439 0 461.34942826 0 30852
0.17050000 0.17049200 7738.56102591 0 94.90870323 0 2918.42665299 0 24.53372765 0 329.92983562 0 31257
0.17150000 0.17149500 7701.33896895 0 16.28686816 0 3079.75920379 0 210.64623068 0 -97.44193261 0 32608
0.17250000 0.17250900 7658.67113429 0 -19.01519170 0 2895.29041615 0 198.46809643 0 545.58041436 0 32361
0.17350000 0.17350400 7792.71934061 0 -95.07263112 0 2555.20104413 0 319.99323227 0 165.79675758 0 32508
0.17450000 0.17449800 7925.95788955 0 -19.04314151 0 2537.21112268 0 -4.57699315 0 456.55470382 0 32791
0.17550000 0.17549800 7830.87305811 0 86.04040397 0 2050.60703897 0 97.49727769 0 70.59713225 0 33633
0.17650000 0.17650100 7782.69289857 0 44.27339633 0 2383.45385939 0 119.58861285 0 753.13109197 0 33984
0.17750000 0.17750300 7742.88659272 0 8.06829122 0 2001.17357417 0 351.39573819 0 680.73330389 0 34069
0.17850000 0.17849800 7889.32366603 0 -79.50369614 0 1782.69917668 0 417.00127726 0 794.57445849 0 34536
