### header ###
fiducial parameters:
Omega_m = 0.31
Omega_nu = 0
Omega_de = 0.69
Omega_k = 0
H_0 = 100
w_de = -1
zeff = 0
beta = 0
fgrowth = 0
b_1 = 2
gamma = 0.55
Lx = 3500 Ly = 3500 Lz = 3500
nx = 700 ny = 700 nz = 700
xoffset = 1379.75464 yoffset = 22.6059522 zoffset = 368.141391
bins = 400 dk = 0.001
kx_ny = 0.628318531 ky_ny = 0.628318531 kz_ny = 0.628318531
############################
A(data) = 3.34507064 (not used)
A(ran) = 3.35481401 (used)
Ngal = 188606
weighted Ngal = 0
Nran = 9399747
weighted Nran = 0
SN(data) = 6622.07412
SN(ran) = 133.439012
SN(data+ran) = 6755.51314
############################
13 columns: k_central k_mean P_0(k) sigma^{lin}_{P_0(k)} P^img_1(k) sigma^{lin}_{P_1(k)} P_2(k) sigma^{lin}_{P_2(k)} P^img_3(k) sigma^{lin}_{P_3(k)} P_4(k) sigma^{lin}_{P_4(k)} N_modes
### header ###
0.00050000 0 0 0 0 0 0 0 0 0 0 0 0
0.00150000 0.00179520 12828.52203819 0 -12109.70156398 0 -13812.53303144 0 35702.78480027 0 -424.24937447 0 3
0.00250000 0.00253879 19526.38496325 0 -20549.88061764 0 -13700.40103029 0 7655.99815583 0 -10073.92345533 0 6
0.00350000 0.00331552 40695.15437060 0 -22372.82974805 0 -14880.61529755 0 -25208.07242392 0 -38127.32045315 0 7
0.00450000 0.00420575 64271.15716359 0 -17667.61126670 0 -29256.69204593 0 -7677.16015961 0 -14766.48688096 0 24
0.00550000 0.00557378 72427.06883947 0 3156.93175216 0 -20273.04434181 0 -24809.45480560 0 12865.78845994 0 45
0.00650000 0.00659388 77702.04210804 0 4568.57493494 0 -1190.06325015 0 -2110.14458419 0 10602.03079802 0 40
0.00750000 0.00754703 56483.14049049 0 2334.64150162 0 24266.65162696 0 4988.65401936 0 7745.42647682 0 57
0.00850000 0.00846663 75016.41967900 0 1270.71843436 0 -7624.82080121 0 17096.19279993 0 6052.68799858 0 75
0.00950000 0.00948925 69194.09584103 0 -3029.18334571 0 15769.02017310 0 11833.08711209 0 15188.61783680 0 112
0.01050000 0.01054430 69362.79294661 0 3081.77780164 0 5298.18714379 0 -13659.91816143 0 6920.31906225 0 105
0.01150000 0.01145670 63277.60774097 0 7019.01962389 0 27807.29442874 0 4770.62326975 0 32041.24795175 0 144
0.01250000 0.01249090 64044.23127403 0 -541.22379220 0 12121.45823274 0 9834.90816109 0 23072.01880366 0 169
0.01350000 0.01339930 63994.20997579 0 -5744.95164806 0 8227.18370746 0 11661.06264742 0 20449.83802116 0 180
0.01450000 0.01448870 70692.18381283 0 304.84709372 0 7517.83511544 0 5826.93777590 0 12835.62040424 0 267
0.01550000 0.01550050 63091.71928012 0 3890.48133592 0 16174.84706944 0 -12725.92846642 0 -1946.70470596 0 238
0.01650000 0.01653350 61728.72208715 0 6518.00807535 0 24073.11024021 0 -494.20709922 0 17008.23960813 0 315
0.01750000 0.01747870 58109.44269901 0 607.41827383 0 23440.02471840 0 -4348.93596178 0 -1586.11880197 0 297
0.01850000 0.01844180 59171.20298286 0 765.77172914 0 39217.36328922 0 368.26101227 0 16179.28354822 0 388
0.01950000 0.01947590 58433.63838580 0 1814.70837108 0 33090.58609502 0 8676.13317753 0 12049.25454061 0 399
0.02050000 0.02045430 54465.31902970 0 -631.20334568 0 24760.54262706 0 13326.51678117 0 21348.00315003 0 462
0.02150000 0.02154770 61442.01464604 0 -1914.55132601 0 27982.31351658 0 15412.10545531 0 27933.40133804 0 571
0.02250000 0.02255340 62135.76901515 0 -2772.45540995 0 7822.61011638 0 10847.09079459 0 22047.19220565 0 510
0.02350000 0.02348930 60824.23497602 0 -1991.99006310 0 16753.58572620 0 9749.06229672 0 35424.06302096 0 555
0.02450000 0.02439640 62897.06877368 0 1360.72349759 0 -3168.06731390 0 -4400.51002759 0 15812.27584120 0 592
0.02550000 0.02547300 65852.31820053 0 -226.68853795 0 7543.58887476 0 5295.01506146 0 26645.71337235 0 837
0.02650000 0.02652900 58366.31482033 0 422.83302862 0 959.74345432 0 -7308.16712834 0 7137.12978020 0 723
0.02750000 0.02749970 59861.18634501 0 4568.14237826 0 9278.32971584 0 -2080.27599081 0 19097.48837727 0 826
0.02850000 0.02848090 57929.76530844 0 -1618.01708440 0 918.62284164 0 4505.55475388 0 5669.98624789 0 831
0.02950000 0.02946900 57030.49105988 0 -145.00519978 0 403.21935593 0 7345.08972298 0 13177.45109418 0 996
0.03050000 0.03053250 57083.06333342 0 3126.77478766 0 7379.38370394 0 -4299.70213852 0 9922.10715150 0 1041
0.03150000 0.03150510 52953.03432581 0 3930.18782100 0 2433.76352874 0 -4690.78883411 0 5677.37298505 0 1036
0.03250000 0.03246190 48102.74298838 0 521.91401831 0 14053.54474112 0 532.96528695 0 14765.48867323 0 1059
0.03350000 0.03345080 47057.95223586 0 1850.66603158 0 13298.56696486 0 -4038.16062329 0 807.41140984 0 1302
0.03450000 0.03451200 46506.94157147 0 848.84479428 0 12097.05759946 0 2297.04234396 0 9596.00377883 0 1339
0.03550000 0.03553350 46854.98333171 0 -71.38793460 0 14488.76330937 0 1220.61949774 0 4286.20415184 0 1365
0.03650000 0.03647120 45383.51423258 0 1195.39811588 0 14337.70120694 0 1356.99685542 0 7598.37938768 0 1308
0.03750000 0.03744890 45367.09926110 0 1059.54648094 0 18899.62142371 0 -646.07664079 0 8181.46579364 0 1579
0.03850000 0.03847530 42804.47820621 0 1386.38852733 0 17495.69771400 0 378.99950916 0 7791.00020508 0 1662
0.03950000 0.03950240 41563.70600362 0 1176.96454655 0 17136.67566879 0 1601.86830164 0 8766.04951119 0 1683
0.04050000 0.04050350 41104.86318587 0 -74.43623917 0 16405.98761384 0 2240.06686524 0 7392.43804275 0 1822
0.04150000 0.04152450 41623.15481926 0 573.53133979 0 19817.19614724 0 1474.68554624 0 9551.98281814 0 1887
0.04250000 0.04250150 40594.22447837 0 1152.04262701 0 15193.27613952 0 -1039.66551041 0 2388.99945786 0 1920
0.04350000 0.04349210 38675.22558239 0 879.97002027 0 20169.00891443 0 -1798.68159149 0 3917.89877478 0 2005
0.04450000 0.04448520 39701.71585995 0 487.08987814 0 18327.31566118 0 289.40703845 0 3328.76766648 0 2151
0.04550000 0.04548030 37991.45329053 0 -797.44596938 0 17641.65786584 0 1982.54036330 0 -1372.21397763 0 2274
0.04650000 0.04648670 39668.66409304 0 -830.40900671 0 12892.62915655 0 4636.20905393 0 -1905.93346598 0 2311
0.04750000 0.04749250 39739.98048942 0 9.61929529 0 11373.57882252 0 106.23325896 0 -5515.07550011 0 2568
0.04850000 0.04851840 39244.75854568 0 1192.92477896 0 10514.37706854 0 -536.49339670 0 -3592.92670420 0 2493
0.04950000 0.04949480 37169.37377273 0 1282.77456544 0 9857.58965885 0 -385.92152517 0 -5834.50197222 0 2644
0.05050000 0.05050630 34866.73037431 0 1342.78903213 0 11658.84440803 0 -2153.20061074 0 -4067.86284871 0 2829
0.05150000 0.05149060 34528.89251527 0 1138.23408681 0 10100.73087835 0 924.83613017 0 -6933.49540423 0 2784
0.05250000 0.05249300 33476.33792488 0 -230.27543104 0 11469.40676416 0 876.88777664 0 -6013.82444448 0 3055
0.05350000 0.05348950 32857.56004714 0 -12.41127121 0 9056.49468568 0 1677.85409193 0 -6836.29215417 0 3009
0.05450000 0.05448610 32934.75477790 0 277.55276715 0 8207.59665365 0 -5.95417599 0 -5374.88277068 0 3336
0.05550000 0.05550870 32913.01603188 0 515.34581148 0 9955.12564482 0 168.04827056 0 -3929.27834285 0 3349
0.05650000 0.05647670 32015.62728680 0 492.56892943 0 8870.00730019 0 1047.79979425 0 -3735.45967618 0 3324
0.05750000 0.05747970 31848.59386076 0 -28.29918901 0 9195.57829541 0 -343.65630096 0 -5783.26064232 0 3639
0.05850000 0.05849280 31490.79184721 0 547.80974495 0 11134.56352829 0 142.96552866 0 -5078.75890336 0 3846
0.05950000 0.05951020 31045.25846580 0 544.11083077 0 10138.56295114 0 -1841.19414939 0 -2951.63369665 0 3787
0.06050000 0.06049470 30748.67985940 0 61.07833430 0 10739.26217786 0 1208.13080998 0 -4012.51777594 0 3930
0.06150000 0.06148310 31041.15472293 0 -267.44203201 0 9948.94784812 0 -471.15737372 0 -5930.00826914 0 4083
0.06250000 0.06249100 30960.63263309 0 -56.52617433 0 9673.46469832 0 1647.26457075 0 -4852.39866485 0 4303
0.06350000 0.06350600 30985.92056213 0 -29.69423977 0 7344.02496807 0 1419.44029424 0 -4172.08682644 0 4470
0.06450000 0.06451750 30882.77243051 0 275.71828318 0 8024.25916810 0 1434.82378440 0 -3869.67425045 0 4479
0.06550000 0.06550280 30429.47521124 0 273.44902428 0 6120.92104221 0 15.62106361 0 -2696.11470136 0 4636
0.06650000 0.06648880 29706.88373006 0 285.50626448 0 6520.09322038 0 968.46224424 0 -963.18505274 0 4653
0.06750000 0.06749660 30215.63693407 0 247.49562342 0 6496.04750539 0 -412.67681957 0 -1548.04272285 0 5220
0.06850000 0.06852730 28582.90183133 0 730.51503228 0 6847.89354618 0 57.22003962 0 387.42660060 0 5029
0.06950000 0.06949320 27948.15262998 0 1661.11747574 0 9557.19568071 0 -2173.77478108 0 -1221.62879667 0 5040
0.07050000 0.07048030 26721.46624751 0 537.04352007 0 9151.62388190 0 126.22780335 0 1686.59395513 0 5475
0.07150000 0.07148790 26969.57632324 0 -19.70972245 0 12062.67488892 0 1452.56969952 0 1392.38886488 0 5509
0.07250000 0.07249820 26617.54173210 0 -345.57175067 0 9604.05598781 0 1143.90168845 0 3963.09540234 0 5916
0.07350000 0.07351270 26548.55448708 0 323.73207476 0 11285.95836663 0 134.95657535 0 1901.16425129 0 5721
0.07450000 0.07449140 27286.56273202 0 239.70073021 0 11092.52789186 0 -339.32740679 0 4960.75965903 0 6028
0.07550000 0.07549160 26219.47867363 0 532.57154946 0 11395.65030445 0 191.11019638 0 3115.40631079 0 6183
0.07650000 0.07648840 26167.01731206 0 762.57635529 0 12797.24486280 0 -1137.33569986 0 4487.20991413 0 6330
0.07750000 0.07749960 25013.86556536 0 625.00225747 0 13337.82980205 0 -33.53955775 0 3992.38725348 0 6583
0.07850000 0.07848650 24617.02253855 0 210.15599977 0 13531.59301274 0 511.60585987 0 4737.79332678 0 6549
0.07950000 0.07947320 24768.97193674 0 -74.55790960 0 13835.15907321 0 1634.32114391 0 3506.07154089 0 6828
0.08050000 0.08048110 24557.79554685 0 17.62934664 0 12502.10811201 0 519.98415004 0 2176.66958348 0 7147
0.08150000 0.08149960 24699.09739597 0 149.08676026 0 12598.04696561 0 764.09695840 0 5499.30381805 0 7386
0.08250000 0.08250610 23146.99529503 0 318.18093069 0 10388.29234163 0 769.47064332 0 1438.30642025 0 7227
0.08350000 0.08350160 23712.09177954 0 526.68212388 0 11582.86970894 0 276.79302016 0 2807.48140991 0 7798
0.08450000 0.08449610 22671.62659383 0 418.59286402 0 9723.08671346 0 219.22083504 0 1442.01088003 0 7371
0.08550000 0.08548940 21921.75076816 0 616.01616970 0 10506.36922434 0 -479.57670132 0 347.67131426 0 8256
0.08650000 0.08650700 21004.84151645 0 512.12049141 0 9414.14142247 0 -124.92680595 0 -564.23802587 0 8037
0.08750000 0.08749060 21082.36898312 0 26.37164990 0 9185.20802626 0 337.29217215 0 -1890.37251666 0 8155
0.08850000 0.08849210 20125.64233437 0 76.38352061 0 8554.71784454 0 589.16105453 0 -2855.32883355 0 8718
0.08950000 0.08949900 20696.94988917 0 55.29438600 0 8112.24563349 0 1104.89838526 0 -1069.00394458 0 8571
0.09050000 0.09049190 20162.90875611 0 -123.83210481 0 7077.44804942 0 1020.64188941 0 -2125.28406802 0 8932
0.09150000 0.09150830 20396.60027581 0 -13.73800019 0 6186.95802884 0 786.34368124 0 -1878.48275353 0 9285
0.09250000 0.09250820 20028.92709698 0 278.91143878 0 6278.20530613 0 37.82441986 0 -1032.82778749 0 9204
0.09350000 0.09350330 19868.43747714 0 245.95616528 0 5609.26194459 0 -67.19479668 0 -932.27832332 0 9349
0.09450000 0.09448040 19632.52771805 0 156.46129711 0 6025.45911008 0 -168.66050463 0 -1272.65939382 0 9564
0.09550000 0.09549270 19704.06593836 0 46.97022087 0 6946.90466134 0 56.39729463 0 -865.09117957 0 10155
0.09650000 0.09649430 19346.81848466 0 525.98226935 0 6657.64624493 0 -311.20456781 0 -980.54721244 0 9913
0.09750000 0.09749140 18698.98167092 0 583.18400850 0 7230.08510182 0 -879.44207930 0 -428.46957491 0 10476
0.09850000 0.09850240 18630.21624984 0 302.70871095 0 8091.59382477 0 193.63677104 0 -1810.47153384 0 10575
0.09950000 0.09950330 17749.13156427 0 337.95431661 0 7380.51500603 0 -117.99258961 0 -1118.54721223 0 10882
0.10050000 0.10051200 17764.77015197 0 384.38206704 0 7916.66346651 0 276.54235911 0 -830.93362033 0 10875
0.10150000 0.10150300 17080.55421223 0 -104.35285743 0 7107.53846674 0 966.67101594 0 -1457.38327900 0 11118
0.10250000 0.10250800 17590.08380003 0 -281.49346943 0 5995.71251986 0 949.93661798 0 -835.00630785 0 11575
0.10350000 0.10349800 17314.68937981 0 -68.49956509 0 5599.30204973 0 1012.52978796 0 -2459.43964968 0 11364
0.10450000 0.10450100 17030.97656187 0 453.48798786 0 4874.72524430 0 -44.73767383 0 -606.68070923 0 12093
0.10550000 0.10551000 16487.61882338 0 560.50583810 0 4504.56763735 0 -27.30419774 0 -869.17052181 0 12067
0.10650000 0.10649700 16053.62028680 0 242.05095484 0 4861.72636148 0 419.75411234 0 163.23025461 0 12054
0.10750000 0.10749900 15562.72390987 0 59.09445190 0 4441.71382425 0 750.82301389 0 242.27943350 0 12807
0.10850000 0.10850100 15419.86929317 0 -2.58072189 0 4182.49036917 0 514.05701440 0 148.15288148 0 12736
0.10950000 0.10950300 15799.29914077 0 12.49645160 0 4090.72180563 0 -34.16975956 0 785.36987414 0 12933
0.11050000 0.11050200 15464.01225703 0 84.01681509 0 4105.26236482 0 -37.70263852 0 -229.20956701 0 13428
0.11150000 0.11150900 15397.13233943 0 127.48665420 0 4402.06279516 0 -126.10912754 0 1071.01034211 0 13453
0.11250000 0.11250000 15409.99812789 0 39.52802772 0 4262.21389284 0 -281.06978570 0 -189.21581994 0 13668
0.11350000 0.11349100 15512.03713981 0 291.82602850 0 5016.93657157 0 -520.47105359 0 298.48740139 0 13791
0.11450000 0.11448600 15156.34245369 0 243.94311304 0 4966.49380785 0 12.24002313 0 -871.92335689 0 14205
0.11550000 0.11549300 14828.81940780 0 210.25138407 0 5321.94448765 0 -136.27310042 0 385.21834329 0 14776
0.11650000 0.11649800 14614.53748276 0 182.33595047 0 5515.18641208 0 759.39318177 0 115.35732122 0 14553
0.11750000 0.11747300 14495.41802754 0 74.77185879 0 5446.09934629 0 325.83385659 0 636.52157462 0 14568
0.11850000 0.11849100 14281.13610250 0 154.57579363 0 5057.30852847 0 238.36424097 0 575.51000933 0 16015
0.11950000 0.11950300 13909.47009277 0 170.07241400 0 4945.01015937 0 143.75189453 0 904.49376585 0 15270
0.12050000 0.12050700 13662.80187264 0 503.47601251 0 5446.54299417 0 -503.52703201 0 1664.17864610 0 15999
0.12150000 0.12150000 13113.78762370 0 249.08942842 0 5222.57845419 0 -5.24722309 0 808.40185373 0 15670
0.12250000 0.12250700 13304.66712318 0 -164.37153877 0 5654.71366969 0 728.27017401 0 1494.48333279 0 16887
0.12350000 0.12352200 13255.42220873 0 -95.10191188 0 5163.45128326 0 289.67877277 0 580.28698785 0 16407
0.12450000 0.12449800 13712.93408284 0 -350.53173395 0 4243.63613795 0 799.22056089 0 1505.94053924 0 16306
0.12550000 0.12549900 13729.01631842 0 -183.87319037 0 4039.02573665 0 109.22854761 0 352.60356954 0 17523
0.12650000 0.12650100 13999.64152396 0 271.11765468 0 4086.71788353 0 -433.74787553 0 997.65760197 0 17154
0.12750000 0.12750600 13666.57287960 0 223.39667069 0 4053.56629585 0 -302.27060867 0 -274.37181187 0 18007
0.12850000 0.12850300 13536.14040349 0 105.21065060 0 4659.77784745 0 123.47607739 0 708.92379918 0 17496
0.12950000 0.12949900 13104.24919432 0 232.23746378 0 3939.71515918 0 200.09184766 0 -486.42773368 0 18405
0.13050000 0.13049000 13041.91666748 0 300.39397815 0 4469.85219091 0 92.69900406 0 -6.94463097 0 18100
0.13150000 0.13148800 12522.62682636 0 146.46701954 0 4381.68826636 0 418.75479550 0 882.09065713 0 19059
0.13250000 0.13249300 12562.66604734 0 178.34311957 0 4120.32421028 0 84.51791537 0 552.17745831 0 18957
0.13350000 0.13349100 12194.54922063 0 15.99494785 0 3903.13639164 0 362.22185553 0 835.66956142 0 19468
0.13450000 0.13450700 12233.14658601 0 86.54682803 0 3774.44523345 0 207.75253740 0 571.52716050 0 19953
0.13550000 0.13551000 12072.98970208 0 207.89339560 0 3698.30416640 0 -244.59638454 0 821.26209659 0 19956
0.13650000 0.13649900 11680.47224208 0 273.21721826 0 4030.40787662 0 -259.24120099 0 263.89284899 0 19723
0.13750000 0.13749600 11692.45073479 0 192.94578947 0 4148.79531285 0 -333.50231016 0 325.68190719 0 20946
0.13850000 0.13851100 11264.88509243 0 21.96722468 0 4131.57068399 0 374.80370935 0 165.62817139 0 20955
0.13950000 0.13949800 11384.33728356 0 162.36957772 0 4238.51200496 0 -23.98482431 0 408.81819215 0 20506
0.14050000 0.14048300 11183.69753077 0 42.97328622 0 4041.94272145 0 127.15391829 0 -40.19760328 0 21447
0.14150000 0.14148400 11201.22162195 0 18.51863881 0 4183.63276246 0 223.37227006 0 312.42127212 0 21771
0.14250000 0.14249400 11220.74212858 0 35.63889951 0 3425.32762711 0 229.69757968 0 -260.85053367 0 22470
0.14350000 0.14350900 11155.96953840 0 48.98294038 0 3785.61406878 0 -108.38683667 0 -248.33411791 0 22519
0.14450000 0.14449900 10835.56704096 0 180.42826459 0 3409.18993555 0 -83.67143522 0 20.78945047 0 22218
0.14550000 0.14550500 10949.78418713 0 28.46234052 0 3507.91267959 0 282.16448684 0 -171.83369608 0 23559
0.14650000 0.14650700 10871.54688386 0 -30.11648163 0 3276.02902499 0 341.80074371 0 -347.49163687 0 23044
0.14750000 0.14750500 10797.97897450 0 90.97587570 0 2667.53268682 0 289.47802211 0 -404.36174922 0 23649
0.14850000 0.14849900 10647.83744141 0 224.35716835 0 3347.06814144 0 -192.96353539 0 27.64048283 0 23640
0.14950000 0.14949500 10371.26735431 0 162.98403003 0 2721.00334731 0 -21.90910680 0 -326.03571637 0 24457
0.15050000 0.15050000 10309.35629295 0 86.76998291 0 3578.54142175 0 52.82459827 0 -145.68287191 0 24591
0.15150000 0.15149900 10114.52832736 0 121.37762292 0 2827.39010843 0 -33.87373551 0 -82.09759437 0 25020
0.15250000 0.15250500 9953.45087408 0 66.28432032 0 3166.59218470 0 425.66793856 0 234.50339532 0 25297
0.15350000 0.15350100 10007.88646870 0 15.31916122 0 2990.24215323 0 179.94247017 0 596.11523502 0 25452
0.15450000 0.15450400 10000.36663717 0 72.90254845 0 3037.26882829 0 222.38848089 0 502.49111422 0 26061
0.15550000 0.15549900 9823.37331627 0 165.05032003 0 2840.17825852 0 107.33794218 0 1138.48918434 0 26128
0.15650000 0.15649500 9615.23591434 0 50.21151226 0 2534.83760653 0 19.13453298 0 1085.56310162 0 26331
0.15750000 0.15749700 9691.43243737 0 -8.75984953 0 2758.92414967 0 472.50495415 0 1377.51556977 0 27345
0.15850000 0.15849900 9616.46703720 0 117.21509671 0 2471.97270223 0 109.45425347 0 1029.00243367 0 26980
0.15950000 0.15949700 9493.31038629 0 83.84201783 0 2249.32801469 0 -48.48838391 0 886.81107055 0 27777
0.16050000 0.16050000 9270.00022693 0 158.49209527 0 2433.50843121 0 -232.52361666 0 576.77329666 0 28224
0.16150000 0.16150500 9202.77648223 0 175.84649114 0 2407.31102402 0 -111.37225416 0 786.18396800 0 28075
0.16250000 0.16249700 8700.89982032 0 184.64513767 0 2611.08958555 0 -55.77075291 0 -31.08130486 0 28590
0.16350000 0.16349900 8810.46975497 0 181.37101634 0 2424.80184161 0 -5.40398607 0 675.30527211 0 29163
0.16450000 0.16449100 8471.43404666 0 32.98655067 0 2554.25829239 0 289.93719766 0 257.51430162 0 28996
0.16550000 0.16550500 8449.10746720 0 -25.66358788 0 2128.61142711 0 504.37550858 0 743.08135842 0 30777
0.16650000 0.16650700 8386.46438684 0 18.55180149 0 1993.29882434 0 192.89587908 0 337.60716215 0 29211
0.16750000 0.16749900 8527.30040569 0 79.50957447 0 1814.97455980 0 -123.51489657 0 1037.35965057 0 30922
0.16850000 0.16850800 8369.04011643 0 66.89145244 0 1829.63712217 0 144.58595254 0 672.91068269 0 30867
0.16950000 0.16949900 8436.15294917 0 -27.67076179 0 1969.60802766 0 60.85540124 0 1146.99613240 0 30852
0.17050000 0.17049200 8288.39602342 0 112.18191153 0 1853.31682765 0 38.43099743 0 857.67338705 0 31257
0.17150000 0.17149500 8271.34885371 0 140.76281695 0 1938.30866987 0 -14.64315277 0 1065.17304515 0 32608
0.17250000 0.17250900 8181.45470245 0 87.64629838 0 2203.16645299 0 -234.64758088 0 1194.12262823 0 32361
0.17350000 0.17350400 8101.44280766 0 126.90880284 0 2451.70908540 0 -98.10074971 0 739.09407312 0 32508
0.17450000 0.17449800 7915.47670843 0 66.01169870 0 2513.04340453 0 34.05263652 0 1038.76934170 0 32791
0.17550000 0.17549800 7855.72843047 0 111.99890678 0 2396.61911016 0 -107.77870634 0 848.05510105 0 33633
0.17650000 0.17650100 7891.78591175 0 79.44801833 0 2818.73897482 0 -55.48260361 0 1050.06683491 0 33984
0.17750000 0.17750300 7718.03122036 0 77.27447647 0 2551.88477624 0 41.00260235 0 391.09889591 0 34069
0.17850000 0.17849800 7547.08260180 0 244.74722482 0 2989.19958071 0 -302.37597504 0 598.08835895 0 34536
