### header ###
fiducial parameters:
Omega_m = 0.31
Omega_nu = 0
Omega_de = 0.69
Omega_k = 0
H_0 = 100
w_de = -1
zeff = 0
beta = 0
fgrowth = 0
b_1 = 2
gamma = 0.55
Lx = 3500 Ly = 3500 Lz = 3500
nx = 700 ny = 700 nz = 700
xoffset = 1379.75464 yoffset = 22.6059522 zoffset = 368.141391
bins = 400 dk = 0.001
kx_ny = 0.628318531 ky_ny = 0.628318531 kz_ny = 0.628318531
############################
A(data) = 3.34021237 (not used)
A(ran) = 3.3420429 (used)
Ngal = 187357
weighted Ngal = 0
Nran = 9399747
weighted Nran = 0
SN(data) = 6672.07075
SN(ran) = 132.931036
SN(data+ran) = 6805.00179
############################
13 columns: k_central k_mean P_0(k) sigma^{lin}_{P_0(k)} P^img_1(k) sigma^{lin}_{P_1(k)} P_2(k) sigma^{lin}_{P_2(k)} P^img_3(k) sigma^{lin}_{P_3(k)} P_4(k) sigma^{lin}_{P_4(k)} N_modes
### header ###
0.00050000 0 0 0 0 0 0 0 0 0 0 0 0
0.00150000 0.00179520 59843.99498974 0 -79081.01062461 0 -126530.59302471 0 137066.12100583 0 86454.10561988 0 3
0.00250000 0.00253879 98221.53284604 0 -72075.14516030 0 -52466.90716357 0 -102273.47982713 0 -22819.80498506 0 6
0.00350000 0.00331552 140568.72100208 0 -35211.55568743 0 -108257.95696449 0 -63987.55525762 0 -87331.53021046 0 7
0.00450000 0.00420575 168678.25054765 0 -7852.04615309 0 -73790.62059228 0 -114231.56472883 0 -5449.18269904 0 24
0.00550000 0.00557378 124059.47434465 0 31393.85478588 0 -26628.30019314 0 -96389.59984610 0 23714.31001893 0 45
0.00650000 0.00659388 119186.00240560 0 20373.64149813 0 3397.86582347 0 -15392.36312474 0 -25219.05270890 0 40
0.00750000 0.00754703 76200.18312928 0 8580.60469822 0 13117.66954263 0 3748.86893329 0 -21161.89286524 0 57
0.00850000 0.00846663 90353.43773097 0 1491.91017510 0 24347.72827665 0 10819.51807898 0 -21507.05091427 0 75
0.00950000 0.00948925 74841.17876722 0 5347.64279098 0 23594.63600386 0 -290.21891407 0 6651.36862746 0 112
0.01050000 0.01054430 72619.16837061 0 6832.85388312 0 26826.94353048 0 11271.65072257 0 3262.87486541 0 105
0.01150000 0.01145670 70723.57190019 0 540.68365091 0 43062.90309511 0 5238.06176513 0 6510.92080050 0 144
0.01250000 0.01249090 70865.87195703 0 83.72378567 0 34178.29977973 0 16338.33131246 0 16987.60998181 0 169
0.01350000 0.01339930 78305.07048612 0 -5891.52181573 0 29568.79832805 0 12643.85360900 0 44104.81013642 0 180
0.01450000 0.01448870 83956.47897911 0 -3571.60942366 0 30889.64897262 0 10754.24638494 0 30248.35596507 0 267
0.01550000 0.01550050 93153.41040055 0 2360.30653135 0 18472.94307711 0 20435.75220104 0 12350.93509760 0 238
0.01650000 0.01653350 85002.71158724 0 2692.07750567 0 31385.09274029 0 -6699.44896623 0 34237.08312356 0 315
0.01750000 0.01747870 86620.80631002 0 4231.42473011 0 24405.06976487 0 -1576.75783175 0 13701.06650211 0 297
0.01850000 0.01844180 76290.24364850 0 4520.31713702 0 39402.69719023 0 9913.37837950 0 32192.42096616 0 388
0.01950000 0.01947590 71956.80208886 0 1038.65399325 0 28520.79112842 0 3487.12777651 0 4976.64225306 0 399
0.02050000 0.02045430 74491.47332744 0 333.01429749 0 26647.04431598 0 1549.52894324 0 8166.32630981 0 462
0.02150000 0.02154770 70359.22608044 0 1153.35138825 0 23188.80910753 0 -1420.69359949 0 -6499.54123243 0 571
0.02250000 0.02255340 70274.93298363 0 2117.76423649 0 20147.38108039 0 -9691.11079266 0 -20492.53912941 0 510
0.02350000 0.02348930 68355.82317568 0 2887.87040539 0 30130.01289363 0 -5239.01560807 0 -15648.68068622 0 555
0.02450000 0.02439640 64662.56550389 0 2842.77359860 0 22022.90248433 0 -3955.90830672 0 -37238.47192972 0 592
0.02550000 0.02547300 62410.38705159 0 914.73537711 0 24115.03496467 0 3711.30304922 0 -18120.46483810 0 837
0.02650000 0.02652900 61306.81295524 0 252.19274533 0 21715.78724083 0 8065.09695526 0 -27983.86628415 0 723
0.02750000 0.02749970 63219.04622108 0 -1664.81084432 0 22016.80232601 0 8596.59820422 0 1119.23486644 0 826
0.02850000 0.02848090 64750.85143160 0 -1893.53350779 0 12944.97960615 0 8734.41741750 0 -15147.69132007 0 831
0.02950000 0.02946900 65608.86642752 0 487.63556503 0 17669.38585821 0 1945.40703592 0 9442.75671060 0 996
0.03050000 0.03053250 63442.53383959 0 2074.74148353 0 13899.70983945 0 -6002.25632606 0 2372.96158707 0 1041
0.03150000 0.03150510 62669.25558836 0 2103.67841637 0 22822.02322445 0 1950.67535447 0 3483.66732306 0 1036
0.03250000 0.03246190 60909.85901646 0 611.29797452 0 29648.87677002 0 -3138.46490924 0 14923.87096565 0 1059
0.03350000 0.03345080 61803.36584261 0 735.74342252 0 21023.03107945 0 258.60678452 0 -7626.36247758 0 1302
0.03450000 0.03451200 59794.52825135 0 1206.54476882 0 31508.09411445 0 -3195.76203268 0 6582.70302715 0 1339
0.03550000 0.03553350 59550.74374243 0 700.43570615 0 22242.84091981 0 444.19245570 0 -11282.29827164 0 1365
0.03650000 0.03647120 57348.47567639 0 2608.66061342 0 36985.92537521 0 -3805.63367927 0 -2815.06778863 0 1308
0.03750000 0.03744890 54705.88709150 0 4894.01283580 0 29880.35005033 0 -4034.23433957 0 -11599.39559239 0 1579
0.03850000 0.03847530 48333.10714899 0 2357.23426980 0 36614.03754153 0 2179.85275701 0 -8792.60183669 0 1662
0.03950000 0.03950240 46172.32015954 0 867.62884543 0 32250.87157407 0 5248.60949343 0 -7469.06712246 0 1683
0.04050000 0.04050350 45058.98580988 0 139.22003145 0 26813.41227021 0 7170.22591189 0 -10510.00713694 0 1822
0.04150000 0.04152450 44280.60560805 0 340.02393396 0 22538.53223045 0 6165.91802823 0 658.93577453 0 1887
0.04250000 0.04250150 42556.58995442 0 48.44058085 0 14830.03943947 0 3841.68006935 0 -6440.38078791 0 1920
0.04350000 0.04349210 42769.31911189 0 -243.11570975 0 11622.57619401 0 6161.03790157 0 2357.35627297 0 2005
0.04450000 0.04448520 41505.69904358 0 532.62145985 0 8425.28357616 0 1973.19048427 0 -2095.31565387 0 2151
0.04550000 0.04548030 41875.47954983 0 1078.68766864 0 8761.41339087 0 -1580.47338273 0 -2027.57062291 0 2274
0.04650000 0.04648670 38603.13280223 0 2170.02595651 0 8115.04061512 0 -2042.28864126 0 -3711.09231648 0 2311
0.04750000 0.04749250 36456.65345684 0 1394.78456342 0 9300.03518827 0 -2249.87148334 0 -4874.02649890 0 2568
0.04850000 0.04851840 34105.54152775 0 1366.73492634 0 12415.59677581 0 -1495.61463488 0 -5284.58933633 0 2493
0.04950000 0.04949480 34355.75893091 0 1120.73217803 0 12660.04675655 0 1804.31591954 0 -6236.71313835 0 2644
0.05050000 0.05050630 31531.16380410 0 576.45941579 0 13423.12110659 0 351.17835073 0 -3999.49671073 0 2829
0.05150000 0.05149060 31715.94314526 0 374.63290492 0 12547.80384343 0 3217.65605545 0 1786.31490689 0 2784
0.05250000 0.05249300 31926.78679925 0 -529.17098848 0 10924.52953168 0 2467.96878013 0 151.30056317 0 3055
0.05350000 0.05348950 33140.60739326 0 -712.31548720 0 9983.59674738 0 2856.52668282 0 3605.82576625 0 3009
0.05450000 0.05448610 32616.10468958 0 287.79437841 0 10951.10403957 0 232.45263300 0 4133.92201774 0 3336
0.05550000 0.05550870 33513.71525860 0 227.91744257 0 9763.30339360 0 -1959.84777434 0 6373.80033263 0 3349
0.05650000 0.05647670 33146.48572764 0 -425.79215996 0 11646.20044351 0 654.31074540 0 2625.99615425 0 3324
0.05750000 0.05747970 34236.30673977 0 -485.74340683 0 12258.32360308 0 -792.86308680 0 3840.07184579 0 3639
0.05850000 0.05849280 34072.71158479 0 55.52951938 0 11777.29839144 0 2129.19926054 0 1436.48746395 0 3846
0.05950000 0.05951020 34754.15472529 0 44.74455038 0 11995.01858753 0 59.47199624 0 4310.99297702 0 3787
0.06050000 0.06049470 33692.61626537 0 949.94105446 0 11525.63913268 0 157.40072149 0 207.65271662 0 3930
0.06150000 0.06148310 32821.73548100 0 1245.87415319 0 11710.64029778 0 -507.59750129 0 2115.32417316 0 4083
0.06250000 0.06249100 31097.94165130 0 899.14115420 0 12173.80868234 0 -1222.24990369 0 1440.85739554 0 4303
0.06350000 0.06350600 29842.97271661 0 725.26889612 0 12067.33319164 0 847.22880688 0 -227.20206036 0 4470
0.06450000 0.06451750 28669.96772737 0 801.71275285 0 11210.64913935 0 115.17653471 0 520.32686803 0 4479
0.06550000 0.06550280 27990.74282626 0 -17.17372027 0 10133.02844387 0 3408.16954543 0 1243.96646732 0 4636
0.06650000 0.06648880 28354.75591010 0 -677.80966438 0 7017.48903872 0 3045.69813797 0 1294.36486625 0 4653
0.06750000 0.06749660 28737.51311678 0 88.30622460 0 7287.42659004 0 592.10798556 0 321.69240365 0 5220
0.06850000 0.06852730 27703.14808939 0 1040.34096431 0 5974.26214496 0 -976.06747799 0 973.28358756 0 5029
0.06950000 0.06949320 26400.26518388 0 1403.57988260 0 8042.79255820 0 -2682.50580270 0 957.14035040 0 5040
0.07050000 0.07048030 25603.25177119 0 313.76552519 0 8646.20912817 0 -93.17581462 0 1506.73910542 0 5475
0.07150000 0.07148790 24806.46018243 0 -18.35171629 0 7485.34899958 0 1599.77206542 0 -658.12168068 0 5509
0.07250000 0.07249820 25257.87189822 0 -16.78231193 0 8328.18014688 0 1179.53770425 0 455.85374017 0 5916
0.07350000 0.07351270 24608.81505281 0 109.44271862 0 5919.66018239 0 795.14454601 0 402.18011078 0 5721
0.07450000 0.07449140 25051.02107513 0 -161.71186974 0 6977.02835225 0 109.02668782 0 1044.74971509 0 6028
0.07550000 0.07549160 25146.95992874 0 -58.62185600 0 5974.46178651 0 911.31707021 0 560.34834310 0 6183
0.07650000 0.07648840 24986.13757299 0 119.83483743 0 6645.49029307 0 274.60139964 0 1470.72598893 0 6330
0.07750000 0.07749960 25061.44680026 0 -3.22909108 0 4407.12038097 0 191.64922855 0 913.79706185 0 6583
0.07850000 0.07848650 25024.84585034 0 383.38053195 0 6996.84832120 0 -56.94653070 0 845.16695337 0 6549
0.07950000 0.07947320 24562.12111366 0 491.45870061 0 6227.04161461 0 -738.11915690 0 2136.43072095 0 6828
0.08050000 0.08048110 24077.32489505 0 244.28694014 0 6914.58491343 0 -727.63575755 0 -792.14659548 0 7147
0.08150000 0.08149960 23992.25541446 0 436.74249871 0 8129.83627185 0 -1654.95077024 0 -435.60343278 0 7386
0.08250000 0.08250610 23456.10695398 0 618.80338749 0 8996.01438872 0 -1407.57271350 0 -2382.34473969 0 7227
0.08350000 0.08350160 23165.18485803 0 197.92795514 0 10123.19055217 0 -143.62212752 0 -2037.46397059 0 7798
0.08450000 0.08449610 22968.64884810 0 122.60652754 0 10274.85157924 0 221.30930743 0 -2981.35810447 0 7371
0.08550000 0.08548940 22766.56723971 0 289.99930837 0 9970.32058464 0 272.63603954 0 -3807.20862923 0 8256
0.08650000 0.08650700 21551.74843797 0 853.83805114 0 10960.52046578 0 -41.36384263 0 -3852.28325363 0 8037
0.08750000 0.08749060 21437.17637349 0 744.76611124 0 9886.31585895 0 -125.15861196 0 -3062.29056860 0 8155
0.08850000 0.08849210 20093.58877519 0 -51.35224187 0 9564.11658760 0 1832.75374851 0 -897.43643723 0 8718
0.08950000 0.08949900 20130.18972512 0 66.82069061 0 8355.45340017 0 2215.83259991 0 -972.36079997 0 8571
0.09050000 0.09049190 19810.87416498 0 47.49694181 0 7110.10053323 0 1580.01864365 0 110.71587712 0 8932
0.09150000 0.09150830 19437.87721161 0 520.07177050 0 6022.64194605 0 1124.27026985 0 511.66353409 0 9285
0.09250000 0.09250820 18579.97312766 0 451.61579382 0 5026.76337207 0 271.84080072 0 1490.56814027 0 9204
0.09350000 0.09350330 17785.51069026 0 422.70880721 0 5078.54817062 0 -29.37692062 0 2461.77989223 0 9349
0.09450000 0.09448040 17790.83446480 0 213.59870731 0 4788.08081374 0 223.79484466 0 954.34093229 0 9564
0.09550000 0.09549270 17292.28516197 0 113.21117461 0 5527.97456216 0 77.19628353 0 1669.89061252 0 10155
0.09650000 0.09649430 16865.82863931 0 316.76125748 0 5179.21187412 0 -503.11111213 0 206.19976982 0 9913
0.09750000 0.09749140 16714.65562491 0 144.22327040 0 5444.13620443 0 -351.31366333 0 878.98955846 0 10476
0.09850000 0.09850240 16845.97539678 0 137.18257857 0 5537.32444119 0 43.76020665 0 607.73880942 0 10575
0.09950000 0.09950330 16707.88999477 0 -188.12222792 0 5730.10053534 0 300.64131184 0 508.87742542 0 10882
0.10050000 0.10051200 17187.80608672 0 -289.90614231 0 4988.79820492 0 1266.57032670 0 1382.42897002 0 10875
0.10150000 0.10150300 17348.40661853 0 -80.21730375 0 5022.36016688 0 220.93886145 0 46.16644183 0 11118
0.10250000 0.10250800 17127.69179926 0 408.50431128 0 4994.13307065 0 -16.46721102 0 1736.09396711 0 11575
0.10350000 0.10349800 16807.82167928 0 443.86082891 0 5180.53172656 0 -200.67635374 0 1845.27570987 0 11364
0.10450000 0.10450100 16174.51433353 0 268.60438945 0 5921.68987143 0 107.48745151 0 2346.40926158 0 12093
0.10550000 0.10551000 16090.11032476 0 -2.43554921 0 4969.53279582 0 397.42420553 0 1251.69703159 0 12067
0.10650000 0.10649700 15766.69102175 0 500.82410732 0 5928.54423114 0 -392.38880211 0 2408.56432928 0 12054
0.10750000 0.10749900 15285.33307419 0 579.13017601 0 5912.29562761 0 -767.57848512 0 978.81476748 0 12807
0.10850000 0.10850100 14788.11471500 0 222.61585043 0 6670.07947671 0 -22.56138010 0 1364.63869012 0 12736
0.10950000 0.10950300 14163.45850288 0 172.30839931 0 6516.38876060 0 469.93179646 0 1418.19808018 0 12933
0.11050000 0.11050200 14401.25376545 0 12.62366763 0 5703.78112499 0 473.54752666 0 1252.63978333 0 13428
0.11150000 0.11150900 14351.78702706 0 -110.83444202 0 6020.62334821 0 1064.28242204 0 2112.01899647 0 13453
0.11250000 0.11250000 14520.15139674 0 -47.70711999 0 4928.97228858 0 509.29445443 0 1030.64725817 0 13668
0.11350000 0.11349100 14563.40706483 0 21.69105387 0 4095.67957066 0 275.78926684 0 1971.57116952 0 13791
0.11450000 0.11448600 14395.04269516 0 49.58596876 0 4637.58436235 0 517.92562389 0 2575.33156659 0 14205
0.11550000 0.11549300 14235.21854714 0 -35.57257415 0 3878.93539990 0 176.24466511 0 2169.18302554 0 14776
0.11650000 0.11649800 14520.59504461 0 -13.89882254 0 3918.67515856 0 413.75488391 0 1780.49202849 0 14553
0.11750000 0.11747300 14413.45408209 0 -76.83537598 0 3149.38973824 0 -117.37480994 0 1699.22682845 0 14568
0.11850000 0.11849100 14501.96183374 0 18.04415740 0 3653.79519305 0 18.40051756 0 1543.18477859 0 16015
0.11950000 0.11950300 14534.68086474 0 218.37790407 0 3711.63578513 0 -603.34669543 0 414.68432622 0 15270
0.12050000 0.12050700 14018.38564680 0 365.72556465 0 3644.06821332 0 -481.46220480 0 57.93098534 0 15999
0.12150000 0.12150000 13754.41515943 0 287.67902996 0 4541.15749609 0 -582.66383136 0 -459.03025898 0 15670
0.12250000 0.12250700 13413.47176524 0 184.64402855 0 4814.38913291 0 68.85891987 0 -68.84106304 0 16887
0.12350000 0.12352200 13335.27882676 0 8.59833952 0 4184.29823428 0 602.94186674 0 -550.85095115 0 16407
0.12450000 0.12449800 13314.64920043 0 -1.98958327 0 4009.03514010 0 755.93938304 0 272.77024303 0 16306
0.12550000 0.12549900 13223.25773758 0 97.59687663 0 3710.21611192 0 254.10708592 0 47.88757377 0 17523
0.12650000 0.12650100 13049.68050534 0 226.56431654 0 3609.74095877 0 111.59518721 0 673.76137749 0 17154
0.12750000 0.12750600 12737.46331125 0 214.75219179 0 3719.02252230 0 -126.80121823 0 281.42692224 0 18007
0.12850000 0.12850300 12534.82714300 0 106.75698528 0 3392.56423133 0 -264.37198870 0 678.50175507 0 17496
0.12950000 0.12949900 12516.30484410 0 54.48361950 0 4245.33309108 0 50.10304036 0 84.84333109 0 18405
0.13050000 0.13049000 12553.57126585 0 -114.85378088 0 3251.19583502 0 353.11154636 0 148.56214664 0 18100
0.13150000 0.13148800 12670.80521759 0 -107.07130980 0 3357.09458348 0 317.87037718 0 -209.48387324 0 19059
0.13250000 0.13249300 12573.86815626 0 271.76427146 0 3237.12110610 0 -251.44408953 0 -448.28288913 0 18957
0.13350000 0.13349100 12400.84548387 0 249.82477478 0 3512.85935343 0 -125.38709062 0 -130.24503488 0 19468
0.13450000 0.13450700 11947.88100050 0 180.06558245 0 3613.02395307 0 20.86742159 0 -281.53450685 0 19953
0.13550000 0.13551000 11911.72369845 0 204.71687679 0 3385.69878041 0 -38.13807891 0 -579.68473586 0 19956
0.13650000 0.13649900 11650.74783426 0 196.66134045 0 3502.97709694 0 88.58073172 0 -309.71058358 0 19723
0.13750000 0.13749600 11322.55931656 0 73.76499993 0 3294.58459748 0 479.06761538 0 -308.49166104 0 20946
0.13850000 0.13851100 11442.12241966 0 -98.91118347 0 3132.37584212 0 389.53947362 0 246.16135243 0 20955
0.13950000 0.13949800 11250.68836034 0 194.92334989 0 2984.35272765 0 -124.11603945 0 -481.88921589 0 20506
0.14050000 0.14048300 11166.61708747 0 292.67006859 0 3388.48267085 0 -482.17647789 0 316.17009668 0 21447
0.14150000 0.14148400 10786.78795678 0 47.99382743 0 3169.34280155 0 -235.51934896 0 -184.07394103 0 21771
0.14250000 0.14249400 10964.20274317 0 -131.87211347 0 3352.60264872 0 505.68870630 0 124.79925718 0 22470
0.14350000 0.14350900 11308.36258447 0 -37.39208501 0 3142.34682817 0 66.21888226 0 -956.01459391 0 22519
0.14450000 0.14449900 11238.70986763 0 92.20489124 0 3156.21082436 0 -435.55906799 0 -763.68547499 0 22218
0.14550000 0.14550500 10790.70314930 0 349.47474288 0 3693.47949573 0 -217.86770901 0 112.38266220 0 23559
0.14650000 0.14650700 10668.53361492 0 210.45768033 0 3576.72246545 0 238.91769170 0 -642.25350520 0 23044
0.14750000 0.14750500 10623.14843701 0 -106.11502680 0 3515.46578471 0 758.99611692 0 70.62430569 0 23649
0.14850000 0.14849900 10425.79167851 0 17.73293842 0 3210.22495350 0 458.75741553 0 -28.12416993 0 23640
0.14950000 0.14949500 10370.97898319 0 113.87331907 0 2658.40463173 0 32.63751070 0 397.11808849 0 24457
0.15050000 0.15050000 10392.10771338 0 52.30342292 0 2574.48863562 0 59.95679246 0 -90.91265588 0 24591
0.15150000 0.15149900 10009.70542500 0 177.26394611 0 2756.77245747 0 -211.40043207 0 25.52162056 0 25020
0.15250000 0.15250500 9995.46432812 0 96.94571246 0 2230.05151439 0 46.33003698 0 -399.03131997 0 25297
0.15350000 0.15350100 9827.33287358 0 81.54159267 0 2378.09681126 0 -17.64187969 0 -593.11839360 0 25452
0.15450000 0.15450400 9752.22328785 0 187.47450202 0 2218.88267907 0 -237.25733952 0 -709.31864579 0 26061
0.15550000 0.15549900 9568.90798469 0 54.19280832 0 2331.05904500 0 443.21088477 0 -493.65475761 0 26128
0.15650000 0.15649500 9358.95162646 0 -30.22362260 0 1789.13207091 0 495.25743557 0 -196.17554602 0 26331
0.15750000 0.15749700 9475.86393349 0 32.94318409 0 1871.04056038 0 445.31599395 0 -110.09521374 0 27345
0.15850000 0.15849900 9342.44792540 0 165.19783295 0 1545.91321304 0 32.20528675 0 224.64221211 0 26980
0.15950000 0.15949700 9159.38771977 0 268.52675107 0 2105.39755189 0 -513.81300806 0 235.06571900 0 27777
0.16050000 0.16050000 8750.81020659 0 273.09299686 0 2370.14442305 0 -473.39557726 0 -1.93125467 0 28224
0.16150000 0.16150500 8633.68716681 0 163.18699894 0 2591.73544688 0 -136.41617686 0 101.12054990 0 28075
0.16250000 0.16249700 8444.01660780 0 106.84937495 0 2948.25088158 0 -245.89405458 0 -207.17579515 0 28590
0.16350000 0.16349900 8419.50506255 0 81.47060901 0 2838.28166384 0 159.57237785 0 -20.16490517 0 29163
0.16450000 0.16449100 8436.62987063 0 -19.60735070 0 2984.44145722 0 326.70340643 0 -65.80706612 0 28996
0.16550000 0.16550500 8340.12536599 0 80.12103216 0 2768.82858855 0 -35.56336845 0 15.86429355 0 30777
0.16650000 0.16650700 8425.41667052 0 -9.17013509 0 2754.83149800 0 144.03693829 0 -190.40701449 0 29211
0.16750000 0.16749900 8312.49719439 0 56.90538236 0 2839.72351944 0 -143.73193037 0 -107.53714007 0 30922
0.16850000 0.16850800 8234.29316471 0 105.84307065 0 2781.57237384 0 -161.25823979 0 -299.84496390 0 30867
0.16950000 0.16949900 8250.28667071 0 48.41906393 0 2742.83082290 0 42.50900872 0 -223.51978298 0 30852
0.17050000 0.17049200 8246.37147819 0 -106.58141163 0 2632.17395095 0 461.07991217 0 -213.57874315 0 31257
0.17150000 0.17149500 8304.30079985 0 -7.22624755 0 2341.97278280 0 430.20978371 0 -124.69610905 0 32608
0.17250000 0.17250900 8473.39718852 0 21.30530204 0 2001.37321572 0 362.60672007 0 775.23141101 0 32361
0.17350000 0.17350400 8167.01396402 0 11.92769502 0 1873.64699166 0 322.76935887 0 502.30256387 0 32508
0.17450000 0.17449800 8208.55049659 0 113.87886467 0 1797.67229256 0 -74.92680281 0 879.81474352 0 32791
0.17550000 0.17549800 8036.40402876 0 134.50183627 0 2154.50937198 0 -103.66952879 0 595.25455813 0 33633
0.17650000 0.17650100 7958.15563429 0 84.67918137 0 2062.23061337 0 -168.72483357 0 737.76756596 0 33984
0.17750000 0.17750300 7975.79063744 0 6.70075773 0 2117.22076784 0 22.26835067 0 574.83011895 0 34069
0.17850000 0.17849800 7969.51301996 0 -35.18327314 0 2096.92387742 0 114.75063275 0 445.81509781 0 34536
