### header ###
fiducial parameters:
Omega_m = 0.31
Omega_nu = 0
Omega_de = 0.69
Omega_k = 0
H_0 = 100
w_de = -1
zeff = 0
beta = 0
fgrowth = 0
b_1 = 2
gamma = 0.55
Lx = 3500 Ly = 3500 Lz = 3500
nx = 700 ny = 700 nz = 700
xoffset = 1379.75464 yoffset = 22.6059522 zoffset = 368.141391
bins = 400 dk = 0.001
kx_ny = 0.628318531 ky_ny = 0.628318531 kz_ny = 0.628318531
############################
A(data) = 3.3989539 (not used)
A(ran) = 3.40186962 (used)
Ngal = 191148
weighted Ngal = 0
Nran = 9399747
weighted Nran = 0
SN(data) = 6559.93216
SN(ran) = 135.310666
SN(data+ran) = 6695.24283
############################
13 columns: k_central k_mean P_0(k) sigma^{lin}_{P_0(k)} P^img_1(k) sigma^{lin}_{P_1(k)} P_2(k) sigma^{lin}_{P_2(k)} P^img_3(k) sigma^{lin}_{P_3(k)} P_4(k) sigma^{lin}_{P_4(k)} N_modes
### header ###
0.00050000 0 0 0 0 0 0 0 0 0 0 0 0
0.00150000 0.00179520 40402.34677117 0 -14460.59166912 0 7683.87033376 0 -5674.64455060 0 170336.38449141 0 3
0.00250000 0.00253879 36049.71744081 0 -6540.02410129 0 -4303.61733105 0 -11362.15488967 0 -67542.17296756 0 6
0.00350000 0.00331552 59682.39625020 0 -15418.87108545 0 -21059.74294135 0 25783.15098569 0 44615.44884392 0 7
0.00450000 0.00420575 63903.26216082 0 -13000.32467892 0 -18026.52239995 0 7271.31108088 0 -14585.58945873 0 24
0.00550000 0.00557378 85628.14418315 0 -40.11741392 0 -18109.15181721 0 -13261.85510296 0 18382.66073395 0 45
0.00650000 0.00659388 74810.34523970 0 -2526.68557677 0 -6816.28363488 0 -26569.73867325 0 -47687.93222252 0 40
0.00750000 0.00754703 70813.74333138 0 18944.09712347 0 37444.99001689 0 -28259.14979241 0 12149.40804905 0 57
0.00850000 0.00846663 66138.36016982 0 2952.66517796 0 8900.68555095 0 -4684.10084236 0 -6013.20333745 0 75
0.00950000 0.00948925 49546.92774301 0 -1039.60783619 0 34886.02905700 0 17083.21609950 0 26607.44874288 0 112
0.01050000 0.01054430 70317.07953204 0 -9790.47682612 0 6819.34480524 0 40260.82309811 0 12507.98644639 0 105
0.01150000 0.01145670 70579.16451592 0 -8851.60700445 0 2948.50597911 0 15030.90101620 0 6131.84587120 0 144
0.01250000 0.01249090 83862.20380505 0 -1082.43427496 0 -16194.81122395 0 5243.59627241 0 23548.60753653 0 169
0.01350000 0.01339930 78923.73745189 0 1460.71063808 0 -24.88576224 0 -8970.36045018 0 44670.90482866 0 180
0.01450000 0.01448870 75981.90837334 0 2228.14382852 0 919.71310630 0 -4560.56709075 0 32768.38682368 0 267
0.01550000 0.01550050 73498.58937663 0 5179.58897482 0 10331.27249812 0 1078.10648992 0 19991.43885129 0 238
0.01650000 0.01653350 66823.79614122 0 3902.30455187 0 17821.33525640 0 -2429.82615383 0 22509.91694233 0 315
0.01750000 0.01747870 68393.97689318 0 1298.61279468 0 20474.01683051 0 6622.98625446 0 32201.07209977 0 297
0.01850000 0.01844180 64780.46492745 0 -35.22087229 0 29211.32905041 0 4533.04983112 0 33984.42565708 0 388
0.01950000 0.01947590 71802.19080340 0 115.65234706 0 12990.12077773 0 2455.72409870 0 14744.41539903 0 399
0.02050000 0.02045430 68817.99335251 0 1872.88169907 0 32377.08939534 0 -8118.14615027 0 12148.18801739 0 462
0.02150000 0.02154770 64254.18763226 0 2989.25503670 0 32121.88095356 0 -14862.42573456 0 3628.20780169 0 571
0.02250000 0.02255340 70084.49713203 0 750.79972238 0 41000.93867046 0 6783.55351268 0 -4885.81644125 0 510
0.02350000 0.02348930 63147.06435289 0 -2534.28304668 0 43252.11891504 0 -5655.05749679 0 -13577.17783220 0 555
0.02450000 0.02439640 67422.27712855 0 3233.39446392 0 41876.81049347 0 3397.06725729 0 -16294.85382042 0 592
0.02550000 0.02547300 63828.95114127 0 2389.43201454 0 42705.43381747 0 5273.22085946 0 -5214.52624521 0 837
0.02650000 0.02652900 60902.64973845 0 -2523.59113283 0 28812.82234406 0 16881.13449110 0 -3173.61291237 0 723
0.02750000 0.02749970 69718.59854471 0 -5176.18397736 0 25725.92040943 0 19651.27184089 0 7775.18415823 0 826
0.02850000 0.02848090 68173.81663376 0 132.32352519 0 16693.02779086 0 2510.17078452 0 2273.27390890 0 831
0.02950000 0.02946900 68309.01832456 0 3328.44602177 0 7044.13009379 0 3117.82419172 0 11043.53807494 0 996
0.03050000 0.03053250 63014.19181345 0 3706.56710813 0 23671.49799871 0 -7555.03499001 0 13282.15199337 0 1041
0.03150000 0.03150510 55214.97303143 0 3996.39117558 0 3548.01844775 0 -1471.46909912 0 2163.02741124 0 1036
0.03250000 0.03246190 55649.85886377 0 2376.31112855 0 24235.37445156 0 1909.02790993 0 8943.55302715 0 1059
0.03350000 0.03345080 51894.82322498 0 -278.86485575 0 11555.47445248 0 2432.84295940 0 -3240.83665707 0 1302
0.03450000 0.03451200 50875.09857756 0 1296.62747043 0 15664.65200982 0 2175.16118070 0 6251.79716620 0 1339
0.03550000 0.03553350 50407.38280225 0 1548.47527953 0 14604.99905339 0 -897.84459328 0 331.47594847 0 1365
0.03650000 0.03647120 48143.33676921 0 491.49973804 0 13189.87323477 0 1262.21148630 0 4129.09734707 0 1308
0.03750000 0.03744890 48566.02228491 0 -152.02814569 0 15873.83198427 0 4977.00826256 0 7137.29614815 0 1579
0.03850000 0.03847530 48038.74678199 0 -432.61102785 0 10547.27355868 0 925.36407114 0 5363.19264910 0 1662
0.03950000 0.03950240 49545.48588741 0 -140.30918699 0 9664.52519358 0 5078.30416429 0 4424.75538411 0 1683
0.04050000 0.04050350 49079.43379164 0 148.49227210 0 11994.35311572 0 -3644.82241472 0 4638.85985000 0 1822
0.04150000 0.04152450 48815.01965640 0 1.14386841 0 9151.34660198 0 1028.44121910 0 6475.02968718 0 1887
0.04250000 0.04250150 47668.74445180 0 1482.00573622 0 14044.33904766 0 -671.06178016 0 4725.39336859 0 1920
0.04350000 0.04349210 46135.94103355 0 1389.05041460 0 8916.78996892 0 -2608.73825180 0 3166.13744563 0 2005
0.04450000 0.04448520 46059.63359855 0 709.65359994 0 14806.08245406 0 3789.36289334 0 220.29446291 0 2151
0.04550000 0.04548030 44275.28183352 0 1267.76817597 0 15613.74341583 0 -2469.37736214 0 4955.34715492 0 2274
0.04650000 0.04648670 42186.80944817 0 2411.04875739 0 16854.51561843 0 -3330.58662278 0 1708.25506277 0 2311
0.04750000 0.04749250 39648.25629066 0 2488.36549132 0 19469.15438700 0 -2481.46676682 0 1034.63897996 0 2568
0.04850000 0.04851840 36330.43563557 0 1351.42907455 0 23431.81723266 0 -653.43010437 0 4138.38067891 0 2493
0.04950000 0.04949480 37084.19338017 0 -281.05203979 0 23249.81069074 0 4586.93086589 0 1028.91481321 0 2644
0.05050000 0.05050630 37008.44050501 0 -890.45896523 0 19443.53372205 0 3896.38185270 0 4855.19364648 0 2829
0.05150000 0.05149060 38052.78760966 0 231.95907474 0 20151.26299932 0 1726.43353457 0 4126.26909184 0 2784
0.05250000 0.05249300 37979.03114995 0 145.37786400 0 15409.77630395 0 1165.51843130 0 5377.06773648 0 3055
0.05350000 0.05348950 36818.67012523 0 55.86502808 0 16560.59889930 0 1342.56720819 0 3828.80318969 0 3009
0.05450000 0.05448610 37126.67266448 0 430.78098035 0 14867.63859712 0 293.23682875 0 4544.17430166 0 3336
0.05550000 0.05550870 35927.38153847 0 842.09580093 0 12601.37432469 0 -56.20929884 0 1274.14561421 0 3349
0.05650000 0.05647670 35956.10773856 0 380.60218712 0 13696.18637545 0 1918.95453119 0 268.12303151 0 3324
0.05750000 0.05747970 33973.55628407 0 -408.03959013 0 9522.58005503 0 681.99326387 0 -2122.20071527 0 3639
0.05850000 0.05849280 35300.39617499 0 313.43944400 0 11119.03585256 0 1142.99221030 0 -4351.32056912 0 3846
0.05950000 0.05951020 32447.51849596 0 1367.48912773 0 7967.07295664 0 -2665.12589708 0 -5361.46242238 0 3787
0.06050000 0.06049470 32300.22740049 0 1378.83542221 0 11235.60433249 0 -2106.51776279 0 -6587.78279535 0 3930
0.06150000 0.06148310 29636.12189353 0 1093.17499009 0 10860.52223409 0 -1022.09816357 0 -8261.15604372 0 4083
0.06250000 0.06249100 29402.65219777 0 285.45302674 0 12049.36545258 0 740.75886178 0 -9453.68153959 0 4303
0.06350000 0.06350600 29382.02257144 0 -330.29584512 0 10056.00008106 0 2355.02712161 0 -7955.37174385 0 4470
0.06450000 0.06451750 28558.39028607 0 321.85655336 0 8324.00985682 0 653.96026358 0 -8678.06304580 0 4479
0.06550000 0.06550280 29003.92366748 0 120.72213318 0 9715.96616502 0 503.68009053 0 -5765.01562334 0 4636
0.06650000 0.06648880 28059.06459946 0 529.99284617 0 7122.38957945 0 -3.65035692 0 -5370.87884859 0 4653
0.06750000 0.06749660 27946.82168634 0 221.48676658 0 9153.05464631 0 1343.63196310 0 -4360.40425942 0 5220
0.06850000 0.06852730 27593.45615157 0 -59.63570231 0 7790.25709489 0 427.86954115 0 -2934.05414949 0 5029
0.06950000 0.06949320 27629.72436560 0 418.84685243 0 8092.75840045 0 1038.60851934 0 -2188.96972090 0 5040
0.07050000 0.07048030 26742.31769777 0 -123.50935098 0 8557.40191420 0 1620.26859738 0 972.77561074 0 5475
0.07150000 0.07148790 28527.33493461 0 -588.40796226 0 6147.52882369 0 1728.69613874 0 768.72198752 0 5509
0.07250000 0.07249820 28121.28621434 0 310.14092202 0 7894.81380852 0 -965.94565166 0 1298.28005877 0 5916
0.07350000 0.07351270 27979.09706946 0 1173.29336036 0 8096.07466834 0 -2690.09218141 0 698.09435448 0 5721
0.07450000 0.07449140 27116.75650674 0 354.55562020 0 10287.87264446 0 -2382.82166116 0 988.46632706 0 6028
0.07550000 0.07549160 26828.71812199 0 -7.68374833 0 11673.70661194 0 700.78840622 0 576.02796822 0 6183
0.07650000 0.07648840 27768.36432745 0 19.06088743 0 12582.74111382 0 1105.54389293 0 -979.35490877 0 6330
0.07750000 0.07749960 26527.03756500 0 958.81733938 0 13697.85005499 0 -1025.29464653 0 357.92623496 0 6583
0.07850000 0.07848650 26260.73792628 0 458.14407234 0 13092.71434950 0 549.18061689 0 1029.28193183 0 6549
0.07950000 0.07947320 25682.77565330 0 43.04615539 0 13759.96075790 0 1174.39138886 0 3634.45214557 0 6828
0.08050000 0.08048110 25234.58038463 0 191.20779891 0 11596.06823331 0 1655.28350614 0 2448.93628617 0 7147
0.08150000 0.08149960 24978.15191118 0 242.36483571 0 12416.70589550 0 1318.10002772 0 3393.01897040 0 7386
0.08250000 0.08250610 24658.28179120 0 355.32645839 0 10876.01663623 0 104.36394863 0 2131.59495909 0 7227
0.08350000 0.08350160 24195.66796649 0 426.30568238 0 11648.64050684 0 468.56868835 0 2517.71279844 0 7798
0.08450000 0.08449610 23373.03388884 0 314.56076401 0 9512.39833623 0 395.87476531 0 3175.25440952 0 7371
0.08550000 0.08548940 22744.71758172 0 -64.06120081 0 8298.04536477 0 777.60381804 0 -3.72517814 0 8256
0.08650000 0.08650700 23194.35470600 0 175.84538202 0 8709.09621487 0 1234.40585555 0 399.78773960 0 8037
0.08750000 0.08749060 22373.71704380 0 660.65823742 0 7099.90772324 0 -401.94830476 0 -1349.35502072 0 8155
0.08850000 0.08849210 21379.61306133 0 610.63361182 0 7125.40638502 0 -355.10241621 0 -341.49351756 0 8718
0.08950000 0.08949900 20549.43696976 0 634.52515917 0 7386.09387809 0 26.21681679 0 -202.91233905 0 8571
0.09050000 0.09049190 19667.57590041 0 572.10944834 0 7668.97485626 0 -169.02651413 0 -960.01297041 0 8932
0.09150000 0.09150830 19159.37725624 0 269.66803524 0 6857.02160127 0 772.94218796 0 -1024.93085527 0 9285
0.09250000 0.09250820 18514.09141779 0 316.22998915 0 7263.28105429 0 -34.46589452 0 -1260.66980992 0 9204
0.09350000 0.09350330 18496.01276676 0 107.82817308 0 6880.60148598 0 517.77700185 0 -172.78642990 0 9349
0.09450000 0.09448040 18076.76552212 0 63.58982494 0 6704.47327844 0 883.34507150 0 -1318.23312208 0 9564
0.09550000 0.09549270 17889.65702961 0 438.19544551 0 6309.16083681 0 -528.09957885 0 -657.41738967 0 10155
0.09650000 0.09649430 17425.82317323 0 383.38940491 0 5738.29692989 0 -155.91893758 0 -1866.44880484 0 9913
0.09750000 0.09749140 16829.44951332 0 531.37480931 0 7504.29276397 0 -142.90119972 0 -558.28870783 0 10476
0.09850000 0.09850240 16419.74069806 0 460.69061116 0 6735.86136581 0 -298.52732970 0 -1111.68176132 0 10575
0.09950000 0.09950330 15809.72486590 0 -18.68933233 0 7480.30250497 0 1105.32317811 0 -552.89949523 0 10882
0.10050000 0.10051200 16056.17126209 0 -118.63476992 0 6015.61012719 0 558.69242739 0 -944.39323775 0 10875
0.10150000 0.10150300 16141.68439057 0 -11.60782490 0 6150.13525497 0 785.41645717 0 -710.54422305 0 11118
0.10250000 0.10250800 16129.81680983 0 17.50678891 0 5660.74728083 0 -153.41565443 0 12.91126237 0 11575
0.10350000 0.10349800 15937.38454278 0 236.30904218 0 5520.04435634 0 -588.85604661 0 -1289.24073326 0 11364
0.10450000 0.10450100 15809.17030606 0 177.24509107 0 5851.99278981 0 263.92279522 0 209.62473144 0 12093
0.10550000 0.10551000 15522.01921707 0 -172.06993857 0 5527.37563753 0 1066.37089442 0 -589.18101869 0 12067
0.10650000 0.10649700 15796.52634154 0 26.72401722 0 5037.55510670 0 890.65860677 0 505.99371421 0 12054
0.10750000 0.10749900 15690.49449871 0 -8.16421898 0 4172.84102783 0 846.86057914 0 118.05248208 0 12807
0.10850000 0.10850100 15468.55964778 0 147.43860839 0 3873.46743980 0 677.76197223 0 1760.57223877 0 12736
0.10950000 0.10950300 15259.04693743 0 273.42795101 0 3311.49867283 0 237.32055934 0 1253.39398472 0 12933
0.11050000 0.11050200 14621.19220093 0 272.51070902 0 3835.22499273 0 -403.87373655 0 1377.12737788 0 13428
0.11150000 0.11150900 14365.31828734 0 487.93946382 0 3991.05630985 0 -730.17120517 0 1247.28273521 0 13453
0.11250000 0.11250000 14055.09750870 0 412.57256232 0 4296.76297133 0 -776.69323077 0 185.16753305 0 13668
0.11350000 0.11349100 13532.70213243 0 115.20426270 0 4771.84330141 0 -305.19757554 0 -177.70648486 0 13791
0.11450000 0.11448600 13618.54799681 0 -37.73391570 0 5090.34920417 0 42.42859754 0 -512.34453359 0 14205
0.11550000 0.11549300 14063.08317050 0 -345.76251926 0 4318.87881805 0 481.32911044 0 -986.13163010 0 14776
0.11650000 0.11649800 14030.69687541 0 -78.43106648 0 4444.63080905 0 124.28129828 0 -1353.24803085 0 14553
0.11750000 0.11747300 14085.82012424 0 285.75027081 0 4628.48958086 0 -231.45109792 0 -512.09719989 0 14568
0.11850000 0.11849100 14018.05291089 0 18.06933442 0 4360.84790730 0 237.78638961 0 -739.22938572 0 16015
0.11950000 0.11950300 13977.01548218 0 94.05002276 0 4634.04627053 0 569.04605975 0 -70.49232044 0 15270
0.12050000 0.12050700 13946.73651451 0 121.55619119 0 4355.85686867 0 230.95199405 0 167.14322889 0 15999
0.12150000 0.12150000 13750.53324050 0 87.78760023 0 4833.83200116 0 -104.83976098 0 475.66039968 0 15670
0.12250000 0.12250700 13505.41778794 0 253.56250815 0 4772.68623238 0 56.57730475 0 692.24818457 0 16887
0.12350000 0.12352200 13509.18879490 0 69.38186981 0 4822.05315000 0 115.07116834 0 1018.38261259 0 16407
0.12450000 0.12449800 13087.50148693 0 145.17822245 0 4555.36531938 0 77.37174626 0 760.93707639 0 16306
0.12550000 0.12549900 13267.73343734 0 165.01704644 0 4817.42812087 0 85.01136272 0 976.14844373 0 17523
0.12650000 0.12650100 12717.94280462 0 220.88895106 0 4660.63186961 0 -102.92386762 0 432.08419599 0 17154
0.12750000 0.12750600 12714.17179766 0 80.13611619 0 4584.47971137 0 231.96351121 0 886.40624186 0 18007
0.12850000 0.12850300 12543.25645268 0 -20.16778888 0 4475.44215417 0 706.81647176 0 691.79455461 0 17496
0.12950000 0.12949900 12550.13299479 0 -64.05787345 0 3583.43263961 0 386.97740712 0 742.67431149 0 18405
0.13050000 0.13049000 12621.00574329 0 -10.75190614 0 3368.84016105 0 639.48625156 0 662.89644096 0 18100
0.13150000 0.13148800 12548.91296313 0 117.51677726 0 2714.16007879 0 323.91618863 0 1185.74877454 0 19059
0.13250000 0.13249300 12277.84410971 0 164.04545758 0 2821.32322370 0 -170.41956847 0 880.51570716 0 18957
0.13350000 0.13349100 12180.68522445 0 250.24069467 0 2878.70907671 0 -174.96695922 0 1055.37397265 0 19468
0.13450000 0.13450700 11890.31768834 0 167.44380033 0 3223.35693068 0 -194.29447902 0 658.06844293 0 19953
0.13550000 0.13551000 11449.10987374 0 205.81379617 0 3128.12791369 0 32.95505167 0 556.84463398 0 19956
0.13650000 0.13649900 11697.10903750 0 77.72311538 0 3275.81829225 0 309.63294520 0 978.78814860 0 19723
0.13750000 0.13749600 11204.99262891 0 15.63470578 0 2737.66232512 0 157.24655385 0 19.92533532 0 20946
0.13850000 0.13851100 11552.47982930 0 136.08455008 0 3265.40365831 0 -98.38091335 0 642.07604605 0 20955
0.13950000 0.13949800 11123.80506725 0 36.27486874 0 2387.36905191 0 138.49023069 0 353.90900342 0 20506
0.14050000 0.14048300 11140.10912676 0 108.29222876 0 3175.07695037 0 59.91165129 0 1029.25642208 0 21447
0.14150000 0.14148400 11084.53113886 0 -11.84262554 0 2631.80794145 0 198.27732784 0 122.30041051 0 21771
0.14250000 0.14249400 11067.11795965 0 114.45227955 0 2855.77248143 0 134.10033494 0 961.46037161 0 22470
0.14350000 0.14350900 10872.34545004 0 70.12930557 0 2845.29130031 0 -29.68603228 0 228.58624174 0 22519
0.14450000 0.14449900 10978.76548476 0 114.51328113 0 2900.27036358 0 -215.11265569 0 775.07724338 0 22218
0.14550000 0.14550500 10780.55470410 0 177.15857973 0 3159.83764576 0 -171.09724060 0 766.41390944 0 23559
0.14650000 0.14650700 10606.61146236 0 102.91211095 0 2907.28000005 0 -10.61619426 0 769.65697543 0 23044
0.14750000 0.14750500 10606.05690251 0 3.16071385 0 3315.63568929 0 472.13228993 0 1384.34774709 0 23649
0.14850000 0.14849900 10590.11885250 0 -82.94651459 0 2739.61437579 0 269.32088078 0 733.52074665 0 23640
0.14950000 0.14949500 10607.19929580 0 138.13420327 0 3121.71720185 0 -13.45406555 0 1089.57367844 0 24457
0.15050000 0.15050000 10492.71596090 0 180.45044699 0 2927.36615773 0 -307.69974958 0 668.82246749 0 24591
0.15150000 0.15149900 10327.35730560 0 100.12977328 0 3216.40275020 0 -158.08172098 0 788.95898548 0 25020
0.15250000 0.15250500 10241.28961728 0 42.47917340 0 2921.72073848 0 -90.74063142 0 -22.06848730 0 25297
0.15350000 0.15350100 10175.34136022 0 32.13885048 0 2970.58855223 0 43.05314284 0 -71.49174820 0 25452
0.15450000 0.15450400 10006.23388035 0 226.19276144 0 3022.75045148 0 -181.97659569 0 -546.60745920 0 26061
0.15550000 0.15549900 9847.96249990 0 182.03759727 0 3190.27189019 0 -168.26011242 0 -218.97350135 0 26128
0.15650000 0.15649500 9610.51106444 0 123.22985281 0 3128.50501438 0 316.82891378 0 -244.08508036 0 26331
0.15750000 0.15749700 9594.95011512 0 -14.63816173 0 2851.67982975 0 542.16210746 0 125.46472900 0 27345
0.15850000 0.15849900 9432.43080624 0 115.73442192 0 2889.48972015 0 279.09777089 0 287.07455973 0 26980
0.15950000 0.15949700 9309.39615849 0 277.22668596 0 3012.25817917 0 43.57465092 0 692.65301325 0 27777
0.16050000 0.16050000 9016.55528547 0 219.15761522 0 3118.81130825 0 -310.59122462 0 1034.55690510 0 28224
0.16150000 0.16150500 8749.76763407 0 48.73815766 0 2939.68847754 0 186.62935281 0 927.52796367 0 28075
0.16250000 0.16249700 8799.61147316 0 25.72547676 0 2937.40369096 0 381.81556406 0 816.36976961 0 28590
0.16350000 0.16349900 8655.54791600 0 38.84669549 0 2780.57416612 0 258.39827002 0 1090.22584082 0 29163
0.16450000 0.16449100 8721.26325792 0 108.51360905 0 2582.57411820 0 153.96577780 0 1160.00610642 0 28996
0.16550000 0.16550500 8468.49487947 0 59.54442176 0 2179.58656828 0 257.41448085 0 1134.50744464 0 30777
0.16650000 0.16650700 8400.49475098 0 32.33117184 0 2129.40999329 0 -16.34343326 0 789.75644254 0 29211
0.16750000 0.16749900 8242.37864728 0 240.33625579 0 2228.26583169 0 -309.90357041 0 836.67442387 0 30922
0.16850000 0.16850800 8160.64761697 0 51.79832981 0 2099.21975519 0 -22.04974318 0 626.07699445 0 30867
0.16950000 0.16949900 7952.05547597 0 -46.23332174 0 2074.89676029 0 130.56778871 0 39.03879502 0 30852
0.17050000 0.17049200 8036.99186220 0 89.50152289 0 2258.65571132 0 -179.46443958 0 -279.51923637 0 31257
0.17150000 0.17149500 8090.16306037 0 30.69034016 0 1973.85595609 0 -13.43909243 0 -631.52609951 0 32608
0.17250000 0.17250900 7973.32839171 0 85.17151960 0 2384.36333753 0 -222.20769438 0 -207.23901498 0 32361
0.17350000 0.17350400 7994.72331063 0 34.00949176 0 2128.81106865 0 31.69154251 0 -696.93643352 0 32508
0.17450000 0.17449800 7847.31021199 0 26.22635522 0 2285.30785759 0 194.57397718 0 -245.87519955 0 32791
0.17550000 0.17549800 7923.12963433 0 60.05583685 0 1902.37319176 0 134.78798915 0 -514.16903548 0 33633
0.17650000 0.17650100 7814.71318416 0 142.97772898 0 2241.13162015 0 91.38258990 0 -90.32903710 0 33984
0.17750000 0.17750300 7611.14535537 0 161.44013542 0 2207.83584691 0 30.53395429 0 131.17004071 0 34069
0.17850000 0.17849800 7472.88249421 0 48.50435523 0 2229.10876265 0 207.08262910 0 466.48354333 0 34536
