### header ###
fiducial parameters:
Omega_m = 0.31
Omega_nu = 0
Omega_de = 0.69
Omega_k = 0
H_0 = 100
w_de = -1
zeff = 0
beta = 0
fgrowth = 0
b_1 = 2
gamma = 0.55
Lx = 3500 Ly = 3500 Lz = 3500
nx = 700 ny = 700 nz = 700
xoffset = 1379.75464 yoffset = 22.6059522 zoffset = 368.141391
bins = 400 dk = 0.001
kx_ny = 0.628318531 ky_ny = 0.628318531 kz_ny = 0.628318531
############################
A(data) = 3.3387937 (not used)
A(ran) = 3.34349016 (used)
Ngal = 187732
weighted Ngal = 0
Nran = 9399747
weighted Nran = 0
SN(data) = 6655.54244
SN(ran) = 132.988601
SN(data+ran) = 6788.53104
############################
13 columns: k_central k_mean P_0(k) sigma^{lin}_{P_0(k)} P^img_1(k) sigma^{lin}_{P_1(k)} P_2(k) sigma^{lin}_{P_2(k)} P^img_3(k) sigma^{lin}_{P_3(k)} P_4(k) sigma^{lin}_{P_4(k)} N_modes
### header ###
0.00050000 0 0 0 0 0 0 0 0 0 0 0 0
0.00150000 0.00179520 7775.41707337 0 -22024.78798781 0 -29897.98505348 0 31727.03434221 0 56372.67216888 0 3
0.00250000 0.00253879 14929.41656412 0 -23177.60699861 0 -17859.71079784 0 -27948.15262998 0 -37934.33362625 0 6
0.00350000 0.00331552 46467.01326246 0 -33954.14668941 0 -79085.00345551 0 34894.56927865 0 24827.53345663 0 7
0.00450000 0.00420575 76446.07496562 0 -37032.84113830 0 -71814.50203202 0 -20313.41629870 0 -28276.11932374 0 24
0.00550000 0.00557378 115237.53629203 0 -13064.32088531 0 -89892.59849777 0 -57531.81316194 0 -8368.77392771 0 45
0.00650000 0.00659388 116657.20950141 0 -883.79315586 0 -46850.54685293 0 -57653.70541640 0 -69074.86547384 0 40
0.00750000 0.00754703 108593.24384823 0 12638.86257038 0 -46802.96561802 0 -71128.62241274 0 -8774.54536806 0 57
0.00850000 0.00846663 102045.00117000 0 6623.97337099 0 -14515.71491796 0 -41756.80374249 0 -79717.64532944 0 75
0.00950000 0.00948925 98038.41718442 0 -3486.16284237 0 15974.54005256 0 -21451.59492953 0 -40623.50523832 0 112
0.01050000 0.01054430 100332.29853726 0 -1855.76798218 0 -3980.99659422 0 -24835.29729449 0 -78227.09937157 0 105
0.01150000 0.01145670 115548.08980658 0 -3569.52427863 0 32711.15624742 0 -16808.70897503 0 -77764.37463489 0 144
0.01250000 0.01249090 112865.12926481 0 4345.27586678 0 25194.98481152 0 -28974.97564345 0 -87930.89849354 0 169
0.01350000 0.01339930 109102.44070012 0 12581.07743428 0 39785.23257297 0 -22454.57186955 0 -69421.35446650 0 180
0.01450000 0.01448870 97988.72862210 0 8775.64339655 0 61374.13652072 0 -10647.47143192 0 -59846.54596504 0 267
0.01550000 0.01550050 90453.25850350 0 3951.86001983 0 60717.42674941 0 10387.82651136 0 -78698.03159399 0 238
0.01650000 0.01653350 87210.96889963 0 4556.68517181 0 69589.49701223 0 2718.35255124 0 -41447.80299551 0 315
0.01750000 0.01747870 79591.31659620 0 6955.71107171 0 43922.69268253 0 8654.16151638 0 -61975.16848334 0 297
0.01850000 0.01844180 74986.91709512 0 3461.22983163 0 64889.15865755 0 8112.65600778 0 -17685.35718182 0 388
0.01950000 0.01947590 69615.78314900 0 1072.39895997 0 41372.93741611 0 11638.54751762 0 -30857.92814934 0 399
0.02050000 0.02045430 70559.20036142 0 -2864.63434779 0 39239.65659509 0 21880.15877961 0 -7520.11990202 0 462
0.02150000 0.02154770 74209.42418905 0 -1305.75552552 0 20248.31097261 0 8625.52404586 0 -3988.92680003 0 571
0.02250000 0.02255340 69972.25421892 0 4879.51664139 0 17375.58005105 0 -875.32613611 0 -6531.89425393 0 510
0.02350000 0.02348930 65782.66548369 0 5589.75252916 0 30528.85233589 0 -1980.06702638 0 5049.54469060 0 555
0.02450000 0.02439640 60351.63907406 0 2918.31574102 0 18181.57733328 0 -955.82826180 0 -7748.86474788 0 592
0.02550000 0.02547300 58141.82899409 0 284.38383535 0 33395.70492307 0 814.96451496 0 2781.86074496 0 837
0.02650000 0.02652900 59073.04588987 0 -506.02920604 0 22705.34383255 0 4284.09682442 0 -10379.97394392 0 723
0.02750000 0.02749970 60108.18730104 0 -463.43346416 0 28250.49865879 0 5751.89473735 0 1516.64354429 0 826
0.02850000 0.02848090 60613.16949810 0 -848.76826502 0 21042.21885017 0 3756.48858559 0 -4534.29204518 0 831
0.02950000 0.02946900 61259.45354427 0 1085.84592715 0 24662.05279816 0 6778.15209977 0 11007.83551196 0 996
0.03050000 0.03053250 59212.57314748 0 -178.39746643 0 16350.53162910 0 2136.02034667 0 6041.30843052 0 1041
0.03150000 0.03150510 58292.89109653 0 2921.60982651 0 20916.77741268 0 -2622.76861594 0 1843.61203032 0 1036
0.03250000 0.03246190 55188.57598269 0 3093.23500809 0 27025.25413192 0 -4547.41293117 0 6017.09634758 0 1059
0.03350000 0.03345080 53834.89539516 0 1510.05537330 0 23037.52518115 0 374.40775362 0 -686.55174581 0 1302
0.03450000 0.03451200 50885.08065481 0 743.45402264 0 26464.81595012 0 1643.14973668 0 3660.79373832 0 1339
0.03550000 0.03553350 51124.65050889 0 1223.13719945 0 23262.45465526 0 862.18306773 0 -8211.85567328 0 1365
0.03650000 0.03647120 49322.44191678 0 1698.32844150 0 25086.84564128 0 3693.09130383 0 -809.12167241 0 1308
0.03750000 0.03744890 46843.00483900 0 501.84560656 0 19824.84907313 0 3402.06938711 0 -837.05928840 0 1579
0.03850000 0.03847530 44787.02966071 0 36.09796415 0 17206.55020956 0 5414.01251352 0 3487.32741805 0 1662
0.03950000 0.03950240 45942.28873484 0 476.45674762 0 11247.91556110 0 5059.99259813 0 2408.32032294 0 1683
0.04050000 0.04050350 43402.73736960 0 531.83065751 0 14439.29657098 0 2807.09321802 0 2643.16532712 0 1822
0.04150000 0.04152450 40933.28236908 0 2334.80786957 0 8006.01414912 0 -3011.40415700 0 5354.25314436 0 1887
0.04250000 0.04250150 39938.18017889 0 1070.61438638 0 11382.11904417 0 293.98659367 0 1232.32071052 0 1920
0.04350000 0.04349210 39540.11712041 0 -462.39421901 0 10887.04128600 0 353.35888005 0 276.43699274 0 2005
0.04450000 0.04448520 40371.40233168 0 -1001.48184668 0 7239.70116957 0 1916.88047736 0 -2209.44407046 0 2151
0.04550000 0.04548030 39925.64712633 0 599.70767371 0 8596.87548414 0 -669.43691980 0 -2606.16509411 0 2274
0.04650000 0.04648670 39714.35982447 0 1072.88919087 0 5988.66960980 0 -1029.12221859 0 -5337.29470423 0 2311
0.04750000 0.04749250 38743.76917953 0 1198.45928624 0 10655.02453704 0 -2796.83386084 0 -5204.62180633 0 2568
0.04850000 0.04851840 36822.10839628 0 1494.48333279 0 12976.25678154 0 -1297.29294225 0 -7400.87844363 0 2493
0.04950000 0.04949480 34941.37412977 0 1470.45980020 0 12036.83240003 0 -1901.90736148 0 -6572.33275800 0 2644
0.05050000 0.05050630 34094.56124278 0 91.84265275 0 13105.80196190 0 1177.72983914 0 -5397.56426844 0 2829
0.05150000 0.05149060 34545.97295857 0 -760.70416125 0 12289.15713060 0 2933.64377520 0 -6762.19186736 0 2784
0.05250000 0.05249300 34490.62788580 0 72.39778808 0 12300.13741558 0 1301.40777631 0 -7127.19206773 0 3055
0.05350000 0.05348950 34857.30285690 0 -453.07428622 0 10504.98282472 0 -998.41291248 0 -9131.29371790 0 3009
0.05450000 0.05448610 35462.43856240 0 -385.64757261 0 9787.14946704 0 -164.70316556 0 -5279.22119701 0 3336
0.05550000 0.05550870 35949.89666827 0 187.14842083 0 11679.91768223 0 -1528.06747715 0 -7853.43255270 0 3349
0.05650000 0.05647670 36382.56426122 0 161.14954606 0 10059.43835211 0 -96.07228070 0 -9776.66828592 0 3324
0.05750000 0.05747970 36538.28466638 0 65.80063322 0 13926.88327197 0 -405.01391160 0 -7932.12459505 0 3639
0.05850000 0.05849280 36284.85081611 0 631.61039261 0 13429.22126491 0 -716.09203977 0 -8008.69821878 0 3846
0.05950000 0.05951020 36370.25303261 0 485.40401620 0 15146.69311234 0 1286.85612592 0 -4188.72362186 0 3787
0.06050000 0.06049470 34800.73775247 0 488.74357560 0 14175.21517165 0 104.15776328 0 -4783.37814624 0 3930
0.06150000 0.06148310 34123.73109075 0 1339.72786177 0 15234.53539217 0 -506.10462618 0 -2871.00069484 0 4083
0.06250000 0.06249100 33667.77198421 0 1024.88759960 0 16981.28799955 0 -1110.11790255 0 -3793.54427459 0 4303
0.06350000 0.06350600 31550.35157482 0 1003.30191210 0 18122.90490143 0 278.36907925 0 -1789.14316211 0 4470
0.06450000 0.06451750 30564.67690203 0 274.22762631 0 16239.17601174 0 1649.94864041 0 -4061.20813055 0 4479
0.06550000 0.06550280 30072.89322935 0 -189.81363545 0 15178.19211167 0 1730.35981829 0 -2777.83464047 0 4636
0.06650000 0.06648880 30397.53256402 0 88.65348997 0 13474.14061255 0 2913.13615204 0 -3317.07754490 0 4653
0.06750000 0.06749660 29580.55499682 0 383.92621884 0 12106.48511686 0 1612.79313063 0 -3010.21739893 0 5220
0.06850000 0.06852730 29414.29795456 0 130.34485566 0 7391.60620298 0 1776.38828562 0 -2192.71854547 0 5029
0.06950000 0.06949320 28455.35306642 0 436.97763208 0 10106.69794231 0 635.85832104 0 -2480.00272882 0 5040
0.07050000 0.07048030 27411.56052162 0 766.44274655 0 6674.54922908 0 3.99260908 0 -1417.92080025 0 5475
0.07150000 0.07148790 26937.52276406 0 475.71474655 0 6659.30992447 0 68.24613124 0 -2853.87588675 0 5509
0.07250000 0.07249820 25786.58925674 0 587.92549519 0 7640.83648960 0 -826.93635295 0 -2629.07950700 0 5916
0.07350000 0.07351270 25953.51177081 0 -2.73291529 0 6800.90014471 0 468.77720285 0 -2078.96722957 0 5721
0.07450000 0.07449140 25668.35709727 0 -459.06575081 0 6404.46749219 0 2454.01605437 0 -2607.27421380 0 6028
0.07550000 0.07549160 26390.83766648 0 -826.44390380 0 3817.24616247 0 2868.48299313 0 -612.00115641 0 6183
0.07650000 0.07648840 27369.52488519 0 -348.16376340 0 2210.24263664 0 1255.07984666 0 -2275.25923316 0 6330
0.07750000 0.07749960 27098.78876768 0 937.36918272 0 3764.48533859 0 -2370.35515579 0 -569.98215677 0 6583
0.07850000 0.07848650 25341.72134715 0 1403.73515936 0 4439.63977042 0 -3133.22986428 0 -3717.82467303 0 6549
0.07950000 0.07947320 24771.19017613 0 965.40440125 0 6767.92601618 0 -1517.02064499 0 -1407.58380470 0 6828
0.08050000 0.08048110 23793.72298908 0 -280.27565600 0 7094.90559341 0 527.91768322 0 -4876.54420060 0 7147
0.08150000 0.08149960 24168.60544593 0 19.76606573 0 6816.54982361 0 836.87184717 0 -4412.51070268 0 7386
0.08250000 0.08250610 23411.85307816 0 559.57528667 0 5909.91102027 0 52.38083948 0 -5299.88409692 0 7227
0.08350000 0.08350160 23178.93794224 0 685.90069255 0 6758.66486673 0 -539.49578372 0 -3809.14958870 0 7798
0.08450000 0.08449610 22056.61972305 0 272.34655930 0 6172.33983126 0 621.36656311 0 -3384.90021423 0 7371
0.08550000 0.08548940 21776.01244026 0 213.36690129 0 6293.88825862 0 800.15111232 0 -2880.41712104 0 8256
0.08650000 0.08650700 21731.31491656 0 -53.62227715 0 6197.51684833 0 863.34098869 0 -1503.77775583 0 8037
0.08750000 0.08749060 21405.67737416 0 272.19793726 0 5608.76284073 0 640.71404707 0 -1109.94044340 0 8155
0.08850000 0.08849210 21311.51311207 0 614.55324082 0 5481.19189343 0 -662.97962494 0 -1006.62150734 0 8718
0.08950000 0.08949900 20340.58973122 0 363.68367529 0 6770.98718654 0 -497.01317205 0 -1500.77204146 0 8571
0.09050000 0.09049190 19759.30009917 0 671.20707484 0 7050.52971442 0 -701.76997715 0 -1038.01181295 0 8932
0.09150000 0.09150830 18885.97925146 0 310.98607123 0 7150.63885808 0 376.12799827 0 -1042.94406823 0 9285
0.09250000 0.09250820 19028.61204422 0 -52.77324602 0 6889.04188686 0 1293.71048563 0 -1324.97656983 0 9204
0.09350000 0.09350330 19009.09153759 0 -335.67507564 0 4991.44900099 0 1465.01402250 0 -878.90637449 0 9349
0.09450000 0.09448040 18953.08099300 0 186.55171443 0 5382.90170608 0 332.49966595 0 -1590.40000400 0 9564
0.09550000 0.09549270 18569.76922647 0 538.50533983 0 4596.71330160 0 -1244.92031026 0 -1772.46200190 0 10155
0.09650000 0.09649430 17881.44954386 0 493.47286198 0 5710.89058223 0 -606.04296541 0 -2213.51453974 0 9913
0.09750000 0.09749140 17544.83171648 0 177.68873895 0 5551.92045637 0 -481.38456643 0 -2074.28674445 0 10476
0.09850000 0.09850240 16751.58931075 0 454.03145651 0 5617.54706871 0 361.31237738 0 -3171.36139939 0 10575
0.09950000 0.09950330 17447.89465516 0 -66.94191739 0 6028.46482445 0 537.86205041 0 -2133.16990905 0 10882
0.10050000 0.10051200 16880.13628338 0 -265.48443575 0 4621.26921164 0 1149.99075558 0 -1768.86845409 0 10875
0.10150000 0.10150300 17118.81884170 0 266.76546900 0 5034.89321943 0 902.46185856 0 -763.41041331 0 11118
0.10250000 0.10250800 16609.40016587 0 469.13212116 0 4539.38290457 0 -820.67648139 0 -549.70301227 0 11575
0.10350000 0.10349800 16250.04538475 0 497.16290320 0 5429.80637797 0 -9.59405173 0 78.33446216 0 11364
0.10450000 0.10450100 15672.63767162 0 114.91921894 0 5133.99306417 0 546.35125255 0 853.99998262 0 12093
0.10550000 0.10551000 15370.18073085 0 113.55611083 0 5343.33940656 0 400.37224568 0 533.40893483 0 12067
0.10650000 0.10649700 15472.99612656 0 108.71757617 0 5148.25634344 0 460.01072079 0 1002.18281033 0 12054
0.10750000 0.10749900 15200.04176966 0 276.68099907 0 4382.48683255 0 132.98345141 0 551.70497332 0 12807
0.10850000 0.10850100 14733.43511405 0 188.14884679 0 4608.15941685 0 113.45961742 0 1181.14592780 0 12736
0.10950000 0.10950300 14556.08687485 0 123.69235573 0 4594.89434530 0 -263.38930865 0 -162.66793092 0 12933
0.11050000 0.11050200 14276.03415190 0 326.94297628 0 4840.66417848 0 -336.54240724 0 -528.62530159 0 13428
0.11150000 0.11150900 13954.83308828 0 205.29361903 0 4492.43386789 0 371.47635027 0 -260.56216255 0 13453
0.11250000 0.11250000 13800.11089086 0 -119.98678683 0 3950.77308253 0 580.11840166 0 -183.17222672 0 13668
0.11350000 0.11349100 14170.88960484 0 -319.97548636 0 3456.71571447 0 1136.22658016 0 -240.13994160 0 13791
0.11450000 0.11448600 14185.30816087 0 -213.22937045 0 2412.08023871 0 663.01068029 0 -441.25772499 0 14205
0.11550000 0.11549300 14301.98755276 0 104.87114906 0 2386.25993221 0 -379.55961460 0 -99.65041175 0 14776
0.11650000 0.11649800 14141.27610898 0 309.13716870 0 2783.56878929 0 -844.52920955 0 -635.74519083 0 14553
0.11750000 0.11747300 14043.78448781 0 213.76063878 0 3159.42727147 0 -614.30368889 0 -1024.02359536 0 14568
0.11850000 0.11849100 13772.93745833 0 240.62906339 0 3311.11048094 0 -394.81333777 0 -1574.22903885 0 16015
0.11950000 0.11950300 13590.26544460 0 165.40191097 0 4272.36233805 0 -116.80583154 0 -1136.42622171 0 15270
0.12050000 0.12050700 13467.48589438 0 288.07720393 0 3983.76939345 0 156.58551852 0 -1665.34322178 0 15999
0.12150000 0.12150000 13262.18783887 0 18.16771334 0 4488.98450564 0 192.59530765 0 -1044.50792700 0 15670
0.12250000 0.12250700 12985.68429895 0 -29.30649152 0 4138.86869158 0 581.97617715 0 -516.25196227 0 16887
0.12350000 0.12352200 13186.87861159 0 8.94335339 0 4019.82687473 0 525.16373902 0 226.84492382 0 16407
0.12450000 0.12449800 13106.35652175 0 -56.59161240 0 3333.62561074 0 232.74876796 0 239.53990785 0 16306
0.12550000 0.12549900 13314.64920043 0 95.14416934 0 3521.33302789 0 30.08420625 0 245.07885161 0 17523
0.12650000 0.12650100 13022.61798479 0 189.53635553 0 3962.96230798 0 -319.15362866 0 116.97552685 0 17154
0.12750000 0.12750600 12875.21597734 0 236.47319189 0 3754.63635570 0 -179.42783863 0 233.78135839 0 18007
0.12850000 0.12850300 12693.20943542 0 1.49693449 0 3766.23774771 0 310.13093995 0 283.93686011 0 17496
0.12950000 0.12949900 12615.34923285 0 -16.99748115 0 4047.39959035 0 498.10343671 0 854.62330789 0 18405
0.13050000 0.13049000 12949.19426099 0 -26.30476998 0 3151.08669137 0 228.43983794 0 409.24076676 0 18100
0.13150000 0.13148800 12635.09156342 0 154.11218160 0 3756.27785285 0 165.96645289 0 735.90091751 0 19059
0.13250000 0.13249300 12483.47490113 0 343.79383180 0 3662.70142420 0 -574.93437621 0 703.50242211 0 18957
0.13350000 0.13349100 11931.13329311 0 326.07342644 0 4006.79471832 0 -309.23144387 0 706.65010380 0 19468
0.13450000 0.13450700 11982.48553498 0 -42.81645670 0 4125.81435277 0 280.27454688 0 654.02681076 0 19953
0.13550000 0.13551000 11926.03134252 0 43.26243373 0 3745.71903335 0 277.24332276 0 343.30692826 0 19956
0.13650000 0.13649900 11745.79939211 0 -2.96077284 0 3893.13213199 0 306.41206161 0 632.63300097 0 19723
0.13750000 0.13749600 11716.07498429 0 117.99702609 0 2953.19755542 0 412.98737309 0 204.94424633 0 20946
0.13850000 0.13851100 11816.67214061 0 94.75575562 0 3488.33671697 0 -71.18418931 0 711.23742286 0 20955
0.13950000 0.13949800 11455.65367994 0 154.33622377 0 2947.09739710 0 72.62482488 0 382.27363050 0 20506
0.14050000 0.14048300 11144.76742948 0 379.06827458 0 3793.15608270 0 -675.63024418 0 529.82315086 0 21447
0.14150000 0.14148400 11010.07593374 0 135.95589219 0 3175.27659191 0 51.14494740 0 -113.56165643 0 21771
0.14250000 0.14249400 10619.15560611 0 -33.95958138 0 3743.73370910 0 661.27490797 0 681.68714683 0 22470
0.14350000 0.14350900 10895.92533475 0 18.42037080 0 3073.70341026 0 299.88821956 0 621.12144766 0 22519
0.14450000 0.14449900 10717.25724311 0 77.48776018 0 3083.48584597 0 2.34829477 0 429.47554647 0 22218
0.14550000 0.14550500 10684.28311459 0 163.19919926 0 2978.54094045 0 205.80159585 0 1092.89438281 0 23559
0.14650000 0.14650700 10457.67886974 0 45.95326902 0 3002.23173713 0 151.36267387 0 824.82680729 0 23044
0.14750000 0.14750500 10572.72785568 0 -101.41801581 0 2557.15309479 0 361.30350443 0 1106.95358406 0 23649
0.14850000 0.14849900 10610.19391897 0 63.10114680 0 2998.86001325 0 -192.68847370 0 624.94014677 0 23640
0.14950000 0.14949500 10279.88698266 0 300.99623014 0 2585.25818786 0 -441.00373658 0 166.30806176 0 24457
0.15050000 0.15050000 10083.61716146 0 276.34271756 0 3295.38316367 0 -427.99376256 0 335.61407405 0 24591
0.15150000 0.15149900 9861.14993307 0 200.25267002 0 2990.00923809 0 -218.82820667 0 -260.52223424 0 25020
0.15250000 0.15250500 9750.14923402 0 -24.16927092 0 3371.57968670 0 277.64815144 0 -632.78495037 0 25297
0.15350000 0.15350100 9703.17801494 0 50.98800696 0 2835.63086777 0 304.14280271 0 -673.34767585 0 25452
0.15450000 0.15450400 9453.43753326 0 27.33924592 0 2641.33527963 0 262.16927698 0 -298.36650734 0 26061
0.15550000 0.15549900 9597.27926648 0 0.64820948 0 2350.36881889 0 405.38435758 0 -228.48198449 0 26128
0.15650000 0.15649500 9476.11903102 0 31.77439375 0 2207.02618953 0 301.40993179 0 57.44929466 0 26331
0.15750000 0.15749700 9215.69772667 0 338.96805201 0 2173.25349482 0 -117.02987372 0 -259.43307870 0 27345
0.15850000 0.15849900 8937.57487200 0 318.28407882 0 2413.85483022 0 -256.85104805 0 335.05840509 0 26980
0.15950000 0.15949700 8589.14491987 0 65.36108909 0 2356.16951489 0 96.76082221 0 -32.80221497 0 27777
0.16050000 0.16050000 8636.62633401 0 53.74250572 0 2643.79752535 0 11.03529732 0 199.02709276 0 28224
0.16150000 0.16150500 8507.18097442 0 -41.31171401 0 2269.20343962 0 128.45713393 0 -288.49090558 0 28075
0.16250000 0.16249700 8545.52324227 0 63.85967376 0 2400.47884670 0 28.66331301 0 -132.23923209 0 28590
0.16350000 0.16349900 8566.94034358 0 119.98124123 0 2390.57440783 0 -79.12049529 0 15.45358653 0 29163
0.16450000 0.16449100 8322.72327798 0 7.38333217 0 2061.05494649 0 174.50556542 0 -17.98992145 0 28996
0.16550000 0.16550500 8453.13357169 0 39.25984257 0 2491.91467434 0 21.55906863 0 243.87878410 0 30777
0.16650000 0.16650700 8394.79387575 0 34.91530982 0 2116.10055695 0 193.74213741 0 -317.88923221 0 29211
0.16750000 0.16749900 8451.90244883 0 127.44007117 0 2576.89542536 0 -100.65893429 0 571.05023903 0 30922
0.16850000 0.16850800 8245.39545285 0 73.78041669 0 2509.92677819 0 -227.69229127 0 277.49509293 0 30867
0.16950000 0.16949900 8247.33641232 0 5.58620335 0 2415.99543123 0 376.62821125 0 654.36841963 0 30852
0.17050000 0.17049200 8265.09341863 0 57.22480883 0 2388.42271562 0 277.53945771 0 741.21692821 0 31257
0.17150000 0.17149500 8080.75772535 0 175.23092970 0 2165.51183935 0 114.70848620 0 567.52323840 0 32608
0.17250000 0.17250900 7874.72765084 0 116.87792432 0 2278.83059857 0 55.63532940 0 1227.54040464 0 32361
0.17350000 0.17350400 7811.77401697 0 68.74800790 0 2111.10951832 0 -45.75728757 0 831.25859240 0 32508
0.17450000 0.17449800 7675.13047056 0 90.21524142 0 2311.57181196 0 92.81157971 0 1055.77436486 0 32791
0.17550000 0.17549800 7632.47372710 0 64.87230004 0 1907.41968637 0 55.91039108 0 604.40479562 0 33633
0.17650000 0.17650100 7510.49274306 0 -16.92771752 0 1960.93471164 0 188.89639346 0 909.44598528 0 33984
0.17750000 0.17750300 7682.70575808 0 -51.92931685 0 1815.32947811 0 217.30760357 0 646.02007569 0 34069
