### header ###
fiducial parameters:
Omega_m = 0.31
Omega_nu = 0
Omega_de = 0.69
Omega_k = 0
H_0 = 100
w_de = -1
zeff = 0
beta = 0
fgrowth = 0
b_1 = 2
gamma = 0.55
Lx = 3500 Ly = 3500 Lz = 3500
nx = 700 ny = 700 nz = 700
xoffset = 1379.75464 yoffset = 22.6059522 zoffset = 368.141391
bins = 400 dk = 0.001
kx_ny = 0.628318531 ky_ny = 0.628318531 kz_ny = 0.628318531
############################
A(data) = 3.29882141 (not used)
A(ran) = 3.29170162 (used)
Ngal = 185067
weighted Ngal = 0
Nran = 9399747
weighted Nran = 0
SN(data) = 6677.19651
SN(ran) = 130.928692
SN(data+ran) = 6808.1252
############################
13 columns: k_central k_mean P_0(k) sigma^{lin}_{P_0(k)} P^img_1(k) sigma^{lin}_{P_1(k)} P_2(k) sigma^{lin}_{P_2(k)} P^img_3(k) sigma^{lin}_{P_3(k)} P_4(k) sigma^{lin}_{P_4(k)} N_modes
### header ###
0.00050000 0 0 0 0 0 0 0 0 0 0 0 0
0.00150000 0.00179520 57898.48813305 0 -50145.74146624 0 -95942.73552106 0 109577.14392951 0 -48807.25581853 0 3
0.00250000 0.00253879 103989.50981896 0 -56283.27712148 0 -39756.95002075 0 -59364.30072173 0 14301.54390489 0 6
0.00350000 0.00331552 128125.50714587 0 -27298.09757684 0 -72030.11490069 0 -69968.15047605 0 -52245.85960839 0 7
0.00450000 0.00420575 146976.10547907 0 2897.14264604 0 -55646.30968074 0 -79572.23973745 0 13009.97402027 0 24
0.00550000 0.00557378 105283.74159085 0 24034.29105089 0 -12004.66792888 0 -66800.06097976 0 13035.70559718 0 45
0.00650000 0.00659388 93501.89580866 0 19954.83790136 0 21069.72501860 0 13182.22030887 0 -42140.78098083 0 40
0.00750000 0.00754703 65450.37322313 0 -265.83159022 0 16327.90558733 0 8720.37596216 0 -35331.34061447 0 57
0.00850000 0.00846663 84337.57250625 0 -4891.15130698 0 24899.18258891 0 3123.33651660 0 -31017.75229737 0 75
0.00950000 0.00948925 79422.39766668 0 3451.34757515 0 30686.56915649 0 -7083.75894048 0 -3820.24078565 0 112
0.01050000 0.01054430 69570.08741757 0 7210.68659836 0 12121.68005668 0 -4440.54924857 0 -35476.63529449 0 105
0.01150000 0.01145670 74283.73520860 0 1368.25442032 0 54007.69624361 0 -2054.64423466 0 5642.55771783 0 144
0.01250000 0.01249090 69481.91240184 0 -1493.34093950 0 18133.44153853 0 11156.08045037 0 -26127.42173896 0 169
0.01350000 0.01339930 72546.18829469 0 -978.00954658 0 29264.45588379 0 10840.24752607 0 -204.86771707 0 180
0.01450000 0.01448870 77500.62597146 0 -1714.76559538 0 19191.09807951 0 -6186.74729610 0 -10511.06080065 0 267
0.01550000 0.01550050 80853.16207300 0 278.57315727 0 12933.66658526 0 1998.50059571 0 -35203.90276154 0 238
0.01650000 0.01653350 79965.08993336 0 1252.09631468 0 12048.58906879 0 -5756.57522246 0 -28369.39629007 0 315
0.01750000 0.01747870 72277.55950460 0 4543.85265694 0 24732.92554666 0 -13620.10076439 0 -32743.32071857 0 297
0.01850000 0.01844180 71843.56096802 0 4911.10437029 0 27055.42218762 0 -8673.41583428 0 -35459.55485119 0 388
0.01950000 0.01947590 64381.95822110 0 -33.82925981 0 32330.06272028 0 -2855.19573918 0 -37336.62902271 0 399
0.02050000 0.02045430 69509.41857027 0 -1544.07207434 0 28236.74557457 0 12793.69567977 0 -21622.28845056 0 462
0.02150000 0.02154770 69863.11684095 0 -11.56667656 0 33924.97684144 0 1848.24815065 0 -14875.18061105 0 571
0.02250000 0.02255340 69526.83174948 0 826.09453110 0 22537.31219879 0 1935.12549634 0 -13622.65173968 0 510
0.02350000 0.02348930 69463.27919096 0 1122.58440792 0 32146.28158685 0 10178.30270981 0 4189.94365352 0 555
0.02450000 0.02439640 68686.56266868 0 1304.75731779 0 26752.74342290 0 8016.22914151 0 3408.81283485 0 592
0.02550000 0.02547300 69866.66602397 0 -437.30260415 0 30130.67836545 0 8576.58968492 0 16554.60965295 0 837
0.02650000 0.02652900 71158.01408465 0 -434.71502791 0 27014.60658285 0 -2106.97250186 0 13309.54724984 0 723
0.02750000 0.02749970 68211.30487945 0 2875.64790636 0 19927.22082096 0 4790.76488341 0 13352.69200597 0 826
0.02850000 0.02848090 66814.70135973 0 4963.57682306 0 37507.43345571 0 -10817.63257549 0 14001.19429153 0 831
0.02950000 0.02946900 58613.42668833 0 2737.09667408 0 31458.29464015 0 254.02057459 0 12160.49924600 0 996
0.03050000 0.03053250 59330.58348301 0 1553.52177414 0 41490.94775164 0 4830.70428362 0 8621.22066144 0 1041
0.03150000 0.03150510 55445.11536810 0 1103.60404258 0 32264.18101041 0 1552.80084634 0 -681.06493068 0 1036
0.03250000 0.03246190 55913.38570326 0 134.96988478 0 28628.37573881 0 9675.10619546 0 4025.48338518 0 1059
0.03350000 0.03345080 55136.22553310 0 60.40520956 0 30270.76018291 0 2610.88994401 0 5466.65133423 0 1302
0.03450000 0.03451200 50226.26355609 0 3054.13853884 0 20972.78795727 0 -628.06010047 0 -422.19639391 0 1339
0.03550000 0.03553350 51131.41613903 0 596.16181804 0 25410.93041610 0 3721.00784655 0 -2074.59729797 0 1365
0.03650000 0.03647120 47361.07464845 0 585.39781141 0 17705.87589617 0 1520.14836253 0 -2722.41192932 0 1308
0.03750000 0.03744890 47970.64683273 0 680.90299921 0 23663.84507282 0 324.62269788 0 1094.08225000 0 1579
0.03850000 0.03847530 46358.43044433 0 177.36709424 0 12939.98856752 0 1599.36169113 0 -5556.66748867 0 1662
0.03950000 0.03950240 48007.58051856 0 265.75506096 0 17054.48989940 0 1784.31849144 0 -883.24635985 0 1683
0.04050000 0.04050350 46117.86238253 0 -1126.86560994 0 8119.21090517 0 1817.85827101 0 -5947.34380997 0 1822
0.04150000 0.04152450 48380.35564799 0 177.30609265 0 15210.80023070 0 2479.02670349 0 -183.38185034 0 1887
0.04250000 0.04250150 48102.85390035 0 579.05808323 0 7380.58155321 0 -494.84373392 0 -4566.06832443 0 1920
0.04350000 0.04349210 46167.21820895 0 579.87772268 0 12137.87320423 0 274.74669432 0 -5213.67222304 0 2005
0.04450000 0.04448520 45448.50864670 0 1361.76607011 0 11417.27813850 0 -452.37886817 0 -3093.11300492 0 2151
0.04550000 0.04548030 42856.27409596 0 2086.76434102 0 14277.14327160 0 -1674.97038073 0 -3925.16350878 0 2274
0.04650000 0.04648670 40825.14319883 0 513.65107659 0 12987.01524258 0 2283.87709318 0 -2598.83381292 0 2311
0.04750000 0.04749250 39561.07948265 0 486.87249068 0 11480.27613717 0 2141.32193881 0 -2923.81697470 0 2568
0.04850000 0.04851840 39014.50529704 0 874.82370489 0 12549.46752297 0 1237.52248189 0 3128.94866226 0 2493
0.04950000 0.04949480 37862.68449396 0 962.90888193 0 8574.02761843 0 2882.84609318 0 -481.03519372 0 2644
0.05050000 0.05050630 37211.85305704 0 141.49927243 0 9371.79523252 0 -304.90365882 0 5547.16233288 0 2829
0.05150000 0.05149060 36920.48731321 0 359.82948435 0 8459.59973951 0 1181.51193730 0 2326.78893418 0 2784
0.05250000 0.05249300 36067.68517986 0 961.46258985 0 9721.36757794 0 1962.01055775 0 4637.99473664 0 3055
0.05350000 0.05348950 34614.73837965 0 461.96498969 0 7779.69827539 0 -724.11984812 0 2050.89541009 0 3009
0.05450000 0.05448610 34230.87205327 0 442.79607400 0 9735.60867482 0 275.35227368 0 5372.03233307 0 3336
0.05550000 0.05550870 35683.04246970 0 -542.72997675 0 9429.34745349 0 2044.88398134 0 5023.38055700 0 3349
0.05650000 0.05647670 34102.87964049 0 -296.71059164 0 5987.37193976 0 1877.40690743 0 7175.10603855 0 3324
0.05750000 0.05747970 35895.77162717 0 -65.14370163 0 5203.84542255 0 2656.28621311 0 6802.85219537 0 3639
0.05850000 0.05849280 35278.21378109 0 -350.07144928 0 5214.69261316 0 1227.95077893 0 6894.25474942 0 3846
0.05950000 0.05951020 34889.46732805 0 1048.93553282 0 5174.49811542 0 481.06292171 0 9803.04315226 0 3787
0.06050000 0.06049470 34254.27447883 0 595.55180221 0 4895.07759070 0 -1765.34145346 0 6880.60148598 0 3930
0.06150000 0.06148310 32083.28358818 0 843.98574089 0 5316.85362825 0 109.22422204 0 5633.04147085 0 4083
0.06250000 0.06249100 31792.69422814 0 909.79646711 0 5824.14279427 0 -1367.44476294 0 1312.47679087 0 4303
0.06350000 0.06350600 30888.20711701 0 590.50752584 0 5831.96208812 0 -2146.13551828 0 2918.00518750 0 4470
0.06450000 0.06451750 29582.77323621 0 771.29736346 0 7186.94034569 0 -402.34869697 0 -902.17459656 0 4479
0.06550000 0.06550280 29754.68678891 0 75.94486378 0 6314.41806417 0 762.83921666 0 -2209.99863031 0 4636
0.06650000 0.06648880 28909.09393357 0 445.88053587 0 6452.11527428 0 -1055.01018139 0 -3094.29976299 0 4653
0.06750000 0.06749660 28413.42834196 0 643.67317841 0 7643.73129200 0 -594.02565351 0 -3395.42576014 0 5220
0.06850000 0.06852730 27441.72857732 0 1035.05157248 0 9421.04014697 0 -2013.50698518 0 -207.97879781 0 5029
0.06950000 0.06949320 26907.02197245 0 764.80235852 0 10170.41686878 0 -585.07505757 0 -4137.10519126 0 5040
0.07050000 0.07048030 26270.60909156 0 -113.34315985 0 11492.69827775 0 1462.34104403 0 786.19062272 0 5475
0.07150000 0.07148790 26581.49534202 0 -207.23457850 0 10234.41307517 0 1099.43486165 0 -1831.17879855 0 5509
0.07250000 0.07249820 27603.99278868 0 -343.38234840 0 10836.01068884 0 1396.72552289 0 2471.10758887 0 5916
0.07350000 0.07351270 27036.12350493 0 37.02052991 0 10002.77342691 0 272.90999211 0 346.96258677 0 5721
0.07450000 0.07449140 27077.71549348 0 847.14007731 0 11082.49035862 0 -1247.92602463 0 762.35453136 0 6028
0.07550000 0.07549160 26201.95458245 0 814.11049279 0 11473.17777112 0 -1121.69711216 0 -358.11478530 0 6183
0.07650000 0.07648840 24699.31921991 0 784.89517091 0 12822.64370381 0 -1294.29831907 0 -1395.52767362 0 6330
0.07750000 0.07749960 23799.15767559 0 821.22660476 0 12252.77800461 0 606.30249941 0 83.85499453 0 6583
0.07850000 0.07848650 24498.90129105 0 -522.77247696 0 11925.69860661 0 2317.50560233 0 -2002.32705865 0 6549
0.07950000 0.07947320 24136.88462266 0 -698.45260014 0 8290.01533818 0 2699.51969882 0 -1164.78641231 0 6828
0.08050000 0.08048110 24216.63032872 0 722.71681170 0 9147.23176791 0 -151.93497963 0 -1428.49071095 0 7147
0.08150000 0.08149960 23185.25992450 0 592.45292178 0 7803.51107524 0 -1087.50627933 0 -1003.78548829 0 7386
0.08250000 0.08250610 22492.61467509 0 555.78320643 0 9309.96180953 0 83.75040454 0 -1080.58093595 0 7227
0.08350000 0.08350160 22235.40981786 0 252.86376274 0 8970.19408222 0 -16.21222440 0 -1836.59130266 0 7798
0.08450000 0.08449610 21643.47263673 0 223.57745720 0 9081.63842916 0 882.30138987 0 -810.30953960 0 7371
0.08550000 0.08548940 21532.33884331 0 504.01282644 0 9620.14931459 0 -42.90906819 0 -1060.81420475 0 8256
0.08650000 0.08650700 21006.06154812 0 172.67995441 0 9496.97048128 0 915.92768078 0 1798.07157566 0 8037
0.08750000 0.08749060 20978.66629165 0 -31.26841335 0 9615.70174461 0 1088.51779649 0 805.38061168 0 8155
0.08850000 0.08849210 20757.72964845 0 206.94288002 0 8299.78668269 0 1105.77348070 0 4173.59522922 0 8718
0.08950000 0.08949900 20380.96168811 0 -128.46711601 0 8117.01484818 0 1181.22356618 0 2802.42382410 0 8571
0.09050000 0.09049190 20777.02833114 0 51.64360761 0 7763.17239194 0 722.68908371 0 4571.51410213 0 8932
0.09150000 0.09150830 20346.02441773 0 275.07499375 0 6971.47166258 0 1120.96509316 0 4757.73529889 0 9285
0.09250000 0.09250820 19923.44981400 0 389.01153264 0 6781.67910040 0 -272.09700737 0 4374.66753870 0 9204
0.09350000 0.09350330 19228.25358929 0 482.99611734 0 6733.55439684 0 -128.61684717 0 4784.83109304 0 9349
0.09450000 0.09448040 18893.29944145 0 248.59697928 0 7203.26658760 0 117.97040722 0 3367.84195333 0 9564
0.09550000 0.09549270 18701.08899834 0 57.47203161 0 6685.92879715 0 139.82228345 0 3484.79862515 0 10155
0.09650000 0.09649430 18491.13264011 0 395.58750331 0 6820.34301296 0 -51.23589521 0 1962.16583450 0 9913
0.09750000 0.09749140 18102.27527510 0 354.32381419 0 6439.89277524 0 -31.18522937 0 2267.28466255 0 10476
0.09850000 0.09850240 17107.61673279 0 208.48455639 0 6510.65461177 0 19.56387321 0 1301.03067562 0 10575
0.09950000 0.09950330 17592.85659927 0 192.66518219 0 6042.50627979 0 253.10998732 0 591.72866662 0 10882
0.10050000 0.10051200 16915.18446573 0 268.27941738 0 6356.14314709 0 182.98478549 0 471.06309855 0 10875
0.10150000 0.10150300 16628.58793659 0 202.39770751 0 5495.44408151 0 -63.29047353 0 569.53296329 0 11118
0.10250000 0.10250800 16598.30896892 0 -1.59157567 0 6544.95968393 0 -7.91760622 0 1079.86666287 0 11575
0.10350000 0.10349800 16140.02071102 0 392.45091282 0 5406.57032037 0 -69.59049522 0 -1261.35746413 0 11364
0.10450000 0.10450100 15868.39729776 0 547.25407598 0 7152.72400311 0 -662.91751424 0 786.43130169 0 12093
0.10550000 0.10551000 15294.31694372 0 230.32755966 0 6309.37156956 0 -209.78777204 0 -49.31401261 0 12067
0.10650000 0.10649700 15533.44314992 0 -253.03345806 0 6889.62972030 0 1261.32419054 0 813.42727506 0 12054
0.10750000 0.10749900 15629.71473944 0 -147.04376178 0 5902.06954403 0 650.81258189 0 428.83669352 0 12807
0.10850000 0.10850100 15384.93202279 0 170.59037290 0 5823.14458654 0 403.19384618 0 647.89116061 0 12736
0.10950000 0.10950300 15680.40150949 0 179.48551285 0 5600.38898704 0 -213.74954759 0 1183.28652882 0 12933
0.11050000 0.11050200 14803.19874285 0 323.48141371 0 5736.37815282 0 -78.20513880 0 -438.22428262 0 13428
0.11150000 0.11150900 14975.88867934 0 60.75691141 0 5406.78105311 0 258.60567540 0 1610.79671518 0 13453
0.11250000 0.11250000 14834.36500628 0 -249.13933881 0 5464.94328990 0 795.75345273 0 432.65428351 0 13668
0.11350000 0.11349100 15055.30164949 0 101.81053327 0 4480.06718330 0 172.40045624 0 738.41751010 0 13791
0.11450000 0.11448600 14777.57807790 0 203.85065431 0 4769.94670673 0 7.00656421 0 86.94278376 0 14205
0.11550000 0.11549300 14334.04111194 0 383.03448661 0 5098.03540366 0 -887.31572001 0 197.30795723 0 14776
0.11650000 0.11649800 14385.72608972 0 205.58309927 0 5490.56395485 0 -265.65302194 0 -46.65245808 0 14553
0.11750000 0.11747300 14278.03056736 0 -182.06754350 0 5579.06061530 0 263.26286900 0 -510.44793891 0 14568
0.11850000 0.11849100 14221.02181504 0 64.26472427 0 5842.04398614 0 -344.10327620 0 -1155.18143575 0 16015
0.11950000 0.11950300 14201.27948447 0 260.87493430 0 5634.46114406 0 -197.33457610 0 -1377.64866414 0 15270
0.12050000 0.12050700 13919.45217002 0 189.47868130 0 6069.25824682 0 -23.24348871 0 -1147.63942182 0 15999
0.12150000 0.12150000 13758.74072624 0 243.82110987 0 5961.15235017 0 24.18180397 0 -1401.77201750 0 15670
0.12250000 0.12250700 13447.18900396 0 117.99924433 0 6033.66659582 0 344.64674485 0 -1130.54788733 0 16887
0.12350000 0.12352200 13241.55821254 0 131.06911082 0 5414.72235012 0 663.49314736 0 -1233.25237107 0 16407
0.12450000 0.12449800 12856.47185450 0 188.93854001 0 5162.24234279 0 44.80621743 0 -882.70732768 0 16306
0.12550000 0.12549900 12781.38445116 0 199.49957775 0 4745.92317414 0 640.40238443 0 -775.21477422 0 17523
0.12650000 0.12650100 12599.71064515 0 35.25314768 0 4597.91115087 0 280.69157589 0 -588.82610038 0 17154
0.12750000 0.12750600 12334.07647824 0 80.98170905 0 4171.04425392 0 181.03495307 0 -961.27847598 0 18007
0.12850000 0.12850300 12356.36978411 0 86.16451447 0 3819.64186101 0 194.64606996 0 -1181.88903800 0 17496
0.12950000 0.12949900 12041.49070275 0 182.22836586 0 4164.97736919 0 -501.97426444 0 -1148.71526793 0 18405
0.13050000 0.13049000 12084.52454691 0 252.03414121 0 4060.11010205 0 -126.42966313 0 -965.22916033 0 18100
0.13150000 0.13148800 11484.49079201 0 105.42903627 0 4908.95267809 0 112.13976498 0 -1040.80790370 0 19059
0.13250000 0.13249300 11851.60941099 0 124.48870367 0 4492.52259747 0 -153.05075405 0 -1004.66834756 0 18957
0.13350000 0.13349100 11616.69785963 0 7.81855074 0 5037.77693064 0 313.88863747 0 -891.55255725 0 19468
0.13450000 0.13450700 11715.74224838 0 43.56455793 0 4705.95050034 0 -254.25016236 0 -718.05961810 0 19953
0.13550000 0.13551000 11558.13633974 0 34.78232637 0 4869.00218668 0 162.21651921 0 -606.31691797 0 19956
0.13650000 0.13649900 11773.52738448 0 -76.94806254 0 4953.15109793 0 296.48654946 0 -218.23371851 0 19723
0.13750000 0.13749600 11817.22670045 0 -173.10252901 0 3924.45367217 0 952.29571557 0 -1001.93325839 0 20946
0.13850000 0.13851100 11949.76650398 0 -57.51484363 0 3812.35494462 0 520.59416588 0 89.17555262 0 20955
0.13950000 0.13949800 11905.40171619 0 63.45196136 0 2877.53340984 0 485.38183381 0 -182.12965421 0 20506
0.14050000 0.14048300 11892.53592773 0 -41.19791833 0 2835.18721989 0 456.57799533 0 221.35921781 0 21447
0.14150000 0.14148400 11534.84482615 0 166.58866904 0 2437.58999169 0 -227.23644308 0 -128.96843811 0 21771
0.14250000 0.14249400 11587.63892363 0 246.70482108 0 2595.10717075 0 -250.64552335 0 -280.85239824 0 22470
0.14350000 0.14350900 11201.44344589 0 296.82150361 0 2975.76814121 0 -418.27343755 0 -348.95123838 0 22519
0.14450000 0.14449900 10922.53311623 0 215.58292244 0 3174.41147855 0 -5.54735088 0 -443.97506824 0 22218
0.14550000 0.14550500 10637.88863775 0 99.85704075 0 3274.55389580 0 46.83978839 0 -260.13071498 0 23559
0.14650000 0.14650700 10522.27400076 0 281.63321851 0 3482.93530406 0 -38.95128547 0 -319.72482531 0 23044
0.14750000 0.14750500 10224.55300108 0 202.97999535 0 3636.30437546 0 51.82594689 0 334.84545411 0 23649
0.14850000 0.14849900 10111.84425769 0 17.78872714 0 3935.16776843 0 429.55096661 0 1228.30569723 0 23640
0.14950000 0.14949500 10047.88132489 0 -6.46834170 0 3241.01411622 0 592.71578315 0 598.69393831 0 24457
0.15050000 0.15050000 10060.14818872 0 74.78084266 0 3034.21874913 0 215.54853973 0 1209.99413107 0 24591
0.15150000 0.15149900 9896.23138902 0 156.81399717 0 2722.72248283 0 -95.09026612 0 1027.02043677 0 25020
0.15250000 0.15250500 9565.50298722 0 188.16992006 0 2972.17459340 0 -47.52644439 0 908.68623829 0 25297
0.15350000 0.15350100 9349.56847384 0 158.21592447 0 2477.91758379 0 248.80771202 0 637.55638329 0 25452
0.15450000 0.15450400 9177.15581728 0 77.53389956 0 2415.50741857 0 46.11586597 0 387.12048356 0 26061
0.15550000 0.15549900 8946.29255280 0 154.70223327 0 1972.97975153 0 81.84970612 0 -79.79872198 0 26128
0.15650000 0.15649500 8720.26505019 0 248.85651329 0 2198.65233583 0 11.27908182 0 -56.13310231 0 26331
0.15750000 0.15749700 8494.88083701 0 211.41152327 0 2199.43981082 0 -215.73376272 0 -282.79113947 0 27345
0.15850000 0.15849900 8353.90063260 0 26.17611209 0 2185.52035865 0 297.26958797 0 215.74041744 0 26980
0.15950000 0.15949700 8110.02739410 0 -28.00216676 0 1898.67982317 0 227.22313364 0 -178.67918284 0 27777
0.16050000 0.16050000 8311.70971941 0 20.98021906 0 1813.43288343 0 255.63878022 0 374.79816375 0 28224
0.16150000 0.16150500 8316.09074220 0 6.88763330 0 1812.60104366 0 47.69691609 0 255.64543494 0 28075
0.16250000 0.16249700 8281.14238062 0 -7.93680508 0 1565.38935488 0 28.65876562 0 342.46177905 0 28590
0.16350000 0.16349900 8354.01154457 0 81.37023367 0 2035.52301112 0 -119.20929392 0 452.06165993 0 29163
0.16450000 0.16449100 8265.67016088 0 79.25381147 0 1882.59758760 0 -268.72195614 0 511.72564480 0 28996
0.16550000 0.16550500 8251.85052948 0 38.11622926 0 2200.56002171 0 -34.78443369 0 201.27527838 0 30777
0.16650000 0.16650700 8227.40553140 0 110.14856240 0 2276.22416729 0 -98.02133674 0 -12.48469493 0 29211
0.16750000 0.16749900 8121.02986147 0 153.89035766 0 2657.22896486 0 -244.36346940 0 479.40922425 0 30922
0.16850000 0.16850800 8042.53746067 0 75.66203825 0 2793.07394508 0 -9.15008221 0 40.68983060 0 30867
0.16950000 0.16949900 7929.44052539 0 -64.34092079 0 2786.56341247 0 204.78009661 0 513.67658634 0 30852
0.17050000 0.17049200 8181.83180314 0 -22.42373834 0 2935.47382270 0 26.28225485 0 -0.11202774 0 31257
0.17150000 0.17149500 8178.81499757 0 41.99870275 0 2685.65570263 0 -62.51908078 0 295.61034490 0 32608
0.17250000 0.17250900 8156.29986777 0 78.64046828 0 2682.01779003 0 -67.40253480 0 570.07865018 0 32361
0.17350000 0.17350400 8155.15747448 0 -26.39427594 0 2725.98329474 0 217.35196835 0 547.55242918 0 32508
0.17450000 0.17449800 8236.89959599 0 -40.57270756 0 2821.27885892 0 231.07732458 0 579.09690242 0 32791
0.17550000 0.17549800 8260.34638634 0 71.86230509 0 2519.45411636 0 174.92037619 0 539.63553280 0 33633
0.17650000 0.17650100 8062.56816236 0 80.82687594 0 2562.47686933 0 27.44361408 0 658.17380930 0 33984
0.17750000 0.17750300 8053.19610094 0 214.68009901 0 2620.23982303 0 -135.61206509 0 666.28480163 0 34069
0.17850000 0.17849800 7765.97846477 0 38.89838046 0 2350.93446993 0 150.26020890 0 746.46528261 0 34536
