### header ###
fiducial parameters:
Omega_m = 0.31
Omega_nu = 0
Omega_de = 0.69
Omega_k = 0
H_0 = 100
w_de = -1
zeff = 0
beta = 0
fgrowth = 0
b_1 = 2
gamma = 0.55
Lx = 3500 Ly = 3500 Lz = 3500
nx = 700 ny = 700 nz = 700
xoffset = 1379.75464 yoffset = 22.6059522 zoffset = 368.141391
bins = 400 dk = 0.001
kx_ny = 0.628318531 ky_ny = 0.628318531 kz_ny = 0.628318531
############################
A(data) = 3.34565829 (not used)
A(ran) = 3.33920704 (used)
Ngal = 187839
weighted Ngal = 0
Nran = 9399747
weighted Nran = 0
SN(data) = 6651.32307
SN(ran) = 132.818239
SN(data+ran) = 6784.14131
############################
13 columns: k_central k_mean P_0(k) sigma^{lin}_{P_0(k)} P^img_1(k) sigma^{lin}_{P_1(k)} P_2(k) sigma^{lin}_{P_2(k)} P^img_3(k) sigma^{lin}_{P_3(k)} P_4(k) sigma^{lin}_{P_4(k)} N_modes
### header ###
0.00050000 0 0 0 0 0 0 0 0 0 0 0 0
0.00150000 0.00179520 46026.91456755 0 -32336.82835042 0 -70113.22333213 0 72055.51374170 0 -32351.57964236 0 3
0.00250000 0.00253879 79953.33326459 0 -29427.38556696 0 -6929.75767086 0 -65034.23151363 0 53612.62780832 0 6
0.00350000 0.00331552 78152.01196823 0 -699.97431236 0 -30376.12655391 0 -46625.39555488 0 -48557.03841538 0 7
0.00450000 0.00420575 83477.89383080 0 6424.62019705 0 -5120.05142960 0 -38074.52635568 0 18957.40655981 0 24
0.00550000 0.00557378 66419.74383640 0 3407.93663030 0 14477.33937651 0 -3635.10652619 0 14667.55340418 0 45
0.00650000 0.00659388 67819.56380324 0 10003.87145540 0 42640.43940335 0 6888.11022632 0 -6012.90387513 0 40
0.00750000 0.00754703 56169.81417670 0 1793.10271942 0 33491.20012879 0 6112.04808465 0 6369.04220914 0 57
0.00850000 0.00846663 62317.99738101 0 8596.14346514 0 46442.61262917 0 11492.36554184 0 34599.54343983 0 75
0.00950000 0.00948925 54046.18269702 0 1435.78871854 0 43182.68802215 0 16179.50537216 0 38926.55210524 0 112
0.01050000 0.01054430 62403.06686160 0 2510.45915564 0 69749.87572010 0 6677.03365719 0 25697.30512131 0 105
0.01150000 0.01145670 62443.99337834 0 4469.64145816 0 71544.20956239 0 19568.97515954 0 58329.82478237 0 144
0.01250000 0.01249090 58312.18977922 0 1973.22375786 0 75965.82613777 0 30586.63747199 0 49364.81028912 0 169
0.01350000 0.01339930 64424.10476951 0 -2893.58237182 0 90279.68127126 0 16883.68546640 0 90131.05923216 0 180
0.01450000 0.01448870 69594.37713889 0 -3977.26995204 0 54092.32207633 0 42268.21883377 0 77002.96396439 0 267
0.01550000 0.01550050 72179.73514752 0 -2061.13258487 0 85879.24888206 0 10404.60749234 0 62916.25654440 0 238
0.01650000 0.01653350 80990.91473910 0 67.85527746 0 39952.93147083 0 8914.89337424 0 68103.72026905 0 315
0.01750000 0.01747870 84253.27940945 0 2009.89125497 0 74817.99816559 0 8988.51673958 0 66515.68269000 0 297
0.01850000 0.01844180 78946.25258169 0 972.84770352 0 55416.72190392 0 10511.94809640 0 60571.91024545 0 388
0.01950000 0.01947590 79559.59577293 0 2880.57239780 0 49751.56032670 0 8275.72987651 0 33257.39769712 0 399
0.02050000 0.02045430 76807.31525023 0 2043.41994335 0 66912.85845272 0 3169.93063498 0 43862.24565917 0 462
0.02150000 0.02154770 70448.28839193 0 3515.56560548 0 46239.75463699 0 5010.24857981 0 23846.51708656 0 571
0.02250000 0.02255340 71001.40638374 0 3240.68138032 0 68267.53724797 0 1278.87046411 0 32008.52892075 0 510
0.02350000 0.02348930 63985.33701824 0 1588.18176461 0 45650.36843116 0 4050.91549978 0 17008.68325601 0 555
0.02450000 0.02439640 67300.49578606 0 -1041.32697172 0 51369.65504948 0 6693.52626706 0 2797.97625413 0 592
0.02550000 0.02547300 68260.10614602 0 -682.59440674 0 48122.04167107 0 6895.21968356 0 13542.46238575 0 837
0.02650000 0.02652900 66159.10070812 0 737.38048319 0 31108.36737644 0 14331.82287255 0 -5311.69622167 0 723
0.02750000 0.02749970 66381.25738299 0 -477.55588524 0 33325.49764639 0 4261.83679214 0 13475.91520406 0 826
0.02850000 0.02848090 65525.46062647 0 -404.57691844 0 21710.13073039 0 3930.43182733 0 -2915.46530340 0 831
0.02950000 0.02946900 66681.49608438 0 1114.79838766 0 26607.89239076 0 1331.72001757 0 8453.68813154 0 996
0.03050000 0.03053250 64536.23677065 0 980.88438483 0 19408.26371576 0 -1188.16665547 0 -424.40354210 0 1041
0.03150000 0.03150510 58618.30681499 0 2214.87875697 0 13978.79007369 0 -209.26981314 0 -13726.24351918 0 1036
0.03250000 0.03246190 63616.22198380 0 2997.79525835 0 25944.63881325 0 -2806.36119902 0 -5396.61042551 0 1059
0.03350000 0.03345080 52554.63853143 0 2006.02042724 0 13120.10960596 0 -4043.70622176 0 -26288.02227077 0 1302
0.03450000 0.03451200 54492.04881434 0 3018.20306073 0 21421.53778580 0 -1460.91027963 0 -12931.11560996 0 1339
0.03550000 0.03553350 49280.29536837 0 94.32231165 0 15164.32811549 0 2486.92363572 0 -22752.81415549 0 1365
0.03650000 0.03647120 50116.68253024 0 -911.34368908 0 14641.15635544 0 7380.06026695 0 -16014.24653763 0 1308
0.03750000 0.03744890 50806.77680436 0 272.95435690 0 10738.40815569 0 2633.18324987 0 -19033.60308284 0 1579
0.03850000 0.03847530 47426.06906257 0 1452.41442276 0 11784.50766946 0 -1850.93222031 0 -16457.00711980 0 1662
0.03950000 0.03950240 46288.44499159 0 2662.08690912 0 14054.43203688 0 -1964.62808023 0 -7329.60641204 0 1683
0.04050000 0.04050350 41571.69166542 0 1263.07659966 0 10161.34426967 0 1528.41130425 0 -14496.41623527 0 1822
0.04150000 0.04152450 42264.89147468 0 2067.47674953 0 16447.24686649 0 -2896.72118056 0 -4486.66644548 0 1887
0.04250000 0.04250150 39223.57435951 0 750.87846987 0 12356.03704820 0 2051.67179388 0 -11782.17851810 0 1920
0.04350000 0.04349210 39811.18597383 0 268.06646640 0 19815.31064376 0 632.15275214 0 -1621.06716356 0 2005
0.04450000 0.04448520 39918.65967226 0 -285.06594396 0 13910.57921246 0 1050.50050071 0 -2588.60772934 0 2151
0.04550000 0.04548030 39885.05334550 0 -727.48158991 0 17909.51027214 0 1493.25220993 0 1049.74962668 0 2274
0.04650000 0.04648670 41406.10009498 0 -19.02661563 0 15599.76850768 0 991.66724650 0 -1931.72049888 0 2311
0.04750000 0.04749250 40421.09089401 0 1144.66698104 0 17365.04341395 0 -2043.97450319 0 -3691.12816197 0 2568
0.04850000 0.04851840 39855.43984965 0 1418.93009918 0 19084.51167684 0 -4018.19646878 0 -3233.99338856 0 2493
0.04950000 0.04949480 39299.65997058 0 497.82282942 0 23771.54059519 0 1073.83194261 0 -2642.06729863 0 2644
0.05050000 0.05050630 39437.96719652 0 -448.87959553 0 22960.88501024 0 1385.90051467 0 375.11204463 0 2829
0.05150000 0.05149060 39063.63929952 0 49.48337518 0 20739.65099742 0 3731.17847415 0 -5551.69863243 0 2784
0.05250000 0.05249300 40158.56226225 0 513.57454733 0 21776.23426420 0 -280.89010831 0 1935.42495866 0 3055
0.05350000 0.05348950 37711.73330350 0 1251.79685236 0 19969.92192921 0 -242.14966649 0 -3067.72525511 0 3009
0.05450000 0.05448610 38034.48713469 0 918.32892492 0 23801.48682695 0 2287.80337690 0 6638.52502139 0 3336
0.05550000 0.05550870 35338.88262840 0 648.10743895 0 21982.08687956 0 -1189.75269664 0 2149.67361011 0 3349
0.05650000 0.05647670 36480.49953028 0 971.41915735 0 22288.20391533 0 2702.56977798 0 5134.56980641 0 3324
0.05750000 0.05747970 34357.08987454 0 524.34520868 0 21364.19629757 0 2425.96641729 0 4771.75457184 0 3639
0.05850000 0.05849280 32607.00990808 0 1158.05405576 0 20696.61715326 0 763.52021616 0 7054.21199181 0 3846
0.05950000 0.05951020 32779.03437275 0 143.60881809 0 21663.54770321 0 1644.63595707 0 7218.07333552 0 3787
0.06050000 0.06049470 32561.09235271 0 -68.90483742 0 19828.28734418 0 2048.20024923 0 6906.62143402 0 3930
0.06150000 0.06148310 32534.80621595 0 -261.48273189 0 16630.14070416 0 3115.28430762 0 8847.69181193 0 4083
0.06250000 0.06249100 32793.78566469 0 -340.06497139 0 15547.41805808 0 1251.73030518 0 3733.05288644 0 4303
0.06350000 0.06350600 32747.09172554 0 552.50797598 0 14968.12484147 0 -202.63505912 0 6895.38605151 0 4470
0.06450000 0.06451750 31729.47440554 0 415.72578961 0 12430.34806775 0 816.56608380 0 1993.28773314 0 4479
0.06550000 0.06550280 31969.04425962 0 -505.17518388 0 13951.61664117 0 1462.90669508 0 5728.56995017 0 4636
0.06650000 0.06648880 31318.98920648 0 -347.01693364 0 8565.52067037 0 2789.61349163 0 1057.49571863 0 4653
0.06750000 0.06749660 31827.63149853 0 677.92390371 0 10579.48239462 0 1141.02906844 0 4581.65145614 0 5220
0.06850000 0.06852730 29999.02585767 0 647.33549164 0 8664.60942391 0 -255.13634900 0 2660.85578626 0 5029
0.06950000 0.06949320 30760.65835211 0 309.17376965 0 11517.20982300 0 923.89448755 0 7493.07956386 0 5040
0.07050000 0.07048030 29324.90290716 0 314.89904551 0 9365.40670308 0 -155.47085322 0 3100.24464456 0 5475
0.07150000 0.07148790 29364.72030421 0 249.34563507 0 8620.59955442 0 226.72513890 0 3705.19179970 0 5509
0.07250000 0.07249820 29499.58925910 0 -21.54032451 0 9046.56806441 0 390.35578571 0 4102.66702474 0 5916
0.07350000 0.07351270 29053.05766996 0 475.66150880 0 9745.29128975 0 -925.54042117 0 2557.51910429 0 5721
0.07450000 0.07449140 28612.62623915 0 766.13995687 0 11161.07148900 0 -674.15400586 0 2619.35252728 0 6028
0.07550000 0.07549160 28006.38141396 0 86.83087358 0 9074.01877686 0 1471.03654244 0 2475.77698278 0 6183
0.07650000 0.07648840 27583.58498629 0 -56.54669305 0 9899.11510023 0 1720.34446744 0 2328.30842816 0 6330
0.07750000 0.07749960 27589.68514461 0 531.20733224 0 8301.47254462 0 1074.35101063 0 3588.54568140 0 6583
0.07850000 0.07848650 26287.91135880 0 1118.90213053 0 10049.19008613 0 -278.48220945 0 4247.24077696 0 6549
0.07950000 0.07947320 25012.42370975 0 1116.98335346 0 9699.52901114 0 -593.08622913 0 6133.46518596 0 6828
0.08050000 0.08048110 24096.17992986 0 440.26506286 0 10409.39888942 0 228.33225333 0 5258.23665238 0 7147
0.08150000 0.08149960 23090.65201454 0 438.46717983 0 11268.65609939 0 -33.90035438 0 6914.92874054 0 7386
0.08250000 0.08250610 23073.46065927 0 564.65061839 0 12081.30809979 0 -280.04052263 0 5517.02755077 0 7227
0.08350000 0.08350160 22683.27235063 0 229.35597081 0 11497.02384456 0 21.51270742 0 5250.58372649 0 7798
0.08450000 0.08449610 22672.40297762 0 229.86505675 0 13825.84246778 0 76.66257513 0 6220.24271088 0 7371
0.08550000 0.08548940 22288.86938715 0 21.71057438 0 11321.56110884 0 -63.96903296 0 3341.86637008 0 8256
0.08650000 0.08650700 22645.00772116 0 38.42988831 0 12571.87174081 0 410.26226600 0 3462.69386963 0 8037
0.08750000 0.08749060 22325.91398496 0 -9.44532987 0 11190.01951303 0 520.21817430 0 1685.39610586 0 8155
0.08850000 0.08849210 22345.21266765 0 1.92392339 0 10892.30960455 0 405.09154998 0 3622.39601449 0 8718
0.08950000 0.08949900 22308.38989378 0 -148.68525893 0 8307.91653005 0 2188.11569873 0 545.82552981 0 8571
0.09050000 0.09049190 22272.23259173 0 -30.10051031 0 7937.65910233 0 853.97890935 0 1958.12863881 0 8932
0.09150000 0.09150830 21688.05924846 0 444.04937926 0 6399.19917364 0 559.23811428 0 338.31256227 0 9285
0.09250000 0.09250820 21568.93979324 0 78.92140830 0 4919.72223032 0 1469.21758614 0 1074.05931215 0 9204
0.09350000 0.09350330 20649.81230214 0 513.14642713 0 5165.69170504 0 -75.80855297 0 -641.29744403 0 9349
0.09450000 0.09448040 19722.47732530 0 1048.85013061 0 5680.91107688 0 -1213.36585494 0 394.92092238 0 9564
0.09550000 0.09549270 18173.70258345 0 926.64954087 0 5399.44977192 0 -334.13007190 0 276.98933435 0 10155
0.09650000 0.09649430 17667.72217867 0 507.76386925 0 6120.86558622 0 -65.95823913 0 -215.63726931 0 9913
0.09750000 0.09749140 16921.06280012 0 232.38275846 0 6608.93370793 0 175.57364769 0 177.92387232 0 10476
0.09850000 0.09850240 16581.22852562 0 613.99202626 0 6924.57808188 0 -239.71514876 0 -598.56417130 0 10575
0.09950000 0.09950330 16013.80288975 0 3.40816955 0 6997.11450992 0 474.46809601 0 1031.73419548 0 10882
0.10050000 0.10051200 16219.65550511 0 -182.00654192 0 6301.36372536 0 850.69036945 0 411.69968512 0 10875
0.10150000 0.10150300 16693.69326268 0 -185.46034065 0 6440.80225339 0 692.65855885 0 1272.47084348 0 11118
0.10250000 0.10250800 16420.51708184 0 53.32902590 0 5974.66142805 0 495.08663114 0 1075.24717934 0 11575
0.10350000 0.10349800 16598.97444074 0 202.53745659 0 5458.74331081 0 -243.32755161 0 1300.64248372 0 11364
0.10450000 0.10450100 16326.46373172 0 31.90260799 0 5590.80619287 0 742.17631675 0 1429.30036832 0 12093
0.10550000 0.10551000 16326.02008384 0 -7.72280044 0 5061.92246640 0 133.80198174 0 1677.15534653 0 12067
0.10650000 0.10649700 16218.54638542 0 -98.55049775 0 4695.56914000 0 515.42234074 0 1456.49598324 0 12054
0.10750000 0.10749900 16461.11086267 0 32.74820085 0 4272.38452044 0 363.01598524 0 1037.24984772 0 12807
0.10850000 0.10850100 16134.91876043 0 93.02109242 0 4001.59294695 0 110.95522515 0 870.20533048 0 12736
0.10950000 0.10950300 16132.70052104 0 268.38811111 0 3814.78391675 0 -558.26652543 0 -259.04488680 0 12933
0.11050000 0.11050200 15743.39950815 0 228.96223332 0 4289.78660845 0 47.62548878 0 -211.98493815 0 13428
0.11150000 0.11150900 15336.90714000 0 259.38538655 0 3820.04114410 0 -408.77493648 0 -136.12447838 0 13453
0.11250000 0.11250000 15275.68373285 0 201.82983823 0 4114.46805829 0 -7.62936819 0 -813.08455708 0 13668
0.11350000 0.11349100 14951.15531014 0 -42.37935263 0 3792.69025243 0 424.81946199 0 -608.99100555 0 13791
0.11450000 0.11448600 15083.02964186 0 116.16476036 0 4147.18708929 0 112.94942236 0 -1121.17582590 0 14205
0.11550000 0.11549300 14926.97650080 0 58.25629015 0 3104.53693778 0 279.84531756 0 -773.49452957 0 14776
0.11650000 0.11649800 14603.11354991 0 270.61411434 0 4158.22283025 0 -183.53601798 0 -554.12063601 0 14553
0.11750000 0.11747300 14527.02793884 0 212.90328926 0 3984.41268288 0 -206.32288211 0 -200.62422512 0 14568
0.11850000 0.11849100 14165.34400636 0 297.64114306 0 4746.13390689 0 -214.98621605 0 -32.48722498 0 16015
0.11950000 0.11950300 14030.47505147 0 272.89890091 0 4509.27030486 0 -38.11290190 0 -387.21364962 0 15270
0.12050000 0.12050700 13852.12860454 0 -93.82553694 0 5057.28634607 0 376.66481220 0 880.86729811 0 15999
0.12150000 0.12150000 13887.50952281 0 -62.34284166 0 4625.93860556 0 390.97578362 0 263.40039984 0 15670
0.12250000 0.12250700 14220.24543126 0 54.54883574 0 4745.24661113 0 -116.85019633 0 585.10611293 0 16887
0.12350000 0.12352200 13972.46809143 0 62.76186708 0 5167.13356065 0 -119.76385377 0 85.20468228 0 16407
0.12450000 0.12449800 13818.52227779 0 480.75680468 0 5244.18410585 0 -963.59986350 0 44.94740837 0 16306
0.12550000 0.12549900 13347.36823143 0 333.61876772 0 5640.84967350 0 -341.71755974 0 -249.05837307 0 17523
0.12650000 0.12650100 13015.07597086 0 36.27087591 0 6146.86335187 0 224.95165650 0 -625.48361542 0 17154
0.12750000 0.12750600 13071.08651545 0 -80.86236777 0 5564.24277618 0 565.28170750 0 -548.87893633 0 18007
0.12850000 0.12850300 13140.51740835 0 19.91080585 0 5023.24746264 0 661.24717998 0 -938.46942946 0 17496
0.12950000 0.12949900 13081.73406452 0 45.05443842 0 4593.00884182 0 206.01011036 0 -137.51309624 0 18405
0.13050000 0.13049000 12945.97781387 0 -25.10902804 0 4155.70512854 0 591.02104826 0 -622.23167647 0 18100
0.13150000 0.13148800 13049.12594549 0 -7.09747875 0 4148.88404242 0 317.56980574 0 284.00673465 0 19059
0.13250000 0.13249300 12896.84381139 0 115.64680146 0 3780.32356783 0 -107.92133914 0 -475.11804015 0 18957
0.13350000 0.13349100 12710.17896675 0 257.29580504 0 3862.01023336 0 -67.81002537 0 -22.56526202 0 19468
0.13450000 0.13450700 12598.82334939 0 140.91809371 0 4043.02965875 0 -254.44647655 0 -263.67989801 0 19953
0.13550000 0.13551000 12095.94847976 0 235.52933103 0 4333.21973570 0 -4.40014402 0 -416.71623350 0 19956
0.13650000 0.13649900 12228.71010723 0 140.05298034 0 4494.44137454 0 8.61807076 0 -132.63629694 0 19723
0.13750000 0.13749600 11887.87762501 0 85.42373342 0 4562.79642133 0 -36.98182163 0 -1125.32393356 0 20946
0.13850000 0.13851100 11969.17609864 0 173.04041831 0 4546.07089633 0 103.68084181 0 -437.50890042 0 20955
0.13950000 0.13949800 11619.47065887 0 53.95135296 0 3858.50541512 0 276.53792263 0 -793.89013164 0 20506
0.14050000 0.14048300 11731.38083607 0 -31.88907673 0 3881.78583751 0 667.77656762 0 331.66449882 0 21447
0.14150000 0.14148400 11510.88784074 0 75.30956001 0 3352.15900084 0 629.46757336 0 -508.85746127 0 21771
0.14250000 0.14249400 11388.44102643 0 135.95589219 0 2655.38782616 0 242.21843191 0 26.78346604 0 22470
0.14350000 0.14350900 10940.75595282 0 145.84591251 0 2589.45066030 0 288.04171210 0 -67.81745648 0 22519
0.14450000 0.14449900 10922.12274194 0 243.73792589 0 2446.42967566 0 -12.89928387 0 -77.53312318 0 22218
0.14550000 0.14550500 10462.47026682 0 211.23406412 0 2458.18634442 0 -58.91910008 0 -212.25556336 0 23559
0.14650000 0.14650700 10233.05994914 0 258.80753519 0 2313.66804819 0 -77.34778928 0 -377.29257395 0 23044
0.14750000 0.14750500 9902.81956001 0 157.88318856 0 2654.03470013 0 -125.59005952 0 127.64193096 0 23649
0.14850000 0.14849900 9695.64709221 0 157.04247583 0 2348.41676823 0 -101.46382245 0 -401.08984612 0 23640
0.14950000 0.14949500 9646.28017460 0 149.82765221 0 2887.99240856 0 70.33293994 0 -57.73655666 0 24457
0.15050000 0.15050000 9475.57556237 0 56.49467534 0 2894.22566124 0 -30.57088797 0 -118.27874250 0 24591
0.15150000 0.15149900 9434.11666817 0 5.20315777 0 3056.29023105 0 151.46582200 0 -20.04667301 0 25020
0.15250000 0.15250500 9634.30168189 0 122.24273628 0 3336.48713956 0 -193.90406889 0 -131.47393950 0 25297
0.15350000 0.15350100 9405.73429518 0 47.53032631 0 3183.99427271 0 -348.98340286 0 123.61249911 0 25452
0.15450000 0.15450400 9488.88499870 0 27.84067893 0 3571.78688281 0 147.22011181 0 -199.57499789 0 26061
0.15550000 0.15549900 9564.01676683 0 -5.94681143 0 3257.81727960 0 55.50999887 0 328.69205804 0 26128
0.15650000 0.15649500 9353.02892728 0 93.79825259 0 3232.56262415 0 290.64370691 0 -364.39683926 0 26331
0.15750000 0.15749700 9390.98300324 0 96.22434101 0 3094.16666863 0 227.09003928 0 179.84154028 0 27345
0.15850000 0.15849900 9286.53720158 0 37.04770334 0 2794.75980701 0 207.16248572 0 226.48889640 0 26980
0.15950000 0.15949700 9200.66915481 0 54.42272883 0 2751.04939984 0 195.30932354 0 107.41369505 0 27777
0.16050000 0.16050000 9061.25280917 0 110.52244665 0 2505.53466419 0 104.37914357 0 404.32514827 0 28224
0.16150000 0.16150500 8862.67601901 0 163.81808804 0 2804.36478357 0 -287.99069260 0 227.66567240 0 28075
0.16250000 0.16249700 8804.87979171 0 105.94832611 0 2875.02679933 0 4.67825578 0 165.25217981 0 28590
0.16350000 0.16349900 8845.66212289 0 -63.06232761 0 2758.90196728 0 453.27060040 0 876.24226898 0 29163
0.16450000 0.16449100 8703.60607238 0 6.96815539 0 2770.92482477 0 285.41420755 0 644.83553585 0 28996
0.16550000 0.16550500 8971.48066107 0 59.83423474 0 2609.51463558 0 125.48025667 0 1056.03168063 0 30777
0.16650000 0.16650700 8691.18393179 0 168.50966435 0 2832.62515339 0 -109.37040402 0 1005.13861431 0 29211
0.16750000 0.16749900 8408.05894730 0 254.26014444 0 3020.93149518 0 -348.11718037 0 1528.48894263 0 30922
0.16850000 0.16850800 8297.98990878 0 127.21824724 0 3120.59699096 0 122.66863825 0 1522.85461458 0 30867
0.16950000 0.16949900 8260.77894302 0 -77.33015427 0 3311.52085522 0 376.37644108 0 1794.57784862 0 30852
0.17050000 0.17049200 8287.06507979 0 -64.21891763 0 2787.41743463 0 614.90926825 0 1498.16561018 0 31257
0.17150000 0.17149500 8306.90723113 0 24.35493755 0 2501.14255020 0 189.11821740 0 1888.10991248 0 32608
0.17250000 0.17250900 8272.21396707 0 121.99872995 0 2178.87673168 0 239.97024629 0 2118.70698823 0 32361
0.17350000 0.17350400 8112.74473735 0 67.13945161 0 2215.32240485 0 -32.76871956 0 1522.05604840 0 32508
0.17450000 0.17449800 7874.91620119 0 172.64778994 0 2208.40149795 0 -119.55090279 0 1818.01354777 0 32791
0.17550000 0.17549800 7759.42356737 0 145.16713126 0 2122.82182230 0 -159.26182434 0 1314.69503026 0 33633
0.17650000 0.17650100 7531.17782537 0 31.71904868 0 2195.82408061 0 80.17981551 0 1234.82732103 0 33984
0.17750000 0.17750300 7675.80703358 0 43.75787750 0 1637.39340547 0 213.64196298 0 945.21398632 0 34069
0.17850000 0.17849800 7637.60895129 0 -23.13424042 0 1823.44823427 0 100.95562381 0 660.93329910 0 34536
