### header ###
fiducial parameters:
Omega_m = 0.31
Omega_nu = 0
Omega_de = 0.69
Omega_k = 0
H_0 = 100
w_de = -1
zeff = 0
beta = 0
fgrowth = 0
b_1 = 2
gamma = 0.55
Lx = 3500 Ly = 3500 Lz = 3500
nx = 700 ny = 700 nz = 700
xoffset = 1379.75464 yoffset = 22.6059522 zoffset = 368.141391
bins = 400 dk = 0.001
kx_ny = 0.628318531 ky_ny = 0.628318531 kz_ny = 0.628318531
############################
A(data) = 3.33792941 (not used)
A(ran) = 3.3433337 (used)
Ngal = 187625
weighted Ngal = 0
Nran = 9399747
weighted Nran = 0
SN(data) = 6672.68781
SN(ran) = 132.982378
SN(data+ran) = 6805.67018
############################
13 columns: k_central k_mean P_0(k) sigma^{lin}_{P_0(k)} P^img_1(k) sigma^{lin}_{P_1(k)} P_2(k) sigma^{lin}_{P_2(k)} P^img_3(k) sigma^{lin}_{P_3(k)} P_4(k) sigma^{lin}_{P_4(k)} N_modes
### header ###
0.00050000 0 0 0 0 0 0 0 0 0 0 0 0
0.00150000 0.00179520 34685.16748027 0 -28375.16371249 0 -63154.60636681 0 76096.70226176 0 21279.23772895 0 3
0.00250000 0.00253879 58440.51492791 0 -19113.34878890 0 8071.65185266 0 -62244.79548115 0 1767.39332490 0 6
0.00350000 0.00331552 75534.60040042 0 -14169.00410135 0 -62473.60687419 0 25773.94529222 0 58629.84165982 0 7
0.00450000 0.00420575 78590.44698359 0 -4276.29971296 0 4119.29272896 0 -38925.33207357 0 4968.56786168 0 24
0.00550000 0.00557378 91296.07855960 0 5709.74818894 0 1543.17368739 0 -18847.38188608 0 17393.32596617 0 45
0.00650000 0.00659388 65760.03944192 0 5323.98526789 0 30187.90894170 0 43421.48149244 0 -25885.52273352 0 40
0.00750000 0.00754703 70255.19065307 0 7426.11091668 0 30443.45011939 0 -24718.83972653 0 40473.44134361 0 57
0.00850000 0.00846663 62984.80014154 0 6827.53010858 0 27679.08019201 0 29610.50122858 0 3196.66041963 0 75
0.00950000 0.00948925 65924.96554054 0 2260.82958593 0 57563.09033734 0 16680.27291437 0 27878.05626527 0 112
0.01050000 0.01054430 60097.53975197 0 -3312.49688056 0 31264.42051750 0 -1201.88646610 0 31573.42126447 0 105
0.01150000 0.01145670 71276.02442018 0 -1911.36815248 0 45881.84171147 0 38011.75018095 0 32282.25966144 0 144
0.01250000 0.01249090 72854.85630576 0 -5937.35064152 0 35525.21473713 0 4440.68234293 0 17375.02549121 0 169
0.01350000 0.01339930 82887.17668133 0 1638.51361636 0 33590.68816542 0 5435.34088525 0 28790.30721426 0 180
0.01450000 0.01448870 72968.76289842 0 7188.32674531 0 45257.51823525 0 -7404.71599777 0 31615.34598894 0 267
0.01550000 0.01550050 70085.82807567 0 4989.89623341 0 44274.83818564 0 3813.50842910 0 7022.89045163 0 238
0.01650000 0.01653350 71963.01315915 0 -3104.03783391 0 48121.59802319 0 12368.68101272 0 27234.98866621 0 315
0.01750000 0.01747870 74317.89609520 0 323.93282543 0 35887.56414142 0 12974.70401397 0 7846.65583137 0 297
0.01850000 0.01844180 69038.15361194 0 2259.98665496 0 35238.72911995 0 -4331.51169137 0 11829.09428119 0 388
0.01950000 0.01947590 68520.74927430 0 6425.45203682 0 42523.64909949 0 -5303.12272643 0 -9353.66112551 0 399
0.02050000 0.02045430 61829.20833150 0 3801.81830752 0 43712.95814824 0 1766.55039393 0 2522.23800680 0 462
0.02150000 0.02154770 57308.32554344 0 -1439.94791739 0 30205.98759273 0 6936.46784501 0 -14549.65398062 0 571
0.02250000 0.02255340 63436.32276930 0 -4206.17007466 0 36094.52587648 0 8370.60397520 0 -17107.94946869 0 510
0.02350000 0.02348930 66209.34383029 0 -279.28299387 0 19354.24958662 0 -1337.23234246 0 -28980.52124192 0 555
0.02450000 0.02439640 67061.92413970 0 70.11566340 0 20212.48640647 0 1632.89037951 0 -19425.34415906 0 592
0.02550000 0.02547300 62295.37133923 0 1810.62681060 0 15181.63038273 0 -3091.79315248 0 -23585.65213433 0 837
0.02650000 0.02652900 63279.27142051 0 93.50988147 0 12006.77525630 0 -143.42914070 0 -24405.51341275 0 723
0.02750000 0.02749970 61569.78523488 0 -1025.30573772 0 18223.94570562 0 4384.03960012 0 -29232.29141264 0 826
0.02850000 0.02848090 62902.50346018 0 1469.31740691 0 11551.92526945 0 -5122.13657463 0 -26312.64472799 0 831
0.02950000 0.02946900 58360.99104579 0 2416.01761363 0 14335.59387952 0 -4564.99247833 0 -32843.58513899 0 996
0.03050000 0.03053250 57198.52269365 0 1923.39100997 0 18985.35637612 0 -6330.89958283 0 -26031.48288536 0 1041
0.03150000 0.03150510 57592.03836137 0 2098.22154747 0 21044.76982547 0 21.11896993 0 -28660.09656209 0 1036
0.03250000 0.03246190 52986.97338847 0 -1974.74325184 0 17570.78511734 0 10287.80609728 0 -14277.47600751 0 1059
0.03350000 0.03345080 56001.56071900 0 971.16960542 0 18011.88201997 0 3745.06465273 0 -22326.35763283 0 1302
0.03450000 0.03451200 56603.36906541 0 967.49509187 0 13164.14165785 0 1720.88793609 0 -8758.75150360 0 1339
0.03550000 0.03553350 50619.55739987 0 2713.00659431 0 18339.84871373 0 1360.36857929 0 -9651.49303716 0 1365
0.03650000 0.03647120 47163.42951884 0 4368.20137088 0 21419.98501822 0 -4046.57884177 0 203.42697059 0 1308
0.03750000 0.03744890 44986.00573396 0 695.86169653 0 14250.19166302 0 1837.72260474 0 522.28002781 0 1579
0.03850000 0.03847530 43901.06484849 0 -244.78715313 0 20930.30867296 0 4378.09471855 0 2885.47470685 0 1662
0.03950000 0.03950240 44273.39633004 0 572.69173618 0 12010.10261538 0 322.41222233 0 -1961.38945072 0 1683
0.04050000 0.04050350 42913.50467222 0 389.60158432 0 16831.66775271 0 2192.76291025 0 -2854.55244976 0 1822
0.04150000 0.04152450 43178.36245534 0 -346.10634637 0 11945.77367308 0 -1076.20545876 0 -322.87694348 0 1887
0.04250000 0.04250150 43333.75012458 0 -847.47503145 0 11572.99854365 0 1319.26460340 0 -7441.33913009 0 1920
0.04350000 0.04349210 43342.95581805 0 629.63615955 0 10465.88635548 0 -2821.38977089 0 -10562.09139781 0 2005
0.04450000 0.04448520 43387.98607766 0 769.22996434 0 11416.83449062 0 -722.37298460 0 -11301.48604236 0 2151
0.04550000 0.04548030 42998.35232887 0 -195.75297142 0 9960.03904506 0 -149.06901434 0 -9037.58419488 0 2274
0.04650000 0.04648670 43820.43184667 0 -773.78622805 0 10081.69838439 0 3873.26779826 0 -10815.31451533 0 2311
0.04750000 0.04749250 43513.64933908 0 -195.96703152 0 6509.15730019 0 2975.16921657 0 -8156.39968854 0 2568
0.04850000 0.04851840 42970.73524847 0 970.86237926 0 5261.57510266 0 -78.14846279 0 -4938.61053873 0 2493
0.04950000 0.04949480 43083.97636931 0 560.07882701 0 3702.05299097 0 4018.51811349 0 300.15884477 0 2644
0.05050000 0.05050630 40717.33676450 0 364.83050506 0 4529.31209775 0 2409.27416588 0 1296.58310564 0 2829
0.05150000 0.05149060 39859.43268055 0 726.11848181 0 295.28870019 0 2239.44575821 0 3503.46510961 0 2784
0.05250000 0.05249300 39319.40230114 0 1057.63657683 0 3501.00286389 0 375.74313373 0 6581.46081309 0 3055
0.05350000 0.05348950 38328.40385382 0 932.04984466 0 162.67791300 0 -1369.19717206 0 4937.41268946 0 3009
0.05450000 0.05448610 36366.59293762 0 1299.63318480 0 5884.09071377 0 -2558.49512962 0 4591.61135100 0 3336
0.05550000 0.05550870 34035.00151516 0 1696.68694435 0 6821.23030872 0 -2360.89436479 0 4016.57715403 0 3349
0.05650000 0.05647670 32674.00073765 0 1738.34548009 0 9781.06039991 0 -670.56822189 0 3374.85158980 0 3324
0.05750000 0.05747970 31422.35916204 0 -42.07711751 0 9964.37570307 0 436.85562892 0 4012.73959988 0 3639
0.05850000 0.05849280 32672.44797007 0 -534.10657112 0 10626.80853200 0 3133.41841463 0 4924.12543551 0 3846
0.05950000 0.05951020 32225.47273306 0 0.94397066 0 8755.13577340 0 1307.16410753 0 7139.25929001 0 3787
0.06050000 0.06049470 32302.88928776 0 -21.88880991 0 7986.59346326 0 -372.70081841 0 6617.93975985 0 3930
0.06150000 0.06148310 33154.58230141 0 -381.34751555 0 7322.94060267 0 1357.98397195 0 6324.57760057 0 4083
0.06250000 0.06249100 32448.96035157 0 375.96717591 0 7363.03527964 0 -850.65598674 0 2245.83428765 0 4303
0.06350000 0.06350600 33655.01710772 0 52.00440425 0 8239.11783538 0 -1144.91098737 0 5420.94451161 0 4470
0.06450000 0.06451750 31356.69927611 0 293.51189044 0 6746.70855642 0 -457.81910027 0 -1627.75515532 0 4479
0.06550000 0.06550280 33060.63986326 0 507.19932732 0 7184.54464715 0 -1603.46543400 0 -3126.93006442 0 4636
0.06650000 0.06648880 30662.05761124 0 1098.04846203 0 9203.24231250 0 -2414.37611648 0 -5270.10423311 0 4653
0.06750000 0.06749660 30450.65939741 0 1366.83474711 0 10274.41902256 0 -1820.24287835 0 -5427.19994669 0 5220
0.06850000 0.06852730 28280.66671449 0 602.91302963 0 11055.58311482 0 43.18956456 0 -6518.90646230 0 5029
0.06950000 0.06949320 28099.54746832 0 455.50769483 0 11145.43290130 0 641.17322262 0 -7244.06000997 0 5040
0.07050000 0.07048030 27485.98245315 0 63.81264708 0 10400.73666460 0 2506.20013601 0 -2884.87578222 0 5475
0.07150000 0.07148790 27106.55260555 0 -322.84366989 0 9792.29578242 0 3170.30773568 0 -3206.34303456 0 5509
0.07250000 0.07249820 27493.63537904 0 69.83716344 0 8640.13115224 0 1648.41805523 0 2502.71750017 0 5916
0.07350000 0.07351270 26800.21374584 0 549.21832696 0 7516.75926934 0 275.72715613 0 710.98010709 0 5721
0.07450000 0.07449140 26873.52655767 0 644.42072509 0 9816.76296289 0 -592.99971779 0 4176.49003163 0 6028
0.07550000 0.07549160 25652.05303776 0 470.38653553 0 9104.31992692 0 -403.32361318 0 3638.99953632 0 6183
0.07650000 0.07648840 25415.47780685 0 586.84299437 0 11517.76438285 0 -457.12590046 0 4467.62286032 0 6330
0.07750000 0.07749960 24656.28537575 0 586.39380089 0 10763.70717593 0 -570.64873770 0 3729.15987631 0 6583
0.07850000 0.07848650 24345.28821332 0 446.38518534 0 12151.29355253 0 1081.63681790 0 2715.08064814 0 6549
0.07950000 0.07947320 23737.15788465 0 -267.70489338 0 9840.16538845 0 975.93771099 0 4094.50390378 0 6828
0.08050000 0.08048110 24219.95768780 0 -138.28726179 0 10144.58547109 0 1839.56374344 0 3534.42064029 0 7147
0.08150000 0.08149960 24352.49749133 0 287.36182173 0 9117.47408650 0 340.81584542 0 3317.58773996 0 7386
0.08250000 0.08250610 23260.12550390 0 634.37764625 0 7984.17558233 0 -888.80526776 0 1346.72640704 0 7227
0.08350000 0.08350160 22803.61183752 0 577.63508266 0 8543.22736450 0 -434.96679808 0 1092.92765640 0 7798
0.08450000 0.08449610 21994.50902014 0 281.02985739 0 9262.46930420 0 -90.27790668 0 517.79031129 0 7371
0.08550000 0.08548940 22178.17924160 0 -116.67828278 0 6928.32690645 0 1457.27236703 0 -1493.70694900 0 8256
0.08650000 0.08650700 22379.81720212 0 -220.21349717 0 8042.53746067 0 423.03045192 0 124.13822184 0 8037
0.08750000 0.08749060 21569.60526506 0 470.26675060 0 5237.74012042 0 92.75823105 0 -1388.65113151 0 8155
0.08850000 0.08849210 21766.80674680 0 348.72386885 0 6744.52359062 0 745.19644968 0 1076.90420417 0 8718
0.08950000 0.08949900 20529.14007934 0 208.14072929 0 5573.42628725 0 136.91528073 0 -1011.15004306 0 8571
0.09050000 0.09049190 20732.66354334 0 266.65566615 0 6463.98285501 0 393.66096240 0 1330.11179402 0 8932
0.09150000 0.09150830 20163.13058005 0 389.56387425 0 6043.90377060 0 -49.51831245 0 3.71304437 0 9285
0.09250000 0.09250820 19792.13004213 0 424.28264806 0 6648.52928104 0 289.43698468 0 377.06742265 0 9204
0.09350000 0.09350330 19485.34753455 0 208.68752530 0 6110.92787376 0 -114.12508924 0 1442.02197122 0 9349
0.09450000 0.09448040 18804.12621799 0 132.45107396 0 6943.04492480 0 691.78457253 0 15.21745495 0 9564
0.09550000 0.09549270 18864.79506529 0 433.04691189 0 6647.53107331 0 155.66384005 0 2176.59194510 0 10155
0.09650000 0.09649430 18403.17944831 0 52.30286836 0 6593.86077128 0 187.43568283 0 1318.82095552 0 9913
0.09750000 0.09749140 18565.44365966 0 219.52695208 0 6842.28140052 0 -272.32326779 0 1577.37893878 0 10476
0.09850000 0.09850240 17866.36551601 0 270.31797938 0 6832.88715671 0 217.88989141 0 1723.52764097 0 10575
0.09950000 0.09950330 17631.12122874 0 319.74257122 0 6500.75017290 0 205.46775082 0 1706.18100894 0 10882
0.10050000 0.10051200 17814.79145020 0 58.32272642 0 6951.64060243 0 520.45996239 0 1476.71523528 0 10875
0.10150000 0.10150300 17224.40703665 0 183.31419404 0 6731.66889336 0 416.17720133 0 1331.83092954 0 11118
0.10250000 0.10250800 16846.97360450 0 263.29170611 0 6012.51568324 0 561.97874905 0 2499.60087383 0 11575
0.10350000 0.10349800 16458.33806344 0 337.68258229 0 5650.19955253 0 259.94992847 0 1929.11406760 0 11364
0.10450000 0.10450100 16305.16863358 0 179.35907321 0 5424.60460660 0 478.18475611 0 2246.33339151 0 12093
0.10550000 0.10551000 15706.24399838 0 71.38216717 0 5141.92326998 0 700.05749634 0 1350.76360273 0 12067
0.10650000 0.10649700 15539.87604415 0 256.10239225 0 4139.53416339 0 -210.91463765 0 1619.32584564 0 12054
0.10750000 0.10749900 15371.40076251 0 299.30925908 0 4767.95029128 0 -496.30777192 0 525.88577594 0 12807
0.10850000 0.10850100 14983.87434114 0 359.61431513 0 4601.87070818 0 -755.65212104 0 -503.62019807 0 12736
0.10950000 0.10950300 14448.50226445 0 252.37575008 0 5362.28317095 0 -682.93047001 0 -1368.57606503 0 12933
0.11050000 0.11050200 14164.56762258 0 343.78052237 0 5626.96349492 0 -630.57669305 0 -1830.74624186 0 13428
0.11150000 0.11150900 14100.57141618 0 169.27828430 0 6274.91122064 0 160.68704315 0 -1725.95661310 0 13453
0.11250000 0.11250000 13898.93345567 0 -250.85736522 0 5514.97567934 0 663.00624381 0 -1932.68543302 0 13668
0.11350000 0.11349100 14268.60304995 0 -123.71010164 0 5391.05373583 0 814.39775480 0 -1556.42766774 0 13791
0.11450000 0.11448600 14420.33062420 0 55.32499771 0 5134.31470888 0 322.06506786 0 -919.73639781 0 14205
0.11550000 0.11549300 13904.70087808 0 277.93541345 0 4804.35159967 0 -8.21120129 0 -739.17725709 0 14776
0.11650000 0.11649800 13977.01548218 0 224.20632807 0 5136.77695460 0 49.10893638 0 -289.94274326 0 14553
0.11750000 0.11747300 13532.81304440 0 51.06675446 0 4631.77257515 0 118.06800975 0 -1037.06906121 0 14568
0.11850000 0.11849100 13721.03065662 0 66.91030748 0 4720.54651553 0 372.27380733 0 -406.51455055 0 16015
0.11950000 0.11950300 13267.51161340 0 56.55434597 0 4408.67314854 0 -181.12035528 0 -1500.71658547 0 15270
0.12050000 0.12050700 13331.84055570 0 156.89607203 0 4336.65800676 0 185.37382931 0 -990.74445891 0 15999
0.12150000 0.12150000 13371.10339290 0 17.89719904 0 4133.99965612 0 385.05197533 0 -1586.12989317 0 15670
0.12250000 0.12250700 13091.60522980 0 -113.35646929 0 3365.67916992 0 352.11888423 0 -965.99999852 0 16887
0.12350000 0.12352200 13240.44909285 0 330.06847558 0 3838.90727011 0 -224.72761433 0 -1148.83727109 0 16407
0.12450000 0.12449800 12807.67058793 0 251.98977642 0 3656.75654263 0 -48.61726361 0 -1084.17226553 0 16306
0.12550000 0.12549900 12403.17463523 0 274.27088197 0 3875.08675456 0 229.78409101 0 -698.47921901 0 17523
0.12650000 0.12650100 12087.29734614 0 110.84342589 0 3662.36868829 0 395.28915011 0 -102.01616406 0 17154
0.12750000 0.12750600 11921.37303980 0 238.94098321 0 3959.39094256 0 328.18408122 0 -7.95590412 0 18007
0.12850000 0.12850300 11492.36554184 0 259.53955419 0 3255.75431697 0 210.78043416 0 303.90434198 0 17496
0.12950000 0.12949900 11384.00454766 0 -82.75341685 0 3451.03702164 0 498.63026856 0 985.73234701 0 18405
0.13050000 0.13049000 11460.31198266 0 -236.42328151 0 2408.99688596 0 866.20695398 0 816.69030521 0 18100
0.13150000 0.13148800 11946.10640899 0 -282.83772250 0 2314.55534394 0 717.11575724 0 1153.60648578 0 19059
0.13250000 0.13249300 12108.81426822 0 10.16442762 0 1659.08778670 0 -320.49122702 0 86.37779818 0 18957
0.13350000 0.13349100 11948.54647232 0 103.40411644 0 1530.59627005 0 -214.91634151 0 696.25321578 0 19468
0.13450000 0.13450700 11909.72728300 0 -1.41312940 0 1745.37729895 0 -226.83494175 0 81.76552393 0 19953
0.13550000 0.13551000 12107.92697247 0 177.19185333 0 2001.00720622 0 -613.27775317 0 -360.77334521 0 19956
0.13650000 0.13649900 11808.02100699 0 191.72686693 0 1883.29633301 0 166.22598690 0 -328.67653036 0 19723
0.13750000 0.13749600 11535.51029797 0 134.55618314 0 2623.25662860 0 -57.10735305 0 -129.58954514 0 20946
0.13850000 0.13851100 11728.94077275 0 -2.40665664 0 2197.22157143 0 215.95225930 0 371.52626065 0 20955
0.13950000 0.13949800 11509.11324923 0 77.19384346 0 2400.61194106 0 263.07986425 0 -333.44463593 0 20506
0.14050000 0.14048300 11455.32094403 0 233.96103578 0 2586.81095543 0 -514.89994536 0 300.77107884 0 21447
0.14150000 0.14148400 11232.94244522 0 176.99997562 0 2854.37499061 0 -74.62867143 0 369.52984520 0 21771
0.14250000 0.14249400 11053.53124339 0 8.44778761 0 2568.02246780 0 279.73218735 0 772.16358594 0 22470
0.14350000 0.14350900 11111.49383864 0 8.71881210 0 2699.75261395 0 202.05609864 0 -380.42140061 0 22519
0.14450000 0.14449900 10979.02058229 0 187.49002969 0 3002.46465226 0 -364.50442387 0 239.89704439 0 22218
0.14550000 0.14550500 10762.94188334 0 322.99561929 0 2943.64803485 0 -476.47005706 0 -421.33904439 0 23559
0.14650000 0.14650700 10353.70998954 0 242.20955896 0 3378.04585452 0 -155.81357121 0 -162.46828938 0 23044
0.14750000 0.14750500 10082.56349775 0 158.74275632 0 3323.67680708 0 84.91309472 0 -458.13076290 0 23649
0.14850000 0.14849900 10166.96750653 0 13.43676328 0 3551.53435718 0 213.33030034 0 -233.48300520 0 23640
0.14950000 0.14949500 9964.35352068 0 -14.58947138 0 3258.33856586 0 509.09481288 0 -152.15902181 0 24457
0.15050000 0.15050000 9983.72984175 0 51.64682406 0 3160.62512074 0 279.33734074 0 -127.44450765 0 24591
0.15150000 0.15149900 10150.09779597 0 -51.51295331 0 2727.25878239 0 82.47402960 0 686.53289078 0 25020
0.15250000 0.15250500 10039.10818811 0 25.17513157 0 2467.68040901 0 590.88351742 0 733.90782942 0 25297
0.15350000 0.15350100 9923.42700394 0 8.70463755 0 2367.62672134 0 269.12567571 0 1247.23837042 0 25452
0.15450000 0.15450400 10092.58993979 0 23.37159203 0 1922.47044063 0 338.96361553 0 874.35565638 0 26061
0.15550000 0.15549900 9888.78919587 0 177.13639734 0 2350.73482839 0 31.34960091 0 1224.77869660 0 26128
0.15650000 0.15649500 9639.48127087 0 176.31121229 0 1894.35425636 0 -385.62095374 0 1099.00452321 0 26331
0.15750000 0.15749700 9564.52696189 0 201.45273753 0 2595.78373376 0 -250.38488023 0 1018.96600955 0 27345
0.15850000 0.15849900 9359.65037186 0 5.30139250 0 2175.34973105 0 -19.27993857 0 1072.54092729 0 26980
0.15950000 0.15949700 9326.77606411 0 -6.12564589 0 2529.46946721 0 132.65071550 0 159.60565144 0 27777
0.16050000 0.16050000 9570.56057303 0 36.79127487 0 2238.58064485 0 -27.54964592 0 231.66404890 0 28224
0.16150000 0.16150500 9320.63154100 0 89.90302422 0 2414.29847810 0 -231.87034516 0 -85.19159467 0 28075
0.16250000 0.16249700 9179.54042462 0 279.09444353 0 2589.22883637 0 -179.80604845 0 102.22490038 0 28590
0.16350000 0.16349900 8856.39840153 0 174.95475890 0 2715.06955694 0 -253.37173956 0 85.98139881 0 29163
0.16450000 0.16449100 8856.19875999 0 0.36806470 0 2722.78903002 0 495.47260479 0 -44.92389503 0 28996
0.16550000 0.16550500 8670.42121111 0 -5.45055801 0 2589.23992756 0 329.21778077 0 55.19112696 0 30777
0.16650000 0.16650700 8874.78760607 0 28.50459798 0 2230.48407108 0 -60.69724077 0 -326.09006324 0 29211
0.16750000 0.16749900 8552.81015867 0 229.10198240 0 2430.34744008 0 -70.34125834 0 104.07469021 0 30922
0.16850000 0.16850800 8418.87286432 0 91.20269068 0 2155.96231878 0 118.72128125 0 114.33914934 0 30867
0.16950000 0.16949900 8351.57148124 0 -6.37425507 0 2047.23531510 0 335.78931497 0 251.96315755 0 30852
0.17050000 0.17049200 8282.60641862 0 41.71820638 0 1629.80702675 0 400.08498368 0 -21.37639661 0 31257
0.17150000 0.17149500 8103.76086782 0 177.49464300 0 1631.96981016 0 28.38436941 0 -31.12212046 0 32608
0.17250000 0.17250900 7933.52208587 0 207.73146412 0 1501.74806679 0 -231.33907683 0 220.18022358 0 32361
0.17350000 0.17350400 7629.31273597 0 144.03582917 0 1769.66702027 0 -160.91884916 0 -68.03650762 0 32508
0.17450000 0.17449800 7595.52895007 0 51.10923375 0 1518.59559495 0 72.46167337 0 -111.34896264 0 32791
0.17550000 0.17549800 7670.84926854 0 -101.67167148 0 1498.72017002 0 381.48726463 0 -175.48824547 0 33633
0.17650000 0.17650100 7708.84770929 0 -83.86874761 0 1275.25473391 0 252.38905951 0 10.13072147 0 33984
0.17750000 0.17750300 7822.44374843 0 17.94877311 0 965.38887357 0 375.83851803 0 471.84391881 0 34069
0.17850000 0.17849800 7815.47847675 0 7.90645957 0 838.85495319 0 73.59896471 0 795.10129035 0 34536
