### header ###
fiducial parameters:
Omega_m = 0.31
Omega_nu = 0
Omega_de = 0.69
Omega_k = 0
H_0 = 100
w_de = -1
zeff = 0
beta = 0
fgrowth = 0
b_1 = 2
gamma = 0.55
Lx = 3500 Ly = 3500 Lz = 3500
nx = 700 ny = 700 nz = 700
xoffset = 1379.75464 yoffset = 22.6059522 zoffset = 368.141391
bins = 400 dk = 0.001
kx_ny = 0.628318531 ky_ny = 0.628318531 kz_ny = 0.628318531
############################
A(data) = 3.36127498 (not used)
A(ran) = 3.36181564 (used)
Ngal = 188780
weighted Ngal = 0
Nran = 9399747
weighted Nran = 0
SN(data) = 6686.05086
SN(ran) = 133.717504
SN(data+ran) = 6819.76837
############################
13 columns: k_central k_mean P_0(k) sigma^{lin}_{P_0(k)} P^img_1(k) sigma^{lin}_{P_1(k)} P_2(k) sigma^{lin}_{P_2(k)} P^img_3(k) sigma^{lin}_{P_3(k)} P_4(k) sigma^{lin}_{P_4(k)} N_modes
### header ###
0.00050000 0 0 0 0 0 0 0 0 0 0 0 0
0.00150000 0.00179520 16817.58193259 0 -34421.97337669 0 -51487.66538501 0 56769.51519569 0 64071.84835443 0 3
0.00250000 0.00253879 25489.34517853 0 -28890.57163467 0 -19725.58286044 0 -51832.15796222 0 -46142.37392778 0 6
0.00350000 0.00331552 60125.15683238 0 -27439.17760202 0 -76001.20705603 0 6919.04357460 0 -9335.07227943 0 7
0.00450000 0.00420575 85933.15209923 0 -27800.63971057 0 -77387.49576259 0 -20555.20439217 0 -2642.86586481 0 24
0.00550000 0.00557378 94159.49287572 0 1711.54914826 0 -80208.87444228 0 -52693.83305313 0 2160.39879756 0 45
0.00650000 0.00659388 85941.13776103 0 4090.18942817 0 -46746.62233752 0 -21807.51143960 0 -1377.57102576 0 40
0.00750000 0.00754703 74237.15218142 0 -2619.28598010 0 -61252.13335428 0 2455.69082511 0 -2930.87097596 0 57
0.00850000 0.00846663 76227.24564984 0 -1894.57608030 0 -47489.84344502 0 -26795.22270721 0 -19191.76355133 0 75
0.00950000 0.00948925 76943.62606072 0 1517.15373935 0 -49781.50655846 0 -26543.78527239 0 -14099.68412043 0 112
0.01050000 0.01054430 73069.47096671 0 -1229.82519121 0 -43086.19460870 0 -22569.36575797 0 -6731.30288386 0 105
0.01150000 0.01145670 77444.28269096 0 -2817.43021358 0 -36008.23636422 0 -16345.76241441 0 -8746.10753908 0 144
0.01250000 0.01249090 79230.96360735 0 731.55649567 0 -22936.81711286 0 -6382.62892540 0 -6181.62316311 0 169
0.01350000 0.01339930 82142.95736611 0 1882.32030767 0 3549.47139455 0 -3663.37798721 0 1911.15741974 0 180
0.01450000 0.01448870 79237.06376567 0 2395.50999047 0 -5115.84786596 0 4682.06006212 0 8204.54657449 0 267
0.01550000 0.01550050 72573.80537509 0 4557.13991089 0 17272.32100747 0 -7246.91044759 0 14116.43182782 0 238
0.01650000 0.01653350 69201.41603101 0 7424.46941953 0 21532.44975528 0 -4071.50076131 0 29861.93866339 0 315
0.01750000 0.01747870 67058.48586865 0 880.90500818 0 28932.38544716 0 4304.54899159 0 28331.24257257 0 297
0.01850000 0.01844180 63598.47606868 0 -2024.20999023 0 31958.06397464 0 15060.95815993 0 38431.10833756 0 388
0.01950000 0.01947590 71039.56010124 0 -1451.40512384 0 29306.93516811 0 20488.98994639 0 33391.49026823 0 399
0.02050000 0.02045430 69010.42561957 0 247.54553381 0 14935.62763442 0 2251.64607485 0 34021.47025489 0 462
0.02150000 0.02154770 67343.75145416 0 2017.61072805 0 17604.61326804 0 5062.94285652 0 35143.78847408 0 571
0.02250000 0.02255340 67296.50295516 0 -13.88085480 0 16140.35344693 0 1365.78108340 0 24255.22769410 0 510
0.02350000 0.02348930 65044.43541482 0 3544.06998164 0 20954.26565837 0 -4459.48192176 0 22841.32190714 0 555
0.02450000 0.02439640 60670.06733844 0 3475.57074929 0 11300.59874661 0 -4508.66028903 0 2283.31144214 0 592
0.02550000 0.02547300 56606.91824843 0 2631.91885342 0 23158.75196380 0 -1656.91391209 0 8334.47994674 0 837
0.02650000 0.02652900 55188.57598269 0 1237.62230266 0 14379.40410746 0 2866.88586077 0 -4300.53397829 0 723
0.02750000 0.02749970 53810.49476187 0 -268.56667938 0 20371.64508268 0 5957.24824884 0 6558.91240969 0 826
0.02850000 0.02848090 54070.58333031 0 -648.73852806 0 5783.83738456 0 7237.71584532 0 -2723.60977859 0 831
0.02950000 0.02946900 51976.89808239 0 -651.45808955 0 9829.19619467 0 5235.02277717 0 10094.19816335 0 996
0.03050000 0.03053250 51738.77008392 0 2216.74207806 0 5006.83249115 0 1857.04346983 0 6484.09119508 0 1041
0.03150000 0.03150510 51778.47656899 0 61.99291440 0 10180.74277314 0 -2688.48395786 0 8631.15837391 0 1036
0.03250000 0.03246190 49996.01030744 0 1462.65159755 0 7409.24120612 0 -2693.78555000 0 4204.05165604 0 1059
0.03350000 0.03345080 49765.42432289 0 1918.87689282 0 14173.32966816 0 -7304.16320624 0 201.05345444 0 1302
0.03450000 0.03451200 48183.37599019 0 2175.53828139 0 19253.20878242 0 -5061.21262979 0 -2256.34874236 0 1339
0.03550000 0.03553350 45444.84855171 0 1522.23350755 0 24793.15074609 0 -1839.99630012 0 -5031.26639803 0 1365
0.03650000 0.03647120 45184.87089524 0 887.34233888 0 22511.69153384 0 3934.55775259 0 -2588.21953744 0 1308
0.03750000 0.03744890 45124.75660778 0 -385.57437071 0 20692.40249842 0 4761.42866748 0 -818.86750717 0 1579
0.03850000 0.03847530 45487.88239587 0 -132.65626110 0 20027.48524138 0 6953.88102422 0 2533.32920375 0 1662
0.03950000 0.03950240 43628.66505144 0 697.05621844 0 17967.51723218 0 1675.26984304 0 6381.85254161 0 1683
0.04050000 0.04050350 43508.65830046 0 1292.96737544 0 17353.17583322 0 -2331.09231859 0 6599.24000180 0 1822
0.04150000 0.04152450 42356.39384951 0 1233.29673585 0 18574.64935313 0 2585.85711249 0 6422.33541047 0 1887
0.04250000 0.04250150 42379.46353916 0 -1482.05010101 0 17014.33976645 0 3238.00840185 0 2528.75963060 0 1920
0.04350000 0.04349210 40733.30808810 0 1177.03109374 0 14225.12555791 0 1122.21839842 0 4378.15017454 0 2005
0.04450000 0.04448520 41524.33225445 0 261.33521897 0 13429.22126491 0 1540.17906421 0 3152.93892126 0 2151
0.04550000 0.04548030 39564.96140158 0 777.85115173 0 11476.83786611 0 1473.26587303 0 3196.17240696 0 2274
0.04650000 0.04648670 37236.58642624 0 1871.22911073 0 13335.72247463 0 -155.52741833 0 3228.50324607 0 2311
0.04750000 0.04749250 36200.77954324 0 540.57273894 0 10638.42101521 0 423.07814407 0 1051.57523770 0 2568
0.04850000 0.04851840 35579.00704233 0 -153.13615626 0 8112.15690391 0 2858.60073665 0 1482.43829290 0 2493
0.04950000 0.04949480 34617.06753101 0 193.15874045 0 8823.66827934 0 2062.61880526 0 942.35689399 0 2644
0.05050000 0.05050630 34008.16081855 0 118.29648841 0 3563.10247560 0 2374.96909372 0 1879.45877886 0 2829
0.05150000 0.05149060 34540.87100797 0 -200.61313392 0 6550.70492395 0 575.30038570 0 3086.75774907 0 2784
0.05250000 0.05249300 34104.21058412 0 679.28812093 0 1219.38837488 0 690.04547285 0 1647.35330033 0 3055
0.05350000 0.05348950 33806.07921015 0 289.80188506 0 7000.09804190 0 127.12175382 0 3431.92688929 0 3009
0.05450000 0.05448610 31929.33777454 0 1153.56212099 0 5214.80352513 0 -2511.71246089 0 4204.71712786 0 3336
0.05550000 0.05550870 32702.39420183 0 521.93176423 0 7696.75830461 0 57.34259734 0 3911.02223267 0 3349
0.05650000 0.05647670 31017.30864949 0 869.61195144 0 10115.71508543 0 -1594.63684123 0 1634.93115974 0 3324
0.05750000 0.05747970 30961.96357672 0 651.21519234 0 9568.84143750 0 -894.84331538 0 3161.17968059 0 3639
0.05850000 0.05849280 30768.97674982 0 -127.36021456 0 13590.04362066 0 387.14155684 0 649.77888233 0 3846
0.05950000 0.05951020 31306.56706590 0 -369.91692798 0 9822.35292615 0 755.12196183 0 3472.16575182 0 3787
0.06050000 0.06049470 31277.39721793 0 -477.52039341 0 9206.38112124 0 2890.11082718 0 2218.88267907 0 3930
0.06150000 0.06148310 31681.33861078 0 48.15032422 0 8604.28440370 0 -774.63914110 0 -195.93486705 0 4083
0.06250000 0.06249100 31644.73766085 0 784.38719409 0 8863.40803801 0 -1449.24234044 0 -1255.86732164 0 4303
0.06350000 0.06350600 30317.67594600 0 792.99618116 0 9277.77515599 0 -2039.10546773 0 -403.61752990 0 4470
0.06450000 0.06451750 29591.09163392 0 43.52474054 0 9055.10828606 0 1540.78908005 0 -2617.08992310 0 4479
0.06550000 0.06550280 29974.18157651 0 -725.34875274 0 8758.30785572 0 2467.81350337 0 -1619.66967274 0 4636
0.06650000 0.06648880 30721.50642688 0 -8.22544239 0 6522.85492842 0 2102.38074632 0 -4471.24968172 0 4653
0.06750000 0.06749660 30047.93803622 0 779.43719290 0 6811.44787301 0 7.54650586 0 594.93291342 0 5220
0.06850000 0.06852730 28771.11944354 0 694.27454625 0 7325.83540507 0 -1180.20317606 0 1090.73714500 0 5029
0.06950000 0.06949320 28995.82709371 0 54.96464472 0 6458.03797345 0 1865.81660661 0 4038.02752892 0 5040
0.07050000 0.07048030 28689.71005794 0 -296.61298911 0 7692.47710259 0 1748.10573340 0 2522.74820186 0 5475
0.07150000 0.07148790 28780.99060882 0 385.22943448 0 6196.38554625 0 -717.33092646 0 1868.11248438 0 5509
0.07250000 0.07249820 28663.53483314 0 376.97314747 0 7702.19299112 0 -442.60419630 0 4427.39508899 0 5916
0.07350000 0.07351270 27504.94839993 0 689.25245227 0 9297.70603691 0 -1473.29914662 0 1995.17323662 0 5721
0.07450000 0.07449140 28041.31868434 0 874.34123782 0 10404.54094516 0 -599.82191304 0 3503.39856243 0 6028
0.07550000 0.07549160 26062.31641287 0 620.19200535 0 10868.44134871 0 -694.78917779 0 2023.28942089 0 6183
0.07650000 0.07648840 25991.88731225 0 332.50964803 0 10551.36621036 0 1252.14067947 0 2709.62377924 0 6330
0.07750000 0.07749960 25153.61464690 0 171.98564548 0 10969.34905855 0 1522.39987551 0 3237.29856525 0 6583
0.07850000 0.07848650 25450.96963709 0 514.10581566 0 11112.38113439 0 70.05388543 0 3694.63298021 0 6549
0.07950000 0.07947320 24830.74990374 0 26.19629807 0 10605.62434583 0 1265.09519751 0 5686.62304331 0 6828
0.08050000 0.08048110 23928.25920806 0 572.06619267 0 9861.92631686 0 371.31774615 0 5234.66785886 0 7147
0.08150000 0.08149960 23962.97465451 0 516.12108615 0 11467.29943674 0 -704.84445694 0 5480.27132409 0 7386
0.08250000 0.08250610 23034.19782207 0 381.66472378 0 10515.68582978 0 559.18931302 0 4800.14803602 0 7227
0.08350000 0.08350160 22866.38801224 0 311.42084615 0 12485.02766871 0 100.48735347 0 5931.92704621 0 7798
0.08450000 0.08449610 22582.67519431 0 -55.41738738 0 9025.01786874 0 988.40865284 0 4594.94980129 0 7371
0.08550000 0.08548940 22682.93961472 0 -121.52735408 0 11287.84387011 0 576.35848589 0 4286.30397261 0 8256
0.08650000 0.08650700 22800.06265449 0 190.04544147 0 8671.66342516 0 197.89135419 0 3827.71625239 0 8037
0.08750000 0.08749060 22479.19432678 0 342.52610799 0 9343.30194756 0 85.75092373 0 2549.12306820 0 8155
0.08850000 0.08849210 21289.44163014 0 683.41071884 0 8202.18414954 0 -49.06723347 0 2807.30395076 0 8718
0.08950000 0.08949900 21192.17183291 0 134.60942088 0 8851.71791642 0 877.59206765 0 3032.10033051 0 8571
0.09050000 0.09049190 20855.66491750 0 162.14442643 0 7170.54755660 0 1379.25688769 0 1421.68071602 0 8932
0.09150000 0.09150830 20464.25657720 0 245.65115737 0 7459.80597301 0 -2.00349163 0 1347.78007075 0 9285
0.09250000 0.09250820 19612.67447551 0 666.18830822 0 7144.52760856 0 -380.62880599 0 1113.84454472 0 9204
0.09350000 0.09350330 19045.47066358 0 508.67112916 0 6956.25454036 0 -30.34629123 0 2826.95755175 0 9349
0.09450000 0.09448040 18232.26410334 0 296.83481304 0 7742.52058322 0 -102.29000571 0 1393.68653492 0 9564
0.09550000 0.09549270 18115.36288750 0 353.45093699 0 7419.95530238 0 241.70158214 0 340.59845796 0 10155
0.09650000 0.09649430 17930.47263437 0 15.79009345 0 7325.90195226 0 99.17803767 0 913.03509662 0 9913
0.09750000 0.09749140 17533.07504772 0 -94.14163605 0 7522.71524210 0 917.33182631 0 1441.75578250 0 10476
0.09850000 0.09850240 18019.31312193 0 -41.74959446 0 6469.22899117 0 469.06668309 0 1429.67746902 0 10575
0.09950000 0.09950330 18260.54665555 0 -510.49230370 0 5868.37448770 0 1328.71430320 0 1840.14048568 0 10882
0.10050000 0.10051200 18345.28340024 0 -126.16014705 0 4861.57108472 0 1120.85418119 0 1938.90759450 0 10875
0.10150000 0.10150300 18548.14139242 0 238.64041178 0 4115.61045158 0 46.79298354 0 2516.92532346 0 11118
0.10250000 0.10250800 18352.49267825 0 384.13584246 0 5009.02854815 0 27.38194703 0 3012.43563832 0 11575
0.10350000 0.10349800 17672.26956942 0 324.42416545 0 5253.76690001 0 -172.48807670 0 2161.94047394 0 11364
0.10450000 0.10450100 17404.52807509 0 394.06579109 0 4962.32351780 0 -448.78199300 0 1752.69748894 0 12093
0.10550000 0.10551000 16813.36727775 0 477.18322102 0 5862.58488289 0 -398.49228779 0 1882.18721331 0 12067
0.10650000 0.10649700 16085.56293401 0 445.56887324 0 5949.14058388 0 -790.30434767 0 1493.80676977 0 12054
0.10750000 0.10749900 16148.67184464 0 71.04688029 0 6114.49923918 0 703.63107999 0 942.85156137 0 12807
0.10850000 0.10850100 15615.96165522 0 -92.96108905 0 5328.63247941 0 431.03829612 0 150.89018888 0 12736
0.10950000 0.10950300 15779.44589824 0 111.54084035 0 4801.51225325 0 514.09805182 0 333.56220262 0 12933
0.11050000 0.11050200 15837.89650615 0 3.92818031 0 4214.84339067 0 218.23039115 0 -541.34135889 0 13428
0.11150000 0.11150900 15484.19823547 0 117.89276884 0 4360.69263054 0 53.60763677 0 -17.53240958 0 13453
0.11250000 0.11250000 15035.78114286 0 447.38561130 0 3347.81125164 0 -16.00481902 0 -959.21773159 0 13668
0.11350000 0.11349100 15207.58378359 0 -136.19878940 0 3994.83840801 0 737.00116425 0 -104.51523255 0 13791
0.11450000 0.11448600 15012.60054124 0 -166.92473231 0 2953.74102407 0 194.72149010 0 -870.38611699 0 14205
0.11550000 0.11549300 15035.89205483 0 316.13238662 0 3424.75088487 0 -51.82162133 0 -239.22491786 0 14776
0.11650000 0.11649800 14916.88351157 0 209.28090434 0 3054.59327792 0 -755.20292756 0 -507.49435316 0 14553
0.11750000 0.11747300 14412.45587437 0 205.55093480 0 4036.65222050 0 -182.29047656 0 -890.79391938 0 14568
0.11850000 0.11849100 14639.49267590 0 -18.52573717 0 4074.53974928 0 -125.86290297 0 -521.97280166 0 16015
0.11950000 0.11950300 14607.21729278 0 10.26282872 0 3933.13807938 0 445.32486691 0 -1692.05082403 0 15270
0.12050000 0.12050700 14574.49826178 0 54.83077397 0 4253.17456733 0 -232.61012800 0 -854.30055406 0 15999
0.12150000 0.12150000 14679.53189688 0 285.23120280 0 4454.10269124 0 -422.67553362 0 -1113.77799754 0 15670
0.12250000 0.12250700 14086.04194818 0 234.77402052 0 4726.89068018 0 146.19528521 0 58.73409891 0 16887
0.12350000 0.12352200 14026.37130860 0 -18.55268878 0 4349.62361599 0 462.59386056 0 -956.89301671 0 16407
0.12450000 0.12449800 14130.07400007 0 -13.83992829 0 4539.00580388 0 699.44304403 0 132.14162956 0 16306
0.12550000 0.12549900 13837.93187245 0 240.81872286 0 4216.07451353 0 248.43504780 0 284.77313636 0 17523
0.12650000 0.12650100 13715.92870602 0 234.10743958 0 3848.10187238 0 -37.70751865 0 379.07049282 0 17154
0.12750000 0.12750600 13243.44371603 0 304.63636098 0 4277.03173196 0 -97.75426072 0 273.30816608 0 18007
0.12850000 0.12850300 12726.59393824 0 502.08295817 0 4417.02481984 0 -1011.58370886 0 -324.17572264 0 17496
0.12950000 0.12949900 12401.51095569 0 293.37435960 0 5127.59344353 0 -320.27716691 0 -134.60498440 0 18405
0.13050000 0.13049000 12064.78221634 0 -51.92665496 0 4828.53040901 0 560.44816387 0 -696.18445036 0 18100
0.13150000 0.13148800 12293.70452135 0 -218.93690040 0 3998.32104385 0 972.49722169 0 -122.49672469 0 19059
0.13250000 0.13249300 12391.63979040 0 -92.85794091 0 3564.82161113 0 656.47907441 0 -502.42234880 0 18957
0.13350000 0.13349100 12342.72761186 0 172.30174459 0 3051.24373644 0 73.80126814 0 -599.87515078 0 19468
0.13450000 0.13450700 12184.01258353 0 286.56880115 0 3205.42246522 0 -381.86658357 0 -238.18567270 0 19953
0.13550000 0.13551000 11519.98262224 0 196.22878377 0 3180.86655517 0 -287.56368152 0 -782.35972329 0 19956
0.13650000 0.13649900 11684.57598495 0 92.52165582 0 3543.65960735 0 38.21771371 0 -585.70836492 0 19723
0.13750000 0.13749600 11482.49437656 0 46.66776393 0 3255.43267226 0 73.36549501 0 -1321.94867306 0 20946
0.13850000 0.13851100 11500.68393955 0 32.50685640 0 3130.00232597 0 98.14700000 0 -1109.49679552 0 20955
0.13950000 0.13949800 11376.57344570 0 89.92420841 0 3256.63052153 0 -107.80266333 0 -1707.45649659 0 20506
0.14050000 0.14048300 11283.85103921 0 67.24559436 0 3274.58716939 0 333.47680040 0 -702.71938360 0 21447
0.14150000 0.14148400 11404.07961413 0 -37.36047510 0 2622.14750891 0 277.60933225 0 -1581.11667215 0 21771
0.14250000 0.14249400 11294.27676434 0 -57.82672809 0 2590.70396556 0 417.50814496 0 -1276.20857685 0 22470
0.14350000 0.14350900 11394.20844885 0 24.34273724 0 1859.76081308 0 232.09438734 0 -1215.73937109 0 22519
0.14450000 0.14449900 11303.92610569 0 -94.78525821 0 1723.01744591 0 507.09063359 0 -993.86995821 0 22218
0.14550000 0.14550500 11269.65430712 0 177.10645111 0 1666.64089182 0 -169.98146619 0 -1492.58673811 0 23559
0.14650000 0.14650700 11052.12266137 0 458.67977715 0 1887.69953819 0 -709.65249082 0 -1561.81798946 0 23044
0.14750000 0.14750500 10463.41301856 0 422.09657314 0 2621.44876350 0 -627.57430604 0 -1297.44821900 0 23649
0.14850000 0.14849900 10182.37317909 0 219.89517982 0 2730.60832386 0 -259.03934120 0 -1703.37493611 0 23640
0.14950000 0.14949500 9912.82381966 0 -69.57330386 0 2817.97368223 0 573.38604511 0 -1149.85766121 0 24457
0.15050000 0.15050000 10252.93537407 0 -22.98062734 0 2865.82110586 0 560.50694721 0 -702.71494713 0 24591
0.15150000 0.15149900 10148.26774847 0 -48.87513394 0 2398.56006963 0 303.04699246 0 -400.95120616 0 25020
0.15250000 0.15250500 10151.65056354 0 127.60754825 0 2501.66383646 0 411.97031033 0 245.46149790 0 25297
0.15350000 0.15350100 9908.68680319 0 201.45384665 0 2573.03568882 0 -327.31674962 0 472.49497207 0 25452
0.15450000 0.15450400 9904.98234341 0 138.73312791 0 2578.52583131 0 99.96018888 0 1034.24746070 0 26061
0.15550000 0.15549900 9664.30336964 0 -27.06130052 0 2797.87643336 0 254.70933792 0 779.34957244 0 26128
0.15650000 0.15649500 9670.45898394 0 201.37399003 0 2877.08976196 0 -125.11424717 0 1061.67709988 0 26331
0.15750000 0.15749700 9422.55964095 0 178.86107847 0 2854.84082088 0 -287.01910375 0 427.99043520 0 27345
0.15850000 0.15849900 9239.87653602 0 137.26798079 0 3221.08323531 0 -26.88605961 0 955.59423755 0 26980
0.15950000 0.15949700 9104.75248360 0 75.17003276 0 3036.08207021 0 -201.86754830 0 242.56558638 0 27777
0.16050000 0.16050000 9128.24363874 0 6.51672150 0 3157.13139371 0 234.74074693 0 389.88995544 0 28224
0.16150000 0.16150500 9003.05729878 0 71.52868189 0 3258.46056902 0 45.60090169 0 61.23083826 0 28075
0.16250000 0.16249700 8976.92643877 0 40.75360498 0 2900.69182907 0 125.00666256 0 475.52508708 0 28590
0.16350000 0.16349900 9007.16104165 0 7.04901022 0 2928.22017989 0 338.65195290 0 479.94714730 0 29163
0.16450000 0.16449100 8905.38821845 0 126.26994990 0 2878.95308305 0 -22.04575035 0 595.44754496 0 28996
0.16550000 0.16550500 8816.22608619 0 140.62417699 0 2887.11620400 0 152.42521054 0 869.91474112 0 30777
0.16650000 0.16650700 8629.74979190 0 106.91814037 0 2861.25153272 0 -128.79541544 0 770.83818790 0 29211
0.16750000 0.16749900 8483.15744183 0 74.50067902 0 2777.37990140 0 -43.43800738 0 730.16565957 0 30922
0.16850000 0.16850800 8572.78540437 0 -56.32353817 0 2649.60931255 0 662.66130759 0 693.63347506 0 30867
0.16950000 0.16949900 8625.75696100 0 -56.69842062 0 2042.07790852 0 83.65945672 0 1015.98691405 0 30852
0.17050000 0.17049200 8658.56472157 0 12.68999299 0 2027.95881480 0 304.42784648 0 632.45886918 0 31257
0.17150000 0.17149500 8466.75356155 0 93.31467640 0 1834.79452875 0 -33.55541816 0 803.08362479 0 32608
0.17250000 0.17250900 8544.62485532 0 86.92370690 0 1604.30836497 0 43.63809257 0 809.72281528 0 32361
0.17350000 0.17350400 8303.41350409 0 42.01988693 0 1619.70294633 0 375.84406363 0 453.13085132 0 32508
0.17450000 0.17449800 8260.26874796 0 149.59030060 0 1589.69016739 0 -184.53644394 0 933.80225378 0 32791
0.17550000 0.17549800 8150.51026296 0 81.37733204 0 1348.84482566 0 217.71575961 0 329.00039331 0 33633
0.17650000 0.17650100 7926.21298708 0 69.28293633 0 1571.04586532 0 17.52043108 0 916.79501238 0 33984
0.17750000 0.17750300 7996.19843982 0 99.97915483 0 1379.55635001 0 -137.97449004 0 301.89683533 0 34069
0.17850000 0.17849800 7768.96199675 0 115.97177353 0 1815.75094359 0 -197.91242746 0 395.57530300 0 34536
