### header ###
fiducial parameters:
Omega_m = 0.31
Omega_nu = 0
Omega_de = 0.69
Omega_k = 0
H_0 = 100
w_de = -1
zeff = 0
beta = 0
fgrowth = 0
b_1 = 2
gamma = 0.55
Lx = 3500 Ly = 3500 Lz = 3500
nx = 700 ny = 700 nz = 700
xoffset = 1379.75464 yoffset = 22.6059522 zoffset = 368.141391
bins = 400 dk = 0.001
kx_ny = 0.628318531 ky_ny = 0.628318531 kz_ny = 0.628318531
############################
A(data) = 3.381606 (not used)
A(ran) = 3.3830552 (used)
Ngal = 190280
weighted Ngal = 0
Nran = 9399747
weighted Nran = 0
SN(data) = 6618.27257
SN(ran) = 134.562316
SN(data+ran) = 6752.83488
############################
13 columns: k_central k_mean P_0(k) sigma^{lin}_{P_0(k)} P^img_1(k) sigma^{lin}_{P_1(k)} P_2(k) sigma^{lin}_{P_2(k)} P^img_3(k) sigma^{lin}_{P_3(k)} P_4(k) sigma^{lin}_{P_4(k)} N_modes
### header ###
0.00050000 0 0 0 0 0 0 0 0 0 0 0 0
0.00150000 0.00179520 61412.06841428 0 -57162.69812751 0 -42861.70878247 0 17584.31637762 0 107114.56547109 0 3
0.00250000 0.00253879 87746.00824041 0 -35486.17372387 0 -32393.28254289 0 -60922.72480492 0 -43160.72745219 0 6
0.00350000 0.00331552 117525.65022245 0 -18465.51197516 0 -61272.98480455 0 -21544.65007192 0 61271.87568485 0 7
0.00450000 0.00420575 116735.95699974 0 -2375.02454970 0 -44025.39716627 0 -59317.71769455 0 2926.46777077 0 24
0.00550000 0.00557378 105658.95678361 0 14013.83825605 0 -12399.18180433 0 -50879.86779225 0 6406.19771891 0 45
0.00650000 0.00659388 87893.52115982 0 1021.35948985 0 -32016.40367059 0 12552.12941024 0 -14646.70195391 0 40
0.00750000 0.00754703 82273.94440207 0 1560.32067787 0 6924.32298435 0 -13768.27915562 0 4129.58535973 0 57
0.00850000 0.00846663 85179.28344265 0 4871.19824367 0 -8739.53045929 0 2072.23487302 0 -24502.67229801 0 75
0.00950000 0.00948925 78670.85816147 0 5317.53019126 0 26987.98771017 0 -2714.67027385 0 3253.83553990 0 112
0.01050000 0.01054430 74366.25371389 0 5201.54954478 0 7639.61645794 0 -8180.95559858 0 -2554.52448111 0 105
0.01150000 0.01145670 73313.92094745 0 4408.45132460 0 40402.01403526 0 -1280.83360597 0 13685.64973835 0 144
0.01250000 0.01249090 71419.54450869 0 2683.59274000 0 36786.39474211 0 -2609.39263242 0 6623.49644952 0 169
0.01350000 0.01339930 69615.00676521 0 2503.58261353 0 44421.46380930 0 7453.25107561 0 17411.07188129 0 180
0.01450000 0.01448870 69840.60171114 0 4399.50072866 0 49443.44687548 0 13064.20997334 0 9955.41401594 0 267
0.01550000 0.01550050 69123.33400450 0 2132.09406295 0 47518.23690921 0 4382.64210930 0 8270.04009247 0 238
0.01650000 0.01653350 67763.77508259 0 958.91050543 0 52584.36293925 0 13925.66324031 0 29158.31312900 0 315
0.01750000 0.01747870 63097.81943844 0 -2362.79095947 0 39782.12703782 0 17756.00810638 0 29632.12906263 0 297
0.01850000 0.01844180 71994.95580636 0 -769.46953420 0 42198.01155709 0 14304.76035200 0 27826.81493537 0 388
0.01950000 0.01947590 75650.17067262 0 -4470.80603384 0 24618.24257021 0 24215.07756115 0 19055.12000492 0 399
0.02050000 0.02045430 78425.18814907 0 -3006.14692965 0 22510.13876627 0 447.43219433 0 27470.01112954 0 462
0.02150000 0.02154770 78897.11857921 0 2533.30702135 0 14780.23996517 0 -1885.55893718 0 14952.37534181 0 571
0.02250000 0.02255340 71333.69864431 0 3045.17685171 0 20629.95905960 0 3852.16125047 0 21819.82266821 0 510
0.02350000 0.02348930 73483.28352485 0 -140.06961714 0 24451.76370402 0 -4508.54937706 0 13508.85605900 0 555
0.02450000 0.02439640 72202.80483717 0 -523.96699887 0 11799.36987337 0 9949.53568155 0 14846.12167504 0 592
0.02550000 0.02547300 72242.28949831 0 36.08365650 0 21197.93925532 0 2921.44345856 0 9129.56349117 0 837
0.02650000 0.02652900 70821.95081712 0 2492.44705180 0 11786.72590885 0 -3335.18946951 0 3778.99262420 0 723
0.02750000 0.02749970 68329.31521498 0 4648.93065683 0 18399.29752938 0 1910.73595426 0 16030.55059714 0 826
0.02850000 0.02848090 63779.04075500 0 3194.23144750 0 21559.84501174 0 -7874.08436142 0 4369.47685852 0 831
0.02950000 0.02946900 59248.06497771 0 2691.35657786 0 28578.24352861 0 2874.06186519 0 14145.82349973 0 996
0.03050000 0.03053250 57487.33746218 0 3961.70900272 0 28172.19480833 0 -1699.22682845 0 6570.55816649 0 1041
0.03150000 0.03150510 50784.81623440 0 2345.92124891 0 32047.01537416 0 404.29631116 0 6775.07983822 0 1036
0.03250000 0.03246190 51669.00645511 0 2216.78644284 0 35355.29759988 0 -1250.56572950 0 10893.30781227 0 1059
0.03350000 0.03345080 50696.97395457 0 -1116.67279994 0 33711.69312412 0 4311.46989849 0 4946.37437659 0 1302
0.03450000 0.03451200 50637.30331499 0 -130.11526788 0 31588.28346839 0 5974.65033686 0 6740.81913084 0 1339
0.03550000 0.03553350 52944.49410416 0 -579.98197994 0 26301.88626695 0 3929.10088370 0 6343.59900334 0 1365
0.03650000 0.03647120 53113.63485762 0 -539.74755389 0 29220.97839176 0 3264.58290974 0 8520.57914034 0 1308
0.03750000 0.03744890 54290.29994185 0 -289.58006112 0 26176.22300553 0 4787.18242679 0 9324.83510464 0 1579
0.03850000 0.03847530 52955.25256520 0 -795.35527876 0 21964.45187641 0 4399.23453994 0 10213.25107139 0 1662
0.03950000 0.03950240 53128.16432562 0 1991.46877684 0 22706.67477619 0 -1685.83975374 0 4956.72246334 0 1683
0.04050000 0.04050350 52930.74101994 0 2091.92174760 0 23477.73478803 0 -2791.07752963 0 7508.93997549 0 1822
0.04150000 0.04152450 47383.81160220 0 1615.85430099 0 24729.26545167 0 673.56395419 0 5018.56697753 0 1887
0.04250000 0.04250150 48552.15828872 0 771.77983052 0 28672.62961464 0 -328.43252403 0 2307.65661944 0 1920
0.04350000 0.04349210 46605.20957643 0 533.28693166 0 24163.61440731 0 1142.30455609 0 -2509.47203911 0 2005
0.04450000 0.04448520 46515.70361706 0 1003.63797537 0 25823.41203061 0 -760.05865359 0 -5514.38784590 0 2151
0.04550000 0.04548030 45493.09525843 0 321.53047217 0 19959.49620408 0 538.61514268 0 -2439.76386629 0 2274
0.04650000 0.04648670 44435.43871745 0 1060.31953737 0 24609.03687675 0 -441.86884994 0 -12500.33352049 0 2311
0.04750000 0.04749250 43419.15234108 0 1365.82544819 0 21734.08771580 0 -574.58500350 0 -9150.57021819 0 2568
0.04850000 0.04851840 40986.07646655 0 222.09123681 0 19307.77747140 0 3305.98634795 0 -10103.37058323 0 2493
0.04950000 0.04949480 40191.72494112 0 793.73263664 0 19419.35491270 0 1129.58295319 0 -8095.38701413 0 2644
0.05050000 0.05050630 39789.22540387 0 970.33222005 0 16871.59606173 0 2513.85306191 0 -9613.00658375 0 2829
0.05150000 0.05149060 38505.30844514 0 368.24215724 0 16173.29430187 0 3435.03242444 0 -7277.88816067 0 2784
0.05250000 0.05249300 37702.74943397 0 185.49028688 0 12533.60711134 0 2310.87306656 0 -3301.10622129 0 3055
0.05350000 0.05348950 37093.50998561 0 631.04141421 0 13090.71793405 0 1377.02755711 0 -2587.89789273 0 3009
0.05450000 0.05448610 36687.68308927 0 132.89139447 0 12293.14996150 0 1829.64821337 0 77.87329019 0 3336
0.05550000 0.05550870 35895.77162717 0 1129.74932115 0 10809.42508975 0 -715.86245199 0 -2441.28336027 0 3349
0.05650000 0.05647670 35669.95485730 0 340.11710002 0 12463.73257057 0 -401.43700058 0 -39.33548454 0 3324
0.05750000 0.05747970 34865.39943068 0 391.44826861 0 13099.70180358 0 70.67965076 0 -1739.53223816 0 3639
0.05850000 0.05849280 34372.61755027 0 559.13607527 0 13396.16949800 0 174.28928708 0 229.62548690 0 3846
0.05950000 0.05951020 33537.89406794 0 756.80893288 0 14213.14706521 0 -294.74301330 0 125.64773375 0 3787
0.06050000 0.06049470 33135.72726660 0 613.09253019 0 14233.00030775 0 1088.88713335 0 56.24623252 0 3930
0.06150000 0.06148310 32251.20430998 0 -637.70944181 0 12790.59014463 0 3116.94798716 0 905.17698358 0 4083
0.06250000 0.06249100 33370.30608206 0 -457.37877975 0 10988.62555885 0 1854.33721777 0 1982.03016824 0 4303
0.06350000 0.06350600 33188.41045211 0 -41.65598476 0 9192.94968173 0 1897.02723483 0 3795.99542912 0 4470
0.06450000 0.06451750 33146.70755158 0 822.35790685 0 10335.25423782 0 -826.66905510 0 1845.58626338 0 4479
0.06550000 0.06550280 32265.29013010 0 941.73135048 0 9522.22513673 0 -1821.28545087 0 3327.41454045 0 4636
0.06650000 0.06648880 30815.67068897 0 679.04522372 0 12009.21531963 0 94.94752242 0 365.60799796 0 4653
0.06750000 0.06749660 30729.71391262 0 820.24947031 0 12546.58381177 0 88.82096705 0 2695.07212884 0 5220
0.06850000 0.06852730 28538.98069141 0 897.69153476 0 12828.07839031 0 -24.98358660 0 3443.66137567 0 5029
0.06950000 0.06949320 28891.23710649 0 689.69499103 0 13861.22338604 0 938.52266720 0 3474.19544086 0 5040
0.07050000 0.07048030 27650.90855177 0 409.08438088 0 13694.85543182 0 891.09005433 0 4964.60830437 0 5475
0.07150000 0.07148790 27432.96653173 0 309.23588035 0 15222.88963537 0 370.66891113 0 5894.94899559 0 5509
0.07250000 0.07249820 27008.72824846 0 403.52769121 0 14402.91744499 0 1198.85856933 0 7637.24294179 0 5916
0.07350000 0.07351270 26822.61796367 0 17.02210360 0 13063.87723743 0 709.06354826 0 6836.08142143 0 5721
0.07450000 0.07449140 25899.49764167 0 534.62120266 0 13369.77244927 0 57.83992661 0 5699.22264304 0 6028
0.07550000 0.07549160 26129.52906638 0 469.59240583 0 13839.48464002 0 587.69590741 0 8339.77044769 0 6183
0.07650000 0.07648840 25741.00443728 0 244.63964021 0 13749.42412080 0 452.88795411 0 5902.44664472 0 6330
0.07750000 0.07749960 25249.66441248 0 -80.98980562 0 11406.85241337 0 1312.94262114 0 5472.48530383 0 6583
0.07850000 0.07848650 25103.81517261 0 476.45231114 0 12988.67892212 0 -677.98823265 0 2970.74382899 0 6549
0.07950000 0.07947320 24114.70222876 0 892.57627472 0 12006.33160842 0 -779.56030518 0 4339.46407958 0 6828
0.08050000 0.08048110 23292.17906308 0 33.87473372 0 11635.33107050 0 1213.51004050 0 2135.84288752 0 7147
0.08150000 0.08149960 23163.41026652 0 -429.95801354 0 9601.47173893 0 1685.57356501 0 2127.75740494 0 7386
0.08250000 0.08250610 24005.45393882 0 51.02338788 0 9922.70607614 0 876.18459476 0 -103.18218159 0 7227
0.08350000 0.08350160 23385.45602942 0 660.48299651 0 8919.54058576 0 -329.42962264 0 -665.97979371 0 7798
0.08450000 0.08449610 22173.63185086 0 527.86000900 0 9238.56777478 0 -931.82691160 0 566.29544290 0 7371
0.08550000 0.08548940 21927.62910254 0 230.68358709 0 8859.33756873 0 290.81562046 0 -1179.51552185 0 8256
0.08650000 0.08650700 21862.52377646 0 -74.79637033 0 9260.51725354 0 551.10937604 0 -655.48973964 0 8037
0.08750000 0.08749060 21586.68570836 0 232.67112958 0 8691.88267720 0 20.04090559 0 -2312.91384679 0 8155
0.08850000 0.08849210 21508.71459381 0 421.93685990 0 8766.18260556 0 -136.08233184 0 -677.42147249 0 8718
0.08950000 0.08949900 21064.17942013 0 93.59328727 0 9191.27491099 0 866.43210528 0 -574.65709628 0 8571
0.09050000 0.09049190 21337.02286505 0 -134.00938713 0 8216.61379677 0 1169.02324954 0 -324.41307426 0 8932
0.09150000 0.09150830 20819.84035136 0 405.89011616 0 7921.83196428 0 256.41072753 0 -208.62985107 0 9285
0.09250000 0.09250820 20292.23211253 0 525.05393617 0 7151.83670735 0 23.85117539 0 -18.28028899 0 9204
0.09350000 0.09350330 19900.04738844 0 160.19792136 0 7871.77739246 0 578.19629723 0 1589.74562338 0 9349
0.09450000 0.09448040 19416.91484938 0 259.87783569 0 7280.87169265 0 635.50340274 0 456.51033903 0 9564
0.09550000 0.09549270 19317.64863669 0 321.14006204 0 7334.44217391 0 588.73515257 0 1298.83461862 0 10155
0.09650000 0.09649430 18546.92136076 0 436.16686559 0 6743.54756529 0 -421.59525104 0 -5.78836259 0 9913
0.09750000 0.09749140 18011.21654816 0 613.39199250 0 7750.53951861 0 -758.38610109 0 1247.03872887 0 10476
0.09850000 0.09850240 17360.05237533 0 231.51209950 0 7044.67356244 0 -234.86164098 0 61.35849793 0 10575
0.09950000 0.09950330 17433.14336322 0 66.51679181 0 8436.71860021 0 857.35617882 0 1494.63860955 0 10882
0.10050000 0.10051200 16900.54408576 0 152.15902181 0 7323.60607449 0 -16.25692193 0 -573.81527443 0 10875
0.10150000 0.10150300 17281.30487700 0 324.92548756 0 7687.23096643 0 499.74826121 0 210.10830763 0 11118
0.10250000 0.10250800 16342.21323139 0 156.25278261 0 7544.12125221 0 145.16602214 0 1336.30068191 0 11575
0.10350000 0.10349800 16569.58276883 0 112.57232167 0 7459.21813957 0 640.91147037 0 906.23619289 0 11364
0.10450000 0.10450100 16237.73415614 0 -60.87203803 0 7124.08653259 0 614.29703417 0 1986.03409034 0 12093
0.10550000 0.10551000 16387.24349100 0 28.77089762 0 7033.17199120 0 836.94948555 0 1995.45051655 0 12067
0.10650000 0.10649700 16363.06468165 0 179.43560247 0 6142.03868120 0 506.06691611 0 2399.53609496 0 12054
0.10750000 0.10749900 16113.40183835 0 314.84248041 0 6804.70442526 0 -35.37315443 0 2584.59271604 0 12807
0.10850000 0.10850100 15681.73245312 0 140.67741473 0 6569.10521969 0 234.08192983 0 2966.29625901 0 12736
0.10950000 0.10950300 15352.87846361 0 121.20238201 0 6089.74368759 0 373.94525071 0 3224.79878629 0 12933
0.11050000 0.11050200 15357.64767830 0 54.35640348 0 5818.22009510 0 330.48439547 0 2615.13787244 0 13428
0.11150000 0.11150900 15144.91852083 0 330.94357102 0 5778.04777975 0 31.93887620 0 2522.68165468 0 13453
0.11250000 0.11250000 14614.53748276 0 274.47163264 0 6716.59595671 0 201.94075020 0 2510.57006761 0 13668
0.11350000 0.11349100 14423.43615935 0 344.80202161 0 5625.24435940 0 -198.45922347 0 2130.43038341 0 13791
0.11450000 0.11448600 14186.75001647 0 177.20738100 0 6405.39915273 0 -143.74967629 0 2390.25276311 0 14205
0.11550000 0.11549300 13889.17320235 0 115.24308189 0 6444.01870051 0 176.31675789 0 2296.96470558 0 14776
0.11650000 0.11649800 13870.98363936 0 118.35748999 0 6774.48091358 0 434.13384919 0 3007.22277575 0 14553
0.11750000 0.11747300 13915.23751518 0 -136.98959175 0 5967.86252432 0 86.27575917 0 2615.90316503 0 14568
0.11850000 0.11849100 14221.90911080 0 -160.66264251 0 6433.71497854 0 734.78847046 0 3168.14495228 0 16015
0.11950000 0.11950300 14108.22434208 0 5.70026522 0 5474.33753372 0 406.41029329 0 2475.48861166 0 15270
0.12050000 0.12050700 14163.90215076 0 144.95972587 0 6125.67916570 0 11.34207982 0 3437.17302545 0 15999
0.12150000 0.12150000 14057.87030793 0 99.55048006 0 4998.92446773 0 186.38423736 0 2948.90526220 0 15670
0.12250000 0.12250700 14001.52702744 0 119.49988328 0 5879.35477268 0 -3.79384374 0 2708.18192364 0 16887
0.12350000 0.12352200 13770.05374713 0 33.16301161 0 5033.28499588 0 -83.08659640 0 1358.56071419 0 16407
0.12450000 0.12449800 13687.20250592 0 398.54885290 0 5986.31827605 0 -822.38119836 0 1342.75575854 0 16306
0.12550000 0.12549900 13299.12152471 0 221.47123890 0 5726.50698753 0 -560.10988236 0 233.60722660 0 17523
0.12650000 0.12650100 12827.41291850 0 203.63770333 0 6182.89865076 0 -82.21205552 0 -150.32121048 0 17154
0.12750000 0.12750600 13049.45868140 0 20.29212120 0 5708.73889002 0 21.81793716 0 -767.65723262 0 18007
0.12850000 0.12850300 12917.02978984 0 -2.04379704 0 5649.81136064 0 681.99104563 0 -728.23911866 0 17496
0.12950000 0.12949900 12870.11402675 0 117.54672350 0 5691.07061328 0 171.17931546 0 -22.75957979 0 18405
0.13050000 0.13049000 12844.16062589 0 -127.00640537 0 4777.27798792 0 843.25483102 0 15.67552138 0 18100
0.13150000 0.13148800 12825.86015092 0 -30.98425688 0 5254.56546619 0 444.44533499 0 814.16151230 0 19059
0.13250000 0.13249300 12824.30738335 0 220.76140230 0 4322.98256092 0 -75.17391468 0 210.78265240 0 18957
0.13350000 0.13349100 12798.68671840 0 64.71746693 0 5243.18589812 0 358.10258499 0 887.02069417 0 19468
0.13450000 0.13450700 12568.76620566 0 131.29426211 0 4375.56592565 0 -164.94606277 0 1003.90749145 0 19953
0.13550000 0.13551000 12362.35903046 0 104.83987189 0 4948.81443992 0 502.78392182 0 1555.69564875 0 19956
0.13650000 0.13649900 12224.16271648 0 50.52705682 0 4498.00164876 0 224.22851046 0 1044.35597760 0 19723
0.13750000 0.13749600 12239.57948024 0 132.18266699 0 4363.55415935 0 406.93601603 0 1444.35112258 0 20946
0.13850000 0.13851100 12032.28500928 0 80.58042954 0 4257.30049259 0 108.59268929 0 1637.22703751 0 20955
0.13950000 0.13949800 11885.21573775 0 174.41683585 0 3903.86841064 0 -39.59801317 0 1331.74219997 0 20506
0.14050000 0.14048300 11740.14288166 0 165.24774333 0 4147.99674667 0 -40.91708922 0 1426.22810677 0 21447
0.14150000 0.14148400 11527.08098829 0 -20.58492880 0 3924.46476337 0 5.41489981 0 613.55059662 0 21771
0.14250000 0.14249400 11510.44419287 0 151.20185152 0 4146.42179670 0 -184.67841127 0 977.16217913 0 22470
0.14350000 0.14350900 11361.71124179 0 185.31948245 0 4021.12454478 0 -148.41907020 0 376.40527819 0 22519
0.14450000 0.14449900 11157.18957006 0 266.68672150 0 4446.16139422 0 -92.97351119 0 606.71509194 0 22218
0.14550000 0.14550500 10869.81665714 0 135.73739561 0 4313.90996181 0 34.95046891 0 232.23302730 0 23559
0.14650000 0.14650700 10844.67291365 0 20.51738341 0 4723.18622040 0 213.89816963 0 549.17285305 0 23044
0.14750000 0.14750500 10665.19516464 0 111.28019722 0 4081.33865301 0 284.97499615 0 511.33190731 0 23649
0.14850000 0.14849900 10707.44153381 0 82.46914947 0 4181.83598855 0 206.66781833 0 477.71005288 0 23640
0.14950000 0.14949500 10444.31397741 0 161.06081648 0 3961.74227631 0 91.83433435 0 636.20325727 0 24457
0.15050000 0.15050000 10279.69843231 0 142.71264937 0 4185.11898285 0 106.55390547 0 580.38348127 0 24591
0.15150000 0.15149900 10000.66609949 0 205.82821473 0 3946.20350939 0 -53.92129582 0 373.74893652 0 25020
0.15250000 0.15250500 9896.78594887 0 142.10817914 0 3964.35979879 0 -100.85824310 0 311.90220410 0 25297
0.15350000 0.15350100 9692.00917961 0 92.96907471 0 4065.93298045 0 -63.70051508 0 -47.92217830 0 25452
0.15450000 0.15450400 9586.74262938 0 165.62373491 0 4310.52714675 0 -222.21434910 0 -126.71027042 0 26061
0.15550000 0.15549900 9388.63166949 0 137.33230973 0 3927.23756261 0 -73.47230324 0 -637.63734903 0 26128
0.15650000 0.15649500 9354.88115718 0 -2.43211094 0 4376.69722774 0 268.95487128 0 -524.08234732 0 26331
0.15750000 0.15749700 9389.36368849 0 -72.02745301 0 3578.03122669 0 384.37652144 0 -900.18372671 0 27345
0.15850000 0.15849900 9417.87915584 0 28.12516813 0 3839.05145567 0 186.58498802 0 -377.83382436 0 26980
0.15950000 0.15949700 9300.94466642 0 92.32489799 0 3484.06660615 0 58.83647066 0 -395.49544638 0 27777
0.16050000 0.16050000 9160.13082996 0 241.56516041 0 3680.91316959 0 -90.04931711 0 -168.62501280 0 28224
0.16150000 0.16150500 8940.41421842 0 132.13053836 0 3578.77433689 0 89.01118108 0 -252.16501734 0 28075
0.16250000 0.16249700 8855.92148007 0 -85.64300639 0 3411.21962459 0 493.70023152 0 -141.81315330 0 28590
0.16350000 0.16349900 8981.06345523 0 -18.19300127 0 3157.04266413 0 421.60412399 0 258.10546242 0 29163
0.16450000 0.16449100 9022.15633993 0 -18.19366674 0 2588.78518849 0 541.08071576 0 526.63997733 0 28996
0.16550000 0.16550500 8907.88373777 0 -2.95060222 0 2353.67399558 0 272.78022510 0 655.44870221 0 30777
0.16650000 0.16650700 8883.84911398 0 171.69283788 0 2202.45661639 0 78.46212183 0 701.99512844 0 29211
0.16750000 0.16749900 8526.70148105 0 228.06384637 0 2182.32609393 0 -113.05257049 0 952.43879201 0 30922
0.16850000 0.16850800 8402.90154072 0 156.60104619 0 2334.87441675 0 -58.04167549 0 662.65465287 0 30867
0.16950000 0.16949900 8198.41314258 0 111.20034060 0 2519.43193397 0 -106.52773024 0 603.04945135 0 30852
0.17050000 0.17049200 8145.53031553 0 -7.86380282 0 2170.31432763 0 13.64860514 0 229.76634510 0 31257
0.17150000 0.17149500 8151.80793300 0 -35.47064605 0 2376.68822925 0 171.53977936 0 472.37075067 0 32608
0.17250000 0.17250900 8255.65481003 0 -56.88830192 0 1940.07217018 0 238.90105491 0 176.92899196 0 32361
0.17350000 0.17350400 8367.33207210 0 17.92037965 0 1906.36602266 0 84.77512023 0 204.60818306 0 32508
0.17450000 0.17449800 8249.80974924 0 116.85796017 0 1798.09375805 0 -39.54843552 0 299.21276567 0 32791
0.17550000 0.17549800 8251.67307033 0 18.16771334 0 1852.52935267 0 0.97966213 0 287.50046169 0 33633
0.17650000 0.17650100 8066.22825735 0 91.97874173 0 1945.26285035 0 111.31236169 0 282.76230236 0 33984
0.17750000 0.17750300 8054.88196287 0 105.74901730 0 1914.99497388 0 9.33622576 0 249.39998194 0 34069
0.17850000 0.17849800 7929.68453172 0 106.38254647 0 1769.41192274 0 -6.10080161 0 266.00017641 0 34536
