### header ###
fiducial parameters:
Omega_m = 0.31
Omega_nu = 0
Omega_de = 0.69
Omega_k = 0
H_0 = 100
w_de = -1
zeff = 0
beta = 0
fgrowth = 0
b_1 = 2
gamma = 0.55
Lx = 3500 Ly = 3500 Lz = 3500
nx = 700 ny = 700 nz = 700
xoffset = 1379.75464 yoffset = 22.6059522 zoffset = 368.141391
bins = 400 dk = 0.001
kx_ny = 0.628318531 ky_ny = 0.628318531 kz_ny = 0.628318531
############################
A(data) = 3.32215949 (not used)
A(ran) = 3.32297423 (used)
Ngal = 186920
weighted Ngal = 0
Nran = 9399747
weighted Nran = 0
SN(data) = 6647.18466
SN(ran) = 132.172572
SN(data+ran) = 6779.35723
############################
13 columns: k_central k_mean P_0(k) sigma^{lin}_{P_0(k)} P^img_1(k) sigma^{lin}_{P_1(k)} P_2(k) sigma^{lin}_{P_2(k)} P^img_3(k) sigma^{lin}_{P_3(k)} P_4(k) sigma^{lin}_{P_4(k)} N_modes
### header ###
0.00050000 0 0 0 0 0 0 0 0 0 0 0 0
0.00150000 0.00179520 67826.66216928 0 -46027.13639149 0 -81082.19528998 0 80181.47918582 0 -37112.25410845 0 3
0.00250000 0.00253879 126368.66154927 0 -46569.38501029 0 -49596.50539337 0 -41725.08291921 0 60332.00765546 0 6
0.00350000 0.00331552 147067.05329404 0 -36677.59010005 0 -64631.84288835 0 -62188.23037671 0 -4608.05959608 0 7
0.00450000 0.00420575 164664.34637209 0 -18510.87497068 0 -63482.90579648 0 -56777.27903355 0 16480.18772142 0 24
0.00550000 0.00557378 158937.96138772 0 14906.34687447 0 -56191.88565863 0 -72861.28919999 0 -14862.42573456 0 45
0.00650000 0.00659388 150474.26899654 0 20745.19659589 0 -96.26914945 0 -58737.86991809 0 -21845.44333316 0 40
0.00750000 0.00754703 113052.57049323 0 19514.85011843 0 6601.31405563 0 -12949.08334902 0 -5369.69209051 0 57
0.00850000 0.00846663 96543.21292383 0 15990.40046419 0 29082.44934187 0 -10487.60291910 0 -25526.38977633 0 75
0.00950000 0.00948925 79196.69180878 0 8799.22328127 0 23168.51221711 0 -30.18923989 0 -16677.72193907 0 112
0.01050000 0.01054430 68257.00061087 0 8247.93533695 0 45665.00881113 0 19305.00467217 0 14402.91744499 0 105
0.01150000 0.01145670 65128.95033557 0 4926.42131328 0 27558.07523331 0 11157.74412991 0 -3310.04572603 0 144
0.01250000 0.01249090 60268.89874482 0 -627.56986956 0 29906.52527513 0 18859.69311470 0 10499.31522308 0 169
0.01350000 0.01339930 68343.06829919 0 -6341.55822310 0 23050.72370552 0 16270.56409910 0 15686.83440372 0 180
0.01450000 0.01448870 73522.65727401 0 -4246.53094035 0 14837.91418930 0 9336.39213186 0 16184.38549882 0 267
0.01550000 0.01550050 79021.56180897 0 4132.64653009 0 20616.20597539 0 -7701.77152563 0 6924.85536180 0 238
0.01650000 0.01653350 71705.36465405 0 4157.18025774 0 22585.55890551 0 4874.18177565 0 17048.50065305 0 315
0.01750000 0.01747870 71381.16896725 0 -1269.63149706 0 23043.18169160 0 15017.03702002 0 24447.10540130 0 297
0.01850000 0.01844180 75463.83856389 0 -7080.62013175 0 11643.31673231 0 11243.58999429 0 25498.88360790 0 388
0.01950000 0.01947590 83920.21076509 0 325.20609484 0 10639.38594934 0 1491.42216243 0 1905.38999733 0 399
0.02050000 0.02045430 77541.99613608 0 8855.00091072 0 21067.95042709 0 -18970.38326024 0 11206.21266058 0 462
0.02150000 0.02154770 63766.39679048 0 8393.27438176 0 31725.81431054 0 -9720.08099909 0 16032.43610063 0 571
0.02250000 0.02255340 59354.98411629 0 3413.43786398 0 39457.59861512 0 4007.10527183 0 3341.63345494 0 510
0.02350000 0.02348930 61488.04311337 0 -4061.68505201 0 33306.08805173 0 16241.94881098 0 1054.85712287 0 555
0.02450000 0.02439640 60590.54345632 0 -778.76617548 0 31753.76412685 0 10964.29147274 0 -3357.50495777 0 592
0.02550000 0.02547300 65441.38935360 0 -86.03441473 0 22055.62151533 0 1253.16106959 0 9271.45317373 0 837
0.02650000 0.02652900 58779.46190665 0 2167.51934600 0 20556.75715974 0 1657.42410715 0 3978.87817560 0 723
0.02750000 0.02749970 57479.35180038 0 2153.52225545 0 20244.31814171 0 19.34404569 0 3266.69023716 0 826
0.02850000 0.02848090 56070.99161189 0 968.37240555 0 20272.93342984 0 -804.78057792 0 -1729.63889048 0 831
0.02950000 0.02946900 54503.91639508 0 2575.56448173 0 22901.76893051 0 -3063.27768513 0 -5310.18781889 0 996
0.03050000 0.03053250 51856.44768354 0 2825.07204827 0 26506.07520277 0 -4914.19881424 0 -6233.56323842 0 1041
0.03150000 0.03150510 49041.16916217 0 1409.46930818 0 25000.88886493 0 -2262.47108307 0 -11295.49679601 0 1036
0.03250000 0.03246190 45919.10813321 0 899.49496338 0 26896.70715929 0 3778.01659887 0 -1352.50492065 0 1059
0.03350000 0.03345080 48771.54216436 0 -2216.29843018 0 18806.45536935 0 8122.52717306 0 -13168.91087253 0 1302
0.03450000 0.03451200 51407.36511910 0 -2085.21157345 0 17896.97721959 0 6012.26058571 0 -3553.22021912 0 1339
0.03550000 0.03553350 51915.34193933 0 954.85334559 0 12349.27141806 0 3118.27893080 0 -7424.92415861 0 1365
0.03650000 0.03647120 49465.40744544 0 951.44945725 0 12117.24357790 0 -1186.62497910 0 213.95473473 0 1308
0.03750000 0.03744890 47951.23723807 0 1573.68557020 0 12555.90041720 0 -136.09896863 0 623.77113461 0 1579
0.03850000 0.03847530 46060.63180627 0 1123.69352761 0 12215.51158286 0 -1145.13281131 0 -5208.08225978 0 1662
0.03950000 0.03950240 44871.54458145 0 1321.52720758 0 14587.58587418 0 -2519.90885544 0 -3614.23289353 0 1683
0.04050000 0.04050350 43309.90405114 0 662.42950157 0 16332.67480201 0 -1405.15483257 0 -7202.37929184 0 1822
0.04150000 0.04152450 44251.54667205 0 394.31534302 0 16675.28187574 0 -151.36378299 0 -4151.46829131 0 1887
0.04250000 0.04250150 44667.35564564 0 -352.04235497 0 18102.60801101 0 -610.14449004 0 -6767.02762923 0 1920
0.04350000 0.04349210 43910.71418983 0 -715.72603027 0 17769.09571878 0 3028.87279220 0 -9092.98472364 0 2005
0.04450000 0.04448520 45188.42007827 0 1803.76135969 0 19875.53584318 0 -2674.67541765 0 -8094.23352965 0 2151
0.04550000 0.04548030 43808.89700185 0 1390.18171669 0 18564.66727587 0 -3871.49320675 0 -7759.23501702 0 2274
0.04650000 0.04648670 40809.06096326 0 2120.07120546 0 25245.22793370 0 1264.50736407 0 -4491.40238658 0 2311
0.04750000 0.04749250 41204.46213446 0 323.56127033 0 24078.10127884 0 -410.28223015 0 -4289.15441023 0 2568
0.04850000 0.04851840 40806.39907599 0 -1242.71316206 0 22312.27181271 0 5701.25233208 0 -4445.27409847 0 2493
0.04950000 0.04949480 41734.73226056 0 37.57475702 0 21536.99714603 0 2938.56826664 0 -2503.95971423 0 2644
0.05050000 0.05050630 40544.20318014 0 1346.07202642 0 18766.85979624 0 449.30438837 0 2006.96317898 0 2829
0.05150000 0.05149060 39994.85619529 0 895.63522684 0 22973.30715082 0 -341.31162193 0 1708.92053459 0 2784
0.05250000 0.05249300 38354.68999059 0 829.82117327 0 22204.90902625 0 930.64902649 0 1939.51761034 0 3055
0.05350000 0.05348950 37649.17895271 0 1092.68919566 0 21160.34009767 0 1439.27135438 0 -581.47263681 0 3009
0.05450000 0.05448610 37243.79570425 0 -10.23064207 0 21004.73060448 0 1034.38942802 0 3752.00774202 0 3336
0.05550000 0.05550870 35395.78046874 0 1133.74215205 0 22010.25851981 0 992.94051591 0 2480.51292388 0 3349
0.05650000 0.05647670 35115.61683383 0 894.48285148 0 21691.71934346 0 1183.77454148 0 3243.93110102 0 3324
0.05750000 0.05747970 34477.09662552 0 598.85254242 0 19355.91326616 0 725.91994938 0 504.51414854 0 3639
0.05850000 0.05849280 32639.83985105 0 497.75184576 0 20771.81546857 0 402.83781876 0 1392.57741523 0 3846
0.05950000 0.05951020 32958.04629149 0 288.77484022 0 20153.81397462 0 2072.53433534 0 4766.90771877 0 3787
0.06050000 0.06049470 31997.77045971 0 -59.39391422 0 17672.71321730 0 2388.25634766 0 2395.42126089 0 3930
0.06150000 0.06148310 32887.17354299 0 -179.57313331 0 15536.77050901 0 3362.19653408 0 3084.12913539 0 4083
0.06250000 0.06249100 32033.26228995 0 12.58362841 0 12819.20543276 0 2313.63477460 0 738.41085538 0 4303
0.06350000 0.06350600 32137.40862929 0 268.30270890 0 12227.71189951 0 1326.58479339 0 7200.49378836 0 4470
0.06450000 0.06451750 30411.39656021 0 664.25954907 0 11227.28593478 0 -655.16920405 0 2529.64692636 0 4479
0.06550000 0.06550280 30255.67615506 0 899.89757383 0 12310.11949283 0 353.32338822 0 3655.69178773 0 4636
0.06650000 0.06648880 29306.04787235 0 729.04877604 0 9558.16061484 0 -826.27975409 0 1224.70105822 0 4653
0.06750000 0.06749660 28019.80176226 0 765.30368062 0 12751.10548349 0 -635.56551344 0 2067.25492559 0 5220
0.06850000 0.06852730 27510.27217446 0 362.25291088 0 10810.20147354 0 1385.88942347 0 457.35770648 0 5029
0.06950000 0.06949320 27778.45731667 0 -547.40380714 0 11113.71207803 0 1964.71680980 0 1377.40465780 0 5040
0.07050000 0.07048030 27712.46469483 0 -444.08265285 0 8326.56083212 0 1824.96772825 0 -327.03725145 0 5475
0.07150000 0.07148790 28086.57076789 0 778.36911063 0 9056.11758498 0 -776.38711373 0 -1100.70924018 0 5509
0.07250000 0.07249820 27222.23378972 0 372.12296705 0 7113.66080745 0 105.16794949 0 1078.03217890 0 5916
0.07350000 0.07351270 26374.31178303 0 463.01754428 0 8672.98327760 0 -599.46588562 0 -55.56390209 0 5721
0.07450000 0.07449140 26383.73930043 0 -246.03269454 0 7302.13351720 0 1347.20332851 0 -371.85345096 0 6028
0.07550000 0.07549160 26271.82912322 0 79.64189245 0 8264.06193732 0 1005.96601761 0 -1121.96330089 0 6183
0.07650000 0.07648840 26130.97092198 0 458.66535860 0 5742.36739917 0 -620.20420567 0 -1168.21359216 0 6330
0.07750000 0.07749960 24954.19492578 0 432.36702151 0 7689.82630652 0 405.18471603 0 -497.35478091 0 6583
0.07850000 0.07848650 25162.59851643 0 467.80117752 0 6264.74059304 0 551.61624374 0 -131.87987731 0 6549
0.07950000 0.07947320 24203.98636420 0 -286.32812218 0 5902.22482078 0 1273.29159205 0 611.87693500 0 6828
0.08050000 0.08048110 24540.71510355 0 -115.48708822 0 3974.91861829 0 1871.21801953 0 214.41723764 0 7147
0.08150000 0.08149960 24741.24394437 0 29.56225452 0 3342.15474120 0 1274.21216140 0 1807.02217159 0 7386
0.08250000 0.08250610 24323.21673139 0 520.16715479 0 2817.64094632 0 -423.16354629 0 -294.45242394 0 7227
0.08350000 0.08350160 23560.03146938 0 1018.56450822 0 2706.77334162 0 -847.12344051 0 1858.24131910 0 7798
0.08450000 0.08449610 21553.85576539 0 946.97194104 0 6132.56679901 0 -1658.72177720 0 965.57742392 0 7371
0.08550000 0.08548940 21079.92891979 0 579.96090666 0 4509.33685204 0 -225.95208247 0 -178.26326295 0 8256
0.08650000 0.08650700 20805.31088335 0 324.32323556 0 6910.79172407 0 107.11656189 0 682.47905829 0 8037
0.08750000 0.08749060 20471.13311930 0 3.41905001 0 5526.86544247 0 176.34781324 0 -463.51997550 0 8155
0.08850000 0.08849210 20327.05847095 0 -15.80307015 0 6547.90994232 0 900.00737668 0 1286.47902522 0 8718
0.08950000 0.08949900 20671.77287210 0 -125.78859195 0 5713.18646000 0 -201.04458148 0 -297.49030278 0 8571
0.09050000 0.09049190 20579.71593743 0 123.14112324 0 6589.51302207 0 -282.22216107 0 1460.96573561 0 8932
0.09150000 0.09150830 20643.82305579 0 509.99209071 0 6856.51140621 0 -642.69604396 0 -121.46524338 0 9285
0.09250000 0.09250820 20159.69230900 0 162.76775169 0 7715.23623873 0 -78.05063843 0 -25.69242499 0 9204
0.09350000 0.09350330 19949.73595077 0 135.30705717 0 7390.60799525 0 142.27343797 0 -100.29214840 0 9349
0.09450000 0.09448040 19730.90663498 0 196.47500834 0 7661.43284233 0 471.28048601 0 -22.72064968 0 9564
0.09550000 0.09549270 19071.75680035 0 689.21806956 0 7032.05178031 0 -9.57354411 0 313.00023260 0 10155
0.09650000 0.09649430 18659.27518584 0 531.90275029 0 8127.75112682 0 25.85868204 0 745.72660889 0 9913
0.09750000 0.09749140 17639.43962645 0 414.89949544 0 7579.93472716 0 198.05550390 0 880.70758487 0 10476
0.09850000 0.09850240 17318.23856283 0 490.29856141 0 7572.10434211 0 -46.32781874 0 -445.67978521 0 10575
0.09950000 0.09950330 16604.29821528 0 508.87631630 0 8168.65546117 0 -278.16500122 0 405.76034915 0 10882
0.10050000 0.10051200 16173.07247793 0 271.02337951 0 8351.34965730 0 -108.65990194 0 401.33274333 0 10875
0.10150000 0.10150300 15524.79201631 0 112.18967537 0 7390.98509595 0 541.58425610 0 -234.66754503 0 11118
0.10250000 0.10250800 15617.62533476 0 -18.70974013 0 7728.57894866 0 392.34665556 0 -199.80014918 0 11575
0.10350000 0.10349800 15319.60487276 0 291.29032369 0 6575.26083400 0 524.41397411 0 -1417.59915554 0 11364
0.10450000 0.10450100 15049.20149117 0 199.42748497 0 6652.73284468 0 509.37098368 0 101.34692123 0 12093
0.10550000 0.10551000 14897.80665282 0 100.93654695 0 6156.24650449 0 505.99371421 0 -871.31223194 0 12067
0.10650000 0.10649700 14588.47316994 0 156.19732662 0 5906.65020837 0 505.24062194 0 233.62719076 0 12054
0.10750000 0.10749900 14047.66640674 0 232.16537100 0 5438.80133870 0 196.84101784 0 593.15166719 0 12807
0.10850000 0.10850100 13981.89560884 0 12.31732877 0 5199.00966068 0 678.01041504 0 502.22381637 0 12736
0.10950000 0.10950300 14160.35296773 0 -92.91838794 0 4858.24372564 0 777.01265724 0 985.75674765 0 12933
0.11050000 0.11050200 14367.53652673 0 10.14166849 0 4470.42893315 0 90.34944490 0 465.99663978 0 13428
0.11150000 0.11150900 13919.34125805 0 213.51330509 0 4981.06764064 0 -108.33581717 0 1549.30711930 0 13453
0.11250000 0.11250000 13878.74747722 0 146.46480130 0 4333.33064767 0 -311.53397636 0 1330.34470915 0 13668
0.11350000 0.11349100 13999.30878805 0 -224.90729172 0 4992.84649180 0 619.65740966 0 1585.98570761 0 13791
0.11450000 0.11448600 14205.71596325 0 -173.24449633 0 4461.26760447 0 582.52297316 0 1082.22908782 0 14205
0.11550000 0.11549300 14332.04469649 0 210.11828971 0 4516.30212373 0 221.24830584 0 2246.84358657 0 14776
0.11650000 0.11649800 13964.70425357 0 203.97487572 0 4222.08594228 0 63.84214967 0 2386.52612094 0 14553
0.11750000 0.11747300 13824.84426005 0 -11.34540718 0 4263.67793084 0 47.82557398 0 1771.76325649 0 14568
0.11850000 0.11849100 13738.55474779 0 425.80768764 0 4728.26598860 0 -341.63104840 0 2204.39757585 0 16015
0.11950000 0.11950300 13311.32184135 0 185.78420360 0 4996.87259629 0 -418.27898315 0 1778.67307219 0 15270
0.12050000 0.12050700 13359.56854807 0 -96.30441945 0 4923.02740701 0 265.29699452 0 1573.03118958 0 15999
0.12150000 0.12150000 13403.82242390 0 -36.09463679 0 4925.93330061 0 210.12161706 0 1159.12990186 0 15670
0.12250000 0.12250700 13559.87556496 0 96.57437919 0 4466.19209591 0 90.10055844 0 804.57649990 0 16887
0.12350000 0.12352200 13343.37540053 0 66.10031736 0 4944.54432909 0 105.80890977 0 1419.50684142 0 16407
0.12450000 0.12449800 13239.78362103 0 142.11705210 0 4311.38116891 0 -296.53645985 0 934.43223377 0 16306
0.12550000 0.12549900 13257.97318403 0 82.86754526 0 4677.64576573 0 368.81446300 0 569.99435708 0 17523
0.12650000 0.12650100 13027.71993538 0 -0.66001384 0 4400.12183569 0 512.01734328 0 1398.48902320 0 17154
0.12750000 0.12750600 13123.88061292 0 9.44696027 0 3967.07714205 0 535.47744306 0 1031.82625241 0 18007
0.12850000 0.12850300 12906.82588865 0 224.54793693 0 4236.70413986 0 137.73935666 0 1668.06056503 0 17496
0.12950000 0.12949900 12810.88703504 0 90.00206861 0 3365.19115726 0 181.47305535 0 1371.74814736 0 18405
0.13050000 0.13049000 12518.74490743 0 82.63274462 0 4202.66525642 0 224.67215834 0 1974.00014165 0 18100
0.13150000 0.13148800 12370.12286832 0 221.73410027 0 3193.49942850 0 -191.76901347 0 1342.86667051 0 19059
0.13250000 0.13249300 12201.53667471 0 176.86133566 0 3833.11766531 0 29.36982225 0 1097.71018052 0 18957
0.13350000 0.13349100 12017.09006946 0 86.82322065 0 3142.45774014 0 58.12996141 0 978.66503632 0 19468
0.13450000 0.13450700 11955.75575034 0 62.76852180 0 3605.82576625 0 117.13191273 0 608.57286743 0 19953
0.13550000 0.13551000 11783.28763779 0 112.85071071 0 3314.27147207 0 -24.97926103 0 533.65183204 0 19956
0.13650000 0.13649900 11549.92885400 0 111.53973123 0 2818.30641813 0 14.05443204 0 396.94950230 0 19723
0.13750000 0.13749600 11604.60845496 0 22.28842574 0 3007.74406201 0 188.13997383 0 -144.73568370 0 20946
0.13850000 0.13851100 11545.38146325 0 78.43428293 0 3062.87840204 0 240.13106865 0 677.55456685 0 20955
0.13950000 0.13949800 11366.36954451 0 26.09292812 0 2818.32860053 0 115.87417100 0 24.16028705 0 20506
0.14050000 0.14048300 11594.29364179 0 -15.69648375 0 2932.00227805 0 127.30697681 0 1042.70338926 0 21447
0.14150000 0.14148400 11336.53422472 0 164.71869324 0 2850.59289245 0 65.14902540 0 656.31936117 0 21771
0.14250000 0.14249400 11351.84007651 0 207.93665127 0 3316.35661709 0 -185.28620886 0 1142.04945856 0 22470
0.14350000 0.14350900 11117.26126105 0 185.50026896 0 3314.65966396 0 -25.19454116 0 1660.85128701 0 22519
0.14450000 0.14449900 10823.49981868 0 92.86792299 0 3512.26042879 0 187.21385889 0 1448.35504468 0 22218
0.14550000 0.14550500 10957.72548415 0 44.84137653 0 3340.38014968 0 236.36560728 0 1446.65809155 0 23559
0.14650000 0.14650700 10630.85681889 0 173.04374567 0 3149.45628542 0 -9.15975373 0 727.88863684 0 23044
0.14750000 0.14750500 10450.50286531 0 199.41195729 0 2999.23711395 0 -46.81050763 0 1287.58814492 0 23649
0.14850000 0.14849900 10226.17231584 0 183.99297529 0 2863.80250802 0 -232.19531723 0 520.61967563 0 23640
0.14950000 0.14949500 9903.52939661 0 174.13511945 0 2985.67258008 0 129.31781082 0 290.81340222 0 24457
0.15050000 0.15050000 9583.17126396 0 272.78466158 0 2814.82378229 0 -119.37233451 0 -220.73921990 0 24591
0.15150000 0.15149900 9297.34002741 0 129.03054882 0 2758.86869369 0 84.66487373 0 -42.27143528 0 25020
0.15250000 0.15250500 9253.36343151 0 -90.02436192 0 2425.38967505 0 607.52142196 0 -153.50438400 0 25297
0.15350000 0.15350100 9342.95812046 0 -63.84070781 0 2343.02644651 0 227.44273934 0 -189.57628384 0 25452
0.15450000 0.15450400 9386.40233890 0 16.09377042 0 1829.84785491 0 111.57633218 0 -371.96658117 0 26061
0.15550000 0.15549900 9395.92967708 0 2.54751484 0 1742.98160041 0 -37.47349439 0 -279.12328064 0 26128
0.15650000 0.15649500 9427.89450669 0 31.28072458 0 1778.40688347 0 -153.37905348 0 -507.03850497 0 26331
0.15750000 0.15749700 9271.63063288 0 135.78508776 0 1939.37342478 0 -83.43253084 0 -919.46355437 0 27345
0.15850000 0.15849900 9246.16524469 0 140.76614431 0 2000.25300482 0 6.25381576 0 -103.31982335 0 26980
0.15950000 0.15949700 9028.68905493 0 22.06205441 0 1729.39488415 0 171.64181837 0 -607.29072506 0 27777
0.16050000 0.16050000 9153.44283820 0 -87.23925145 0 1755.12646107 0 623.93195696 0 -240.29854572 0 28224
0.16150000 0.16150500 9194.34717255 0 -44.20352179 0 1353.63622274 0 165.68140913 0 -266.02568616 0 28075
0.16250000 0.16249700 9175.40340816 0 64.40125690 0 744.51212283 0 268.22728876 0 66.82279793 0 28590
0.16350000 0.16349900 9177.16690847 0 16.03332340 0 1190.91727232 0 -109.55917619 0 174.11626441 0 29163
0.16450000 0.16449100 8974.41982826 0 257.31466008 0 916.69851897 0 -328.49019825 0 -523.28489026 0 28996
0.16550000 0.16550500 8770.61908434 0 207.40205557 0 1384.25901752 0 -93.31234725 0 51.10268994 0 30777
0.16650000 0.16650700 8404.39885230 0 131.85547668 0 1361.26696624 0 -26.90069999 0 -380.93825038 0 29211
0.16750000 0.16749900 8344.60620956 0 210.27689382 0 1594.61465884 0 -41.11484526 0 232.11324237 0 30922
0.16850000 0.16850800 8095.30937575 0 99.80945951 0 1425.38517580 0 309.74829365 0 48.92271518 0 30867
0.16950000 0.16949900 7870.83464072 0 184.32349296 0 1662.71460810 0 -35.27566281 0 467.23774472 0 30852
0.17050000 0.17049200 7801.35938303 0 107.75131109 0 1450.47346330 0 -145.66845336 0 558.08684804 0 31257
0.17150000 0.17149500 7735.76604428 0 74.53217802 0 1724.83640221 0 75.36723424 0 11.46707761 0 32608
0.17250000 0.17250900 7673.71079735 0 65.68994308 0 1888.73101951 0 -391.47710572 0 603.85134489 0 32361
0.17350000 0.17350400 7701.92680239 0 -39.29866176 0 1781.11313552 0 -98.86360224 0 -514.56388210 0 32508
0.17450000 0.17449800 7775.43925576 0 -106.75920352 0 1920.48511637 0 124.49868574 0 0.98387790 0 32791
0.17550000 0.17549800 7947.77427395 0 -60.89444225 0 1589.76780577 0 24.49379934 0 -946.44954566 0 33633
0.17650000 0.17650100 8033.91960064 0 23.43802830 0 1776.73211273 0 -26.08671705 0 -381.83552822 0 33984
0.17750000 0.17750300 7985.00742210 0 63.30988312 0 1801.32129636 0 179.97130728 0 -347.27092205 0 34069
0.17850000 0.17849800 7969.14701046 0 113.52061900 0 1860.33755532 0 -9.56237527 0 -47.82435394 0 34536
