### header ###
fiducial parameters:
Omega_m = 0.31
Omega_nu = 0
Omega_de = 0.69
Omega_k = 0
H_0 = 100
w_de = -1
zeff = 0
beta = 0
fgrowth = 0
b_1 = 2
gamma = 0.55
Lx = 3500 Ly = 3500 Lz = 3500
nx = 700 ny = 700 nz = 700
xoffset = 1379.75464 yoffset = 22.6059522 zoffset = 368.141391
bins = 400 dk = 0.001
kx_ny = 0.628318531 ky_ny = 0.628318531 kz_ny = 0.628318531
############################
A(data) = 3.36217552 (not used)
A(ran) = 3.35931226 (used)
Ngal = 188473
weighted Ngal = 0
Nran = 9399747
weighted Nran = 0
SN(data) = 6618.7727
SN(ran) = 133.617931
SN(data+ran) = 6752.39063
############################
13 columns: k_central k_mean P_0(k) sigma^{lin}_{P_0(k)} P^img_1(k) sigma^{lin}_{P_1(k)} P_2(k) sigma^{lin}_{P_2(k)} P^img_3(k) sigma^{lin}_{P_3(k)} P_4(k) sigma^{lin}_{P_4(k)} N_modes
### header ###
0.00050000 0 0 0 0 0 0 0 0 0 0 0 0
0.00150000 0.00179520 14246.97521590 0 -19344.04568543 0 -16283.54079953 0 5189.91487918 0 20989.64657663 0 3
0.00250000 0.00253879 31659.26712885 0 -21182.85522747 0 -20002.75187218 0 -14487.32145377 0 7118.09728623 0 6
0.00350000 0.00331552 46961.56973438 0 -17903.52102579 0 -32965.03374557 0 -10928.50018019 0 -11464.52663750 0 7
0.00450000 0.00420575 62787.93139570 0 -13895.60609658 0 -41217.88248277 0 -16716.20839248 0 15479.09628488 0 24
0.00550000 0.00557378 72931.60738864 0 -5292.33099180 0 -43975.81951592 0 -20572.39574744 0 5853.65646935 0 45
0.00650000 0.00659388 80849.61288998 0 -451.11225348 0 -29062.04153949 0 -8564.78865137 0 -14675.98271386 0 40
0.00750000 0.00754703 72811.26790175 0 -903.55101411 0 -25920.01635603 0 -12058.46023408 0 -22250.16110980 0 57
0.00850000 0.00846663 68554.02286515 0 9721.05702442 0 -520.60969355 0 -36990.36185399 0 -6461.72025084 0 75
0.00950000 0.00948925 62180.91018673 0 12852.81175951 0 9375.75478983 0 -30757.55281696 0 -18824.09037249 0 112
0.01050000 0.01054430 52255.61986170 0 -5211.68689879 0 24397.30592701 0 4040.54523063 0 -23334.88017133 0 105
0.01150000 0.01145670 67915.94630472 0 -10208.87004860 0 25499.88181563 0 15803.51379561 0 -2674.85287681 0 144
0.01250000 0.01249090 73235.17344911 0 -4844.39082065 0 10789.15038173 0 8597.52986476 0 -30530.73783937 0 169
0.01350000 0.01339930 92985.37876678 0 -6116.58438420 0 -2566.59170339 0 9171.89858992 0 14454.93515868 0 180
0.01450000 0.01448870 86063.69548731 0 -3818.77674765 0 -2103.60077799 0 15049.97787495 0 13800.44362676 0 267
0.01550000 0.01550050 86829.65354855 0 1968.72073190 0 -5036.50144299 0 400.37224568 0 10578.29563655 0 238
0.01650000 0.01653350 89784.79206343 0 -107.46249632 0 -10981.59373998 0 11261.11408547 0 16674.50549196 0 315
0.01750000 0.01747870 81231.70462484 0 5955.34056297 0 15753.04884950 0 -20722.45964215 0 22730.40993766 0 297
0.01850000 0.01844180 86260.45332117 0 3383.64690898 0 -16982.95167909 0 644.69578677 0 20548.88240991 0 388
0.01950000 0.01947590 69787.03122988 0 3074.46870285 0 24850.27041037 0 -72.21067959 0 16579.67575805 0 399
0.02050000 0.02045430 69435.32937465 0 6533.11428559 0 10347.94256713 0 -14833.69953446 0 9887.50261702 0 462
0.02150000 0.02154770 66053.84524908 0 2117.22076784 0 24472.17150641 0 274.12558729 0 10191.76742290 0 571
0.02250000 0.02255340 67567.46089660 0 -1807.06653638 0 26721.35533554 0 -2301.90028822 0 -4750.69238883 0 510
0.02350000 0.02348930 70506.18444000 0 -3400.88262904 0 22485.18357313 0 2216.71989566 0 3452.21268851 0 555
0.02450000 0.02439640 72402.89003012 0 -2106.62867475 0 20233.89241658 0 4871.94135387 0 -16267.01491608 0 592
0.02550000 0.02547300 76769.27244470 0 1365.33743552 0 29266.34138727 0 -7612.40975182 0 -7679.73331730 0 837
0.02650000 0.02652900 71728.54525567 0 4540.10383238 0 27028.35966706 0 -2361.22710070 0 -16199.91317454 0 723
0.02750000 0.02749970 73008.24755955 0 1599.43932951 0 43654.06389245 0 544.38811069 0 1036.91600269 0 826
0.02850000 0.02848090 67139.67343031 0 -283.84258494 0 24544.59702248 0 9671.30191491 0 -7370.03382491 0 831
0.02950000 0.02946900 71382.49991088 0 891.94629474 0 27398.47290922 0 10186.85402266 0 9282.95474497 0 996
0.03050000 0.03053250 66728.19002353 0 1002.14510026 0 21803.18587279 0 7247.24318350 0 4676.76956117 0 1041
0.03150000 0.03150510 64625.18817018 0 3716.68227974 0 24972.27357680 0 3130.72325377 0 20775.14282765 0 1036
0.03250000 0.03246190 61009.56887703 0 1733.78699814 0 22955.45032374 0 -995.75213434 0 16939.14145114 0 1059
0.03350000 0.03345080 55606.04863582 0 2519.24338362 0 21321.38427735 0 5465.66421771 0 20217.92109298 0 1302
0.03450000 0.03451200 57369.99259847 0 1567.84050940 0 20720.01957882 0 3838.17525111 0 14387.16794533 0 1339
0.03550000 0.03553350 50870.10753893 0 1935.30295550 0 20908.23719103 0 -1583.20181718 0 19669.35049192 0 1365
0.03650000 0.03647120 49670.70550095 0 2984.67437236 0 24840.62106903 0 2783.89043400 0 18536.71745956 0 1308
0.03750000 0.03744890 46290.33049507 0 1964.49498586 0 23776.19889790 0 321.34192182 0 15963.33794364 0 1579
0.03850000 0.03847530 45084.05191498 0 464.91857544 0 19089.28089152 0 4233.28805120 0 17304.81821453 0 1662
0.03950000 0.03950240 43075.10341175 0 427.69097288 0 24771.19017613 0 2153.77735298 0 18804.23712996 0 1683
0.04050000 0.04050350 44261.41783733 0 331.69222681 0 20535.57297357 0 2393.19193031 0 15033.00834362 0 1822
0.04150000 0.04152450 43407.28476035 0 179.68959088 0 17495.58680203 0 2252.30045547 0 15053.63796994 0 1887
0.04250000 0.04250150 43439.89287938 0 15.39524684 0 19060.00013158 0 -256.82332005 0 10541.21776515 0 1920
0.04350000 0.04349210 42259.67861212 0 1548.32000277 0 17233.05817027 0 -822.96015884 0 8894.34138629 0 2005
0.04450000 0.04448520 42891.76592620 0 542.77101417 0 20170.56168201 0 553.58160384 0 4310.43841717 0 2151
0.04550000 0.04548030 39955.92609400 0 51.61210861 0 15380.71736795 0 612.51246059 0 4689.90153836 0 2274
0.04650000 0.04648670 40743.40107733 0 -661.11963121 0 16636.24086249 0 3148.32498333 0 1226.52001452 0 2311
0.04750000 0.04749250 41908.86405265 0 -62.38265906 0 11962.18864457 0 2049.37591611 0 615.33627933 0 2568
0.04850000 0.04851840 40338.90512462 0 1141.50598991 0 10398.79570514 0 140.40346217 0 -306.17360088 0 2493
0.04950000 0.04949480 39288.45786166 0 1838.76517726 0 11979.82364771 0 -890.58762311 0 580.02301736 0 2644
0.05050000 0.05050630 35520.77825835 0 1790.27446420 0 12892.74006852 0 -2891.97414826 0 -2036.06647977 0 2829
0.05150000 0.05149060 35385.79839149 0 800.01025411 0 11799.03713746 0 1450.65092245 0 -1302.12870412 0 2784
0.05250000 0.05249300 33203.05083208 0 681.83355063 0 14607.21729278 0 197.79707902 0 -1228.10605568 0 3055
0.05350000 0.05348950 33514.04799451 0 -430.92627503 0 13074.96843438 0 1356.90812584 0 -2180.61804960 0 3009
0.05450000 0.05448610 33603.55395388 0 -834.54158669 0 9393.03487468 0 3347.32323897 0 -2914.94401714 0 3336
0.05550000 0.05550870 35225.08694771 0 -150.66060111 0 11231.05694174 0 -776.94500094 0 -2862.28301403 0 3349
0.05650000 0.05647670 34912.98066558 0 812.63869096 0 8487.06154316 0 -1737.86855862 0 -6804.62678689 0 3324
0.05750000 0.05747970 34418.42419366 0 620.65118091 0 11685.68510465 0 -166.52434010 0 -3275.46337395 0 3639
0.05850000 0.05849280 32624.31217532 0 316.02923848 0 10220.90399729 0 -534.66113097 0 -4872.37391055 0 3846
0.05950000 0.05951020 32656.58755844 0 391.09002295 0 11008.63407814 0 2585.44673821 0 -1506.55055507 0 3787
0.06050000 0.06049470 33273.03628482 0 -300.19100924 0 10965.53368680 0 2644.69591230 0 -2782.57058157 0 3930
0.06150000 0.06148310 31943.31268270 0 282.91979735 0 9795.93369502 0 885.74187917 0 2487.74438429 0 4083
0.06250000 0.06249100 31899.50245475 0 671.72503373 0 10245.36008656 0 844.26967554 0 1753.08568083 0 4303
0.06350000 0.06350600 32113.34073191 0 -290.19673167 0 10043.98831477 0 259.01494057 0 5780.97585575 0 4470
0.06450000 0.06451750 32404.81738771 0 -132.95128694 0 10491.41829085 0 1577.37893878 0 3108.54085988 0 4479
0.06550000 0.06550280 32495.09973087 0 -96.00839541 0 8490.20035189 0 -260.84720631 0 4379.42566219 0 4636
0.06650000 0.06648880 32770.27232716 0 283.86254909 0 9232.02396858 0 -383.21970960 0 1164.03221091 0 4653
0.06750000 0.06749660 31515.74704034 0 1312.55442925 0 10137.47601384 0 -1496.63502500 0 2556.98672684 0 5220
0.06850000 0.06852730 30269.54015124 0 947.12499956 0 11511.66422453 0 -1445.64879263 0 -5.12876911 0 5029
0.06950000 0.06949320 29690.69058251 0 315.41922265 0 10760.40199924 0 220.17245974 0 -1434.26922456 0 5040
0.07050000 0.07048030 28884.36056438 0 603.33560423 0 11141.55098237 0 -168.15474605 0 -1497.65541512 0 5475
0.07150000 0.07148790 28144.02316808 0 485.15446427 0 10263.36109920 0 1885.37038683 0 -1875.92068703 0 5509
0.07250000 0.07249820 27614.64033775 0 -6.71587503 0 10124.44385743 0 1164.13203169 0 -1098.80599078 0 5916
0.07350000 0.07351270 27992.29559383 0 510.96700693 0 9767.85078435 0 260.38803075 0 -458.12188995 0 5721
0.07450000 0.07449140 25725.03311368 0 819.23573490 0 8710.82644159 0 174.65307834 0 -980.97976912 0 6028
0.07550000 0.07549160 25534.59726208 0 1131.14681196 0 11544.71599144 0 -1573.74102618 0 196.50273633 0 6183
0.07650000 0.07648840 24244.69105700 0 820.90496005 0 11496.58019668 0 -1215.85028306 0 -1933.07362491 0 6330
0.07750000 0.07749960 23919.71898641 0 120.38939727 0 13944.51827512 0 1195.69757820 0 1895.24155212 0 6583
0.07850000 0.07848650 23695.01133624 0 -455.72730053 0 9459.53769158 0 1250.08880803 0 -1595.32449544 0 6549
0.07950000 0.07947320 24201.43538890 0 -299.83720006 0 11619.80339477 0 1843.12401766 0 1375.80752544 0 6828
0.08050000 0.08048110 24255.11678213 0 305.82755553 0 9600.29607205 0 -4.44204656 0 -283.13718481 0 7147
0.08150000 0.08149960 23651.75566815 0 514.41747830 0 9043.05215498 0 597.82106111 0 965.23248769 0 7386
0.08250000 0.08250610 22994.38042502 0 124.27908004 0 8547.81912004 0 754.03502452 0 28.52678037 0 7227
0.08350000 0.08350160 22699.02185029 0 138.59670618 0 7756.87259207 0 654.63128100 0 307.30157561 0 7798
0.08450000 0.08449610 22343.88172401 0 177.65879272 0 6058.99888965 0 1460.86591484 0 -76.44496585 0 7371
0.08550000 0.08548940 22234.07887422 0 260.68749307 0 6520.00449080 0 90.73308940 0 -306.98991297 0 8256
0.08650000 0.08650700 21757.71196530 0 391.19206196 0 5156.57474115 0 -492.20513817 0 -394.54603992 0 8037
0.08750000 0.08749060 21256.05712733 0 476.11957523 0 6255.77890590 0 -609.60213051 0 -2754.64294765 0 8155
0.08850000 0.08849210 20791.44688717 0 239.81940601 0 6327.58331495 0 -393.96264296 0 -1631.71471263 0 8718
0.08950000 0.08949900 20293.89579207 0 143.45797781 0 6726.54476037 0 64.28712849 0 -3093.07973133 0 8571
0.09050000 0.09049190 20869.41800171 0 -16.75469485 0 6061.23931143 0 672.37497787 0 -1693.38176766 0 8932
0.09150000 0.09150830 20190.41492454 0 123.95632621 0 5893.62914315 0 735.75007724 0 -2763.92627950 0 9285
0.09250000 0.09250820 20258.62578578 0 357.52251539 0 6379.92267334 0 -231.38233249 0 -1272.02719560 0 9204
0.09350000 0.09350330 19885.62883241 0 285.36873364 0 6288.38702493 0 104.33744067 0 246.50739777 0 9349
0.09450000 0.09448040 19625.09661609 0 321.99408420 0 7528.83758282 0 -201.52372119 0 -575.11738095 0 9564
0.09550000 0.09549270 18898.95595189 0 472.06907011 0 7411.23762157 0 -507.36125880 0 59.91264950 0 10155
0.09650000 0.09649430 18897.51409629 0 309.72943862 0 7775.05106387 0 193.43047478 0 -711.83302014 0 9913
0.09750000 0.09749140 18154.95846061 0 178.75238474 0 8179.84647889 0 280.85572560 0 1047.78870306 0 10476
0.09850000 0.09850240 18200.09963219 0 334.44395278 0 7358.24388256 0 1120.96509316 0 -231.77496087 0 10575
0.09950000 0.09950330 17504.12702368 0 145.96680656 0 6966.72463028 0 414.25620602 0 1165.17460420 0 10882
0.10050000 0.10051200 17333.43350265 0 113.10026264 0 6181.85607824 0 551.56744247 0 380.61438743 0 10875
0.10150000 0.10150300 17344.30287566 0 157.37188438 0 5934.99930777 0 599.55350607 0 1431.90679961 0 11118
0.10250000 0.10250800 16687.37128042 0 149.43391472 0 5568.06923913 0 -283.19929552 0 157.14340572 0 11575
0.10350000 0.10349800 16893.11298381 0 88.01397156 0 4697.76519700 0 283.92244156 0 -595.10039050 0 11364
0.10450000 0.10450100 16257.47648670 0 119.48546472 0 4834.69711452 0 -434.58304266 0 -1339.15111953 0 12093
0.10550000 0.10551000 16519.33964665 0 187.65307029 0 4966.80436137 0 -413.77484807 0 -2580.13405487 0 12067
0.10650000 0.10649700 16370.27395967 0 -63.06144031 0 4763.66908926 0 226.34360172 0 -2324.78142753 0 12054
0.10750000 0.10749900 16241.94881098 0 -113.44852622 0 4393.11219922 0 -180.77874642 0 -3884.78046069 0 12807
0.10850000 0.10850100 16596.86711332 0 112.07321780 0 4060.56484112 0 511.79773758 0 -2693.08680459 0 12736
0.10950000 0.10950300 15888.13962833 0 279.38059641 0 4756.79254715 0 -254.34665578 0 -3250.86309911 0 12933
0.11050000 0.11050200 15695.81827325 0 542.57802735 0 4750.02691702 0 -143.59329041 0 -2284.03236994 0 13428
0.11150000 0.11150900 15142.58936947 0 222.56372180 0 5140.41486720 0 169.68976771 0 -1739.93152125 0 13453
0.11250000 0.11250000 15292.87508812 0 99.60859794 0 5199.74167967 0 26.01994804 0 -1530.16371337 0 13668
0.11350000 0.11349100 15024.80085788 0 -48.53053045 0 5189.06085701 0 474.74093945 0 -1795.55387395 0 13791
0.11450000 0.11448600 14896.58662116 0 47.49339263 0 4834.08709869 0 23.08133541 0 -1547.78762532 0 14205
0.11550000 0.11549300 14991.30544310 0 16.93049032 0 4666.89839589 0 -66.22520424 0 -1389.33878572 0 14776
0.11650000 0.11649800 15056.18894524 0 37.81587964 0 4890.53019996 0 -29.55792896 0 -1565.34499009 0 14553
0.11750000 0.11747300 15053.19432207 0 92.38312677 0 4559.72415978 0 29.54717049 0 -2401.12213612 0 14568
0.11850000 0.11849100 14726.33674800 0 282.05246575 0 4601.13868918 0 72.86428382 0 -1625.69219269 0 16015
0.11950000 0.11950300 14237.32587456 0 352.33183521 0 5076.05265131 0 -152.72134550 0 -1762.74611337 0 15270
0.12050000 0.12050700 13937.64173301 0 233.55509798 0 4804.05213735 0 279.23751997 0 -1057.84730957 0 15999
0.12150000 0.12150000 14000.41790774 0 42.14632658 0 4368.25682686 0 703.54789602 0 -941.78236999 0 15670
0.12250000 0.12250700 13807.65290478 0 -8.82789403 0 4747.32066496 0 516.47933181 0 -436.71033424 0 16887
0.12350000 0.12352200 13883.51669191 0 61.81168424 0 3793.83264572 0 565.04435589 0 -465.40326074 0 16407
0.12450000 0.12449800 13569.08125843 0 134.78798915 0 4447.35924350 0 -366.30230689 0 -55.37801363 0 16306
0.12550000 0.12549900 13442.97434912 0 353.01505295 0 3911.11096225 0 -334.40402447 0 -916.33694595 0 17523
0.12650000 0.12650100 13035.04012537 0 242.11639290 0 4960.14964320 0 -527.58051083 0 -442.10398331 0 17154
0.12750000 0.12750600 12776.50432451 0 140.55984804 0 4218.24838814 0 -183.66578498 0 -1356.50884275 0 18007
0.12850000 0.12850300 12683.67100605 0 -8.96294044 0 4994.76526887 0 772.12809411 0 -437.47562683 0 17496
0.12950000 0.12949900 12885.64170248 0 51.08527676 0 4149.73806459 0 637.42107069 0 -580.56648602 0 18405
0.13050000 0.13049000 12512.53383714 0 -66.55084178 0 4177.53260414 0 885.84613642 0 885.56663825 0 18100
0.13150000 0.13148800 12569.98623733 0 157.33417431 0 3525.37022358 0 344.31289982 0 794.91828560 0 19059
0.13250000 0.13249300 12444.98844772 0 178.50283280 0 3187.06653427 0 235.78110120 0 1342.54502579 0 18957
0.13350000 0.13349100 11989.80572497 0 83.53312799 0 3578.65233372 0 306.36769682 0 1656.42589943 0 19468
0.13450000 0.13450700 12112.03071534 0 41.22897368 0 3114.34155588 0 -16.26268935 0 1488.98209910 0 19953
0.13550000 0.13551000 12202.97853031 0 -33.98886214 0 3032.11142171 0 79.33211532 0 1108.09486822 0 19956
0.13650000 0.13649900 11864.58611142 0 207.67711726 0 3128.36082882 0 -517.87793174 0 363.90439011 0 19723
0.13750000 0.13749600 11909.17272315 0 199.78683975 0 3142.44664895 0 -598.32460145 0 -80.74502290 0 20946
0.13850000 0.13851100 11661.50629530 0 72.84065957 0 3669.42268955 0 86.12358795 0 -510.22500585 0 20955
0.13950000 0.13949800 11656.95890455 0 102.76637262 0 3061.10381053 0 -421.92022311 0 -853.79035900 0 20506
0.14050000 0.14048300 11495.91472486 0 155.05826070 0 3656.74545144 0 240.36398378 0 -1312.89825635 0 21447
0.14150000 0.14148400 11303.48245781 0 75.99710331 0 3265.37038472 0 138.43366559 0 -1374.13275470 0 21771
0.14250000 0.14249400 11217.30385752 0 101.39006599 0 3183.10697696 0 319.63942309 0 -674.01869326 0 22470
0.14350000 0.14350900 11119.03585256 0 22.17307729 0 2973.03970676 0 459.81662484 0 -583.91602749 0 22519
0.14450000 0.14449900 11012.68236503 0 139.36088965 0 3000.10222731 0 352.98288848 0 -374.38446211 0 22218
0.14550000 0.14550500 10684.27202339 0 212.57388071 0 2786.49686529 0 224.14310825 0 328.17853562 0 23559
0.14650000 0.14650700 10524.21496023 0 169.11857107 0 2591.77981166 0 -10.71638104 0 -56.67457455 0 23044
0.14750000 0.14750500 10327.83422706 0 179.16941374 0 2889.58954092 0 -264.08139934 0 732.00125267 0 23649
0.14850000 0.14849900 10156.81906132 0 137.60182582 0 2655.86474763 0 104.42007008 0 -191.17674356 0 23640
0.14950000 0.14949500 9992.00387467 0 -4.39537480 0 2861.77281897 0 84.70191833 0 318.73770878 0 24457
0.15050000 0.15050000 10012.36731227 0 64.33592975 0 2431.66729252 0 190.38594121 0 -406.43136657 0 24591
0.15150000 0.15149900 9801.05782801 0 239.57096320 0 2793.26249543 0 -216.94159407 0 -76.44662953 0 25020
0.15250000 0.15250500 9507.78439830 0 233.32883756 0 2651.72773117 0 -156.66204777 0 -327.02061466 0 25297
0.15350000 0.15350100 9383.94009318 0 79.45434031 0 2583.18413403 0 299.78063495 0 -176.79257023 0 25452
0.15450000 0.15450400 9291.57260499 0 -30.72627564 0 2804.66424589 0 355.69246789 0 29.64710218 0 26061
0.15550000 0.15549900 9219.21363610 0 179.43338423 0 2264.33440416 0 -32.10213862 0 -84.19272147 0 26128
0.15650000 0.15649500 9000.48414109 0 232.41270469 0 2630.41045063 0 37.63797684 0 413.45320336 0 26331
0.15750000 0.15749700 8709.46222436 0 131.55379612 0 2768.66222059 0 45.77802811 0 645.74279576 0 27345
0.15850000 0.15849900 8718.83428579 0 17.49092850 0 2593.16621128 0 219.41714923 0 884.56510317 0 26980
0.15950000 0.15949700 8719.76594633 0 34.06472592 0 2750.38392802 0 62.66615005 0 423.36318783 0 27777
0.16050000 0.16050000 8464.35786301 0 134.82459010 0 2556.67617332 0 -214.33849014 0 829.51616536 0 28224
0.16150000 0.16150500 8521.89899277 0 71.90422982 0 2781.40600589 0 -110.10042660 0 525.40552711 0 28075
0.16250000 0.16249700 8437.77226392 0 -33.28124377 0 2731.61762279 0 116.77255795 0 195.92155761 0 28590
0.16350000 0.16349900 8582.90057599 0 4.18483061 0 2721.21408005 0 27.72100492 0 558.97192556 0 29163
0.16450000 0.16449100 8413.71545774 0 47.09399863 0 2297.76327176 0 300.25755642 0 315.01772132 0 28996
0.16550000 0.16550500 8477.50093139 0 66.21477852 0 2498.02592386 0 47.93604230 0 417.05340589 0 30777
0.16650000 0.16650700 8307.00705190 0 194.33440733 0 2048.58844112 0 81.54037264 0 243.31646041 0 29211
0.16750000 0.16749900 8103.48358790 0 125.40150918 0 2596.17192566 0 73.96630515 0 1000.42818297 0 30922
0.16850000 0.16850800 8084.87255942 0 -23.13900963 0 2223.35243144 0 141.74106052 0 675.76222942 0 30867
0.16950000 0.16949900 8047.46195212 0 -24.73580926 0 2358.18811274 0 442.45224690 0 1149.80220523 0 30852
0.17050000 0.17049200 8091.38309203 0 -45.98809538 0 1805.52486000 0 166.96133326 0 867.20294347 0 31257
0.17150000 0.17149500 8175.47654729 0 58.83458516 0 1720.98775686 0 119.30800557 0 976.60983752 0 32608
0.17250000 0.17250900 8136.24698369 0 62.33718515 0 1813.23324188 0 -54.60273896 0 1032.43848648 0 32361
0.17350000 0.17350400 8001.10074887 0 -2.40021266 0 1511.02030744 0 -218.66738431 0 501.53727128 0 32508
0.17450000 0.17449800 8103.26176396 0 74.82554018 0 1779.74891830 0 43.68401012 0 714.11891583 0 32791
0.17550000 0.17549800 8005.86996356 0 -12.80256864 0 1553.82123646 0 81.63431507 0 232.67889342 0 33633
0.17650000 0.17650100 8078.56166836 0 22.01025852 0 1732.30077775 0 15.84643673 0 318.42493702 0 33984
0.17750000 0.17750300 8030.71424472 0 164.34935638 0 1738.20129453 0 -124.95120658 0 -121.13694395 0 34069
0.17850000 0.17849800 7685.07927423 0 227.29078994 0 1970.36222905 0 -363.19122615 0 97.21655949 0 34536
