### header ###
fiducial parameters:
Omega_m = 0.31
Omega_nu = 0
Omega_de = 0.69
Omega_k = 0
H_0 = 100
w_de = -1
zeff = 0
beta = 0
fgrowth = 0
b_1 = 2
gamma = 0.55
Lx = 3500 Ly = 3500 Lz = 3500
nx = 700 ny = 700 nz = 700
xoffset = 1379.75464 yoffset = 22.6059522 zoffset = 368.141391
bins = 400 dk = 0.001
kx_ny = 0.628318531 ky_ny = 0.628318531 kz_ny = 0.628318531
############################
A(data) = 3.37110846 (not used)
A(ran) = 3.3735502 (used)
Ngal = 189735
weighted Ngal = 0
Nran = 9399747
weighted Nran = 0
SN(data) = 6600.61517
SN(ran) = 134.184251
SN(data+ran) = 6734.79942
############################
13 columns: k_central k_mean P_0(k) sigma^{lin}_{P_0(k)} P^img_1(k) sigma^{lin}_{P_1(k)} P_2(k) sigma^{lin}_{P_2(k)} P^img_3(k) sigma^{lin}_{P_3(k)} P_4(k) sigma^{lin}_{P_4(k)} N_modes
### header ###
0.00050000 0 0 0 0 0 0 0 0 0 0 0 0
0.00150000 0.00179520 42947.66555882 0 -46702.36846170 0 -60074.13732641 0 70355.34416151 0 111856.93946221 0 3
0.00250000 0.00253879 50748.32619644 0 -33440.95700662 0 -5902.70174225 0 -86777.74674683 0 -72285.76699035 0 6
0.00350000 0.00331552 72685.71555230 0 -6386.11156124 0 -62832.62891941 0 6085.98377182 0 303.59600670 0 7
0.00450000 0.00420575 82624.09348972 0 282.00477361 0 -31612.24045379 0 -50293.91985747 0 -1699.42647000 0 24
0.00550000 0.00557378 70151.15522569 0 5265.43483920 0 -22191.82141385 0 -21759.48655681 0 11607.82490207 0 45
0.00650000 0.00659388 64048.77866478 0 2047.10222073 0 -5170.61619649 0 8944.52905248 0 -15839.44927373 0 40
0.00750000 0.00754703 59261.15259011 0 -665.98312107 0 -34577.02831002 0 -17996.79799212 0 -30292.16619302 0 57
0.00850000 0.00846663 65854.42552795 0 -127.99019454 0 1049.02758976 0 -17674.48780881 0 -32637.39978772 0 75
0.00950000 0.00948925 58790.44219163 0 9632.31635764 0 9288.20088112 0 -30113.26518624 0 -17658.51648520 0 112
0.01050000 0.01054430 43751.99916150 0 3186.33451527 0 8323.58839134 0 -11569.44936063 0 -23380.79772670 0 105
0.01150000 0.01145670 54566.13800996 0 -3962.47429531 0 21294.43266877 0 6586.27439257 0 -27930.51762683 0 144
0.01250000 0.01249090 54490.60695874 0 -7450.46718518 0 7857.99103465 0 10842.77631898 0 -16150.44643615 0 169
0.01350000 0.01339930 59433.28796675 0 -989.73183263 0 1831.64462882 0 13942.07821179 0 -3944.77274498 0 180
0.01450000 0.01448870 66049.51968227 0 54.14079061 0 10714.52880866 0 -2883.02355233 0 -5885.29965424 0 267
0.01550000 0.01550050 65142.14885993 0 -131.53715933 0 -2175.15008950 0 -8200.75338514 0 -7815.85557744 0 238
0.01650000 0.01653350 69965.48858878 0 -1299.52227283 0 14208.04511461 0 8310.88897083 0 10790.39259579 0 315
0.01750000 0.01747870 62654.61520839 0 -2552.72770721 0 -6056.41464076 0 -237.63111286 0 -1766.32856999 0 297
0.01850000 0.01844180 73382.90819246 0 -3469.17112865 0 8220.62881007 0 5364.37940717 0 2103.62296038 0 388
0.01950000 0.01947590 68844.61222519 0 7406.02475901 0 4607.82668094 0 -15683.95069251 0 -6871.79507560 0 399
0.02050000 0.02045430 65529.23163343 0 5802.90315211 0 19829.72919979 0 -13044.57855474 0 6502.86859152 0 462
0.02150000 0.02154770 60398.11118927 0 -297.51803078 0 21555.85218084 0 2220.86800332 0 -2098.73174253 0 571
0.02250000 0.02255340 61255.12797746 0 -1825.25609938 0 23143.66793595 0 5995.39087515 0 268.80181276 0 510
0.02350000 0.02348930 65002.39977839 0 -1046.98902776 0 17551.26461071 0 9120.28015933 0 -8171.91627307 0 555
0.02450000 0.02439640 67066.36061848 0 -1250.84300943 0 13894.27515295 0 -732.30404234 0 -5791.49031045 0 592
0.02550000 0.02547300 64725.45259059 0 -607.73215470 0 12004.66792888 0 3636.43746982 0 1942.12404162 0 837
0.02650000 0.02652900 71071.83548436 0 -2829.37543269 0 5078.20434352 0 5346.81095121 0 -4028.72201468 0 723
0.02750000 0.02749970 68307.79829290 0 -149.63355627 0 6770.29953233 0 -892.93784775 0 -10513.30122243 0 826
0.02850000 0.02848090 71292.66121560 0 4212.64733368 0 5373.49637107 0 -7685.00163585 0 -10965.37841004 0 831
0.02950000 0.02946900 61127.46830059 0 4094.47063019 0 15408.66718426 0 -7029.66717297 0 -8412.90580036 0 996
0.03050000 0.03053250 59960.23073376 0 2185.98618892 0 15455.80477129 0 -2265.16624393 0 -4299.13648748 0 1041
0.03150000 0.03150510 57130.64456833 0 578.02549279 0 20746.08389165 0 2881.28223441 0 -17256.23877189 0 1036
0.03250000 0.03246190 56953.85088897 0 -878.11779038 0 7921.21085725 0 9433.22937242 0 506.99192194 0 1059
0.03350000 0.03345080 58336.03585266 0 -1223.46993536 0 13733.23097326 0 7321.32128792 0 -6083.49934371 0 1302
0.03450000 0.03451200 59404.33994271 0 2895.95588797 0 8458.49061982 0 -3597.35209178 0 5601.89738982 0 1339
0.03550000 0.03553350 55153.30597640 0 3313.79455060 0 15391.47582899 0 -4654.08806341 0 -2289.56687722 0 1365
0.03650000 0.03647120 48517.77557818 0 3199.64395161 0 17557.69750494 0 -6061.45004417 0 2115.55708830 0 1308
0.03750000 0.03744890 46851.32323671 0 1640.78731173 0 18633.87634483 0 -21.36929825 0 -1693.81432434 0 1579
0.03850000 0.03847530 47168.75329337 0 70.08959908 0 20738.54187773 0 4942.14863055 0 532.19001229 0 1662
0.03950000 0.03950240 45801.54144556 0 -129.99437383 0 18978.25801007 0 3159.85982815 0 225.87222585 0 1683
0.04050000 0.04050350 46995.39788507 0 57.49887231 0 14034.02423449 0 3105.20240959 0 -1849.43490872 0 1822
0.04150000 0.04152450 45249.19983754 0 -251.41081594 0 11389.32832219 0 3048.07165411 0 4077.68964921 0 1887
0.04250000 0.04250150 44671.23756457 0 943.32959196 0 9910.27284436 0 1561.92890143 0 1467.47626822 0 1920
0.04350000 0.04349210 43615.13379116 0 976.57323657 0 9800.44781218 0 1581.79323516 0 2183.80122312 0 2005
0.04450000 0.04448520 42084.99226018 0 990.60249159 0 6330.60012052 0 -321.78778794 0 2037.85216248 0 2151
0.04550000 0.04548030 40294.65124880 0 1658.22267333 0 10161.84337354 0 -1135.38364920 0 810.60234720 0 2274
0.04650000 0.04648670 38337.27681138 0 1188.96522165 0 9385.52613434 0 -433.20218864 0 1047.89296031 0 2311
0.04750000 0.04749250 37146.19317111 0 1489.12628466 0 11475.95057036 0 -1962.07710493 0 -5105.91015349 0 2568
0.04850000 0.04851840 35190.03876535 0 1335.43556855 0 12701.19509723 0 -2452.31910124 0 -777.32099252 0 2493
0.04950000 0.04949480 34016.47921626 0 512.24249457 0 12812.55071459 0 493.61261106 0 -3215.27144811 0 2644
0.05050000 0.05050630 34052.74743028 0 -556.45311473 0 11630.00729597 0 2872.97492789 0 1323.70108218 0 2829
0.05150000 0.05149060 34612.18740435 0 -1068.51260456 0 11361.71124179 0 4391.57052285 0 -2662.26436827 0 2784
0.05250000 0.05249300 36864.58768059 0 -935.07774143 0 7818.66165027 0 3850.66393888 0 4309.78403655 0 3055
0.05350000 0.05348950 36855.38198713 0 -451.38620604 0 7264.35690039 0 160.07369996 0 1506.98311175 0 3009
0.05450000 0.05448610 37841.16757188 0 672.70993202 0 7761.59744197 0 -2201.31422310 0 4988.66511055 0 3336
0.05550000 0.05550870 35886.23319779 0 1265.20610947 0 10390.21111870 0 -3067.41470159 0 649.63358765 0 3349
0.05650000 0.05647670 35405.87345796 0 1199.52404115 0 11746.46486392 0 -3071.40753249 0 -727.68455882 0 3324
0.05750000 0.05747970 34216.67532118 0 241.31339024 0 14311.85871805 0 851.37802366 0 114.71181356 0 3639
0.05850000 0.05849280 35403.10065873 0 -1029.72668883 0 12989.45530591 0 1936.02388330 0 -2502.28494349 0 3846
0.05950000 0.05951020 36542.16658531 0 -1347.73570597 0 10543.90183481 0 3614.11089037 0 1405.79812199 0 3787
0.06050000 0.06049470 38010.86288519 0 -217.29873061 0 8418.20739250 0 1245.23086377 0 -5385.26413103 0 3930
0.06150000 0.06148310 37088.62985895 0 901.99713741 0 8576.90023844 0 -1740.45280751 0 606.94689796 0 4083
0.06250000 0.06249100 35915.29213380 0 1110.89428633 0 9946.36359923 0 519.91760286 0 -1272.49302587 0 4303
0.06350000 0.06350600 34326.81090687 0 973.13829288 0 7615.22691585 0 -19.33450726 0 1153.95031289 0 4470
0.06450000 0.06451750 32732.89499344 0 1052.02554029 0 9987.13483921 0 2267.01847382 0 -173.76578259 0 4479
0.06550000 0.06550280 31293.14671759 0 1539.44704522 0 9127.20106622 0 979.53125880 0 2570.19634240 0 4636
0.06650000 0.06648880 29352.63089953 0 1122.22948962 0 9313.28916862 0 120.13540886 0 4364.63000546 0 4653
0.06750000 0.06749660 27811.39817161 0 948.52359949 0 9079.49782815 0 647.39316587 0 6378.60282091 0 5220
0.06850000 0.06852730 27395.92193393 0 289.32829095 0 10300.90480087 0 1233.64056296 0 7146.57948000 0 5029
0.06950000 0.06949320 27659.00512554 0 -439.23136330 0 8676.83192294 0 1126.47741805 0 5226.47146432 0 5040
0.07050000 0.07048030 26611.10883787 0 381.22329415 0 7865.07830950 0 -442.55650415 0 4681.93805895 0 5475
0.07150000 0.07148790 26315.97208708 0 873.80996949 0 9077.26849756 0 -2493.98872817 0 2849.87196465 0 5509
0.07250000 0.07249820 26474.35437950 0 406.00546461 0 9873.47225288 0 -475.81345820 0 3280.75387489 0 5916
0.07350000 0.07351270 25413.92503928 0 -272.04044227 0 9560.29012466 0 1098.61300395 0 -663.88799397 0 5721
0.07450000 0.07449140 26110.78494354 0 -124.58630620 0 8743.64529336 0 124.13378536 0 -44.00166200 0 6028
0.07550000 0.07549160 26055.10713486 0 169.25277455 0 8952.23743436 0 17.76576836 0 -2442.92485742 0 6183
0.07650000 0.07648840 25817.97734410 0 174.00091596 0 8501.49119039 0 -381.17449288 0 -1819.58849773 0 6330
0.07750000 0.07749960 25465.94275297 0 508.93066317 0 9798.41812313 0 -1371.28231709 0 -2262.89254856 0 6583
0.07850000 0.07848650 25403.61022612 0 519.29427759 0 9814.57799709 0 -1248.04802780 0 -2196.38973166 0 6549
0.07950000 0.07947320 24584.19259558 0 238.39862368 0 10983.62342902 0 154.29518635 0 -3800.63154944 0 6828
0.08050000 0.08048110 24846.72122735 0 100.24290349 0 12035.16872049 0 353.51748417 0 -2368.30328435 0 7147
0.08150000 0.08149960 25071.76161343 0 -188.51707453 0 11451.54993707 0 978.82474955 0 -956.31960183 0 7386
0.08250000 0.08250610 25461.17353828 0 -105.29671829 0 11463.97207765 0 1195.39811588 0 -1382.32914925 0 7227
0.08350000 0.08350160 25054.57025816 0 190.85509885 0 10569.69995891 0 481.87923381 0 -291.32803376 0 7798
0.08450000 0.08449610 25130.87769316 0 397.07261458 0 11666.05368605 0 -4.37453444 0 1452.38114917 0 7371
0.08550000 0.08548940 24361.25953692 0 572.77159280 0 11357.16385104 0 540.13463666 0 160.41309058 0 8256
0.08650000 0.08650700 24158.17972080 0 207.85568553 0 11912.27825830 0 224.49913567 0 2171.75618323 0 8037
0.08750000 0.08749060 23091.76113423 0 180.55470424 0 9523.95536345 0 1406.46359381 0 985.41292054 0 8155
0.08850000 0.08849210 23286.85528855 0 222.93305866 0 10889.15970461 0 1712.44753521 0 3848.85607378 0 8718
0.08950000 0.08949900 22585.33708157 0 186.44412982 0 7737.23008228 0 743.40522137 0 2341.46258774 0 8571
0.09050000 0.09049190 22456.01372516 0 612.48473259 0 8959.89036026 0 689.54858723 0 3732.62032976 0 8932
0.09150000 0.09150830 21000.62686161 0 655.96111551 0 8883.52746927 0 122.90044426 0 3512.61534709 0 9285
0.09250000 0.09250820 20175.99636851 0 756.28764663 0 8346.59153381 0 -0.72202916 0 3802.69451208 0 9204
0.09350000 0.09350330 19667.79772434 0 190.31273931 0 8754.65885193 0 770.48659696 0 5281.63907794 0 9349
0.09450000 0.09448040 19448.08111280 0 74.98514250 0 7966.65149115 0 1150.34567388 0 3138.48709164 0 9564
0.09550000 0.09549270 19102.03576802 0 356.20044471 0 7471.31863544 0 421.94906022 0 4981.93275401 0 10155
0.09650000 0.09649430 18474.16310878 0 504.60842372 0 7155.54116713 0 184.30352881 0 3863.61845691 0 9913
0.09750000 0.09749140 18149.85651001 0 251.66258611 0 7179.73106767 0 40.88536840 0 5035.50323527 0 10476
0.09850000 0.09850240 17333.87715053 0 452.87797203 0 6941.20378611 0 -125.74422716 0 2734.56788118 0 10575
0.09950000 0.09950330 17363.26882244 0 181.17581127 0 7094.88341102 0 81.92523717 0 3309.94590526 0 10882
0.10050000 0.10051200 16591.87607469 0 234.32371793 0 7128.90011206 0 -152.11687526 0 2428.60612216 0 10875
0.10150000 0.10150300 16659.75420002 0 254.87792411 0 6362.05475506 0 29.23184776 0 1335.04737666 0 11118
0.10250000 0.10250800 16327.46193945 0 105.38633516 0 6730.59304726 0 -344.20975169 0 1275.76492897 0 11575
0.10350000 0.10349800 16031.32698093 0 346.02316239 0 6852.11929222 0 137.46873146 0 -194.99766091 0 11364
0.10450000 0.10450100 15716.55881154 0 159.59456025 0 6881.86588243 0 -187.88820366 0 557.76520333 0 12093
0.10550000 0.10551000 15799.07731683 0 58.40236121 0 6329.30245047 0 166.32580767 0 -787.47498332 0 12067
0.10650000 0.10649700 15322.37767200 0 118.38410887 0 6754.15074957 0 470.93776802 0 494.76498642 0 12054
0.10750000 0.10749900 15655.22449242 0 -42.26622242 0 5865.60168846 0 358.26229822 0 -144.40516603 0 12807
0.10850000 0.10850100 15423.75121211 0 -238.45297055 0 5521.38639117 0 1287.94306322 0 577.04724922 0 12736
0.10950000 0.10950300 15840.55839342 0 1.10005597 0 5134.23707050 0 453.23067209 0 812.63425448 0 12933
0.11050000 0.11050200 15714.89513200 0 158.89914220 0 4614.21521038 0 376.00932246 0 1042.13662909 0 13428
0.11150000 0.11150900 15459.02121840 0 200.01088193 0 4733.14611526 0 -22.26125231 0 1416.63422141 0 13453
0.11250000 0.11250000 15288.21678540 0 -33.75117779 0 4432.88523148 0 200.99134374 0 1351.52889532 0 13668
0.11350000 0.11349100 15361.30777329 0 60.67982759 0 5041.00446895 0 177.83957923 0 1357.82869519 0 13791
0.11450000 0.11448600 15485.52917911 0 107.38330517 0 4308.67491685 0 34.01559192 0 1257.89701069 0 14205
0.11550000 0.11549300 15027.13000924 0 210.78487064 0 5377.75539069 0 -415.16346593 0 1296.11727537 0 14776
0.11650000 0.11649800 15001.06569641 0 454.65034530 0 5486.59330635 0 -703.58893345 0 420.53049613 0 14553
0.11750000 0.11747300 14370.75297384 0 313.57364748 0 6329.95683109 0 -361.71720607 0 1136.63695445 0 14568
0.11850000 0.11849100 13902.03899081 0 239.43121412 0 6653.35395171 0 -162.00134998 0 1004.00842134 0 16015
0.11950000 0.11950300 14051.99197355 0 169.80622528 0 6676.24618221 0 322.79819598 0 902.97205362 0 15270
0.12050000 0.12050700 13820.29686930 0 -35.13425004 0 6570.77999043 0 651.07877061 0 1450.22945696 0 15999
0.12150000 0.12150000 13902.70446263 0 -20.27725900 0 6028.54246283 0 826.25202609 0 1625.31509199 0 15670
0.12250000 0.12250700 13904.25723020 0 -63.19375829 0 5755.22209643 0 622.64981460 0 2456.17883777 0 16887
0.12350000 0.12352200 13938.75085271 0 -5.00264002 0 5222.41208624 0 252.65746648 0 1245.24195497 0 16407
0.12450000 0.12449800 13801.22001055 0 197.18151758 0 5203.12449474 0 -143.95375431 0 1778.81725775 0 16306
0.12550000 0.12549900 13358.34851641 0 198.32391087 0 5316.14379165 0 -462.09919317 0 859.84393429 0 17523
0.12650000 0.12650100 13380.19817440 0 129.50636117 0 4617.69784623 0 451.16881858 0 1451.91531890 0 17154
0.12750000 0.12750600 13192.20238612 0 -64.21259564 0 4835.51786309 0 372.21280574 0 593.21932349 0 18007
0.12850000 0.12850300 13312.76369695 0 106.23081890 0 4431.56537904 0 285.30329558 0 594.93291342 0 17496
0.12950000 0.12949900 13037.59110067 0 212.16572466 0 4175.20345278 0 344.65561781 0 687.42240477 0 18405
0.13050000 0.13049000 12687.77474892 0 177.58891818 0 4271.05357681 0 -4.15232231 0 1305.78879911 0 18100
0.13150000 0.13148800 12644.29725688 0 192.13391385 0 4189.96583592 0 150.76374924 0 1689.20038641 0 19059
0.13250000 0.13249300 12179.68701672 0 248.67129030 0 4246.33129881 0 2.57664033 0 776.88843584 0 18957
0.13350000 0.13349100 11989.14025315 0 263.14308408 0 4534.92424340 0 -207.69153581 0 1737.85746742 0 19468
0.13450000 0.13450700 11660.95173545 0 210.14601770 0 4644.59399883 0 -175.78216219 0 746.51408387 0 19953
0.13550000 0.13551000 11557.47086793 0 123.72230196 0 4745.87880936 0 -37.01853349 0 1233.48528620 0 19956
0.13650000 0.13649900 11390.10470598 0 2.89285035 0 4323.14892887 0 -133.26294957 0 233.69041058 0 19723
0.13750000 0.13749600 11583.86791666 0 -14.34479957 0 4727.05704814 0 13.32562949 0 -531.88389525 0 20946
0.13850000 0.13851100 11483.38167231 0 149.69566697 0 4187.47031660 0 -145.47324829 0 -941.96981121 0 20955
0.13950000 0.13949800 11296.27317980 0 86.89597891 0 4379.94694844 0 -322.05841314 0 -1465.20257284 0 20506
0.14050000 0.14048300 11033.11234980 0 78.16509958 0 4109.72102600 0 -87.56699632 0 -1253.44944071 0 21447
0.14150000 0.14148400 11339.63975986 0 -81.22161164 0 4018.61793426 0 431.41539681 0 -2150.23926115 0 21771
0.14250000 0.14249400 11235.93706840 0 -80.83031421 0 3707.48767747 0 623.50161852 0 -1532.37086156 0 22470
0.14350000 0.14350900 11305.81160917 0 1.13365342 0 2941.69598418 0 432.55224450 0 -1502.19171467 0 22519
0.14450000 0.14449900 11200.99979801 0 124.64398042 0 2754.98677476 0 351.43344826 0 -1091.09428154 0 22218
0.14550000 0.14550500 11239.92989930 0 58.81528647 0 2788.13836244 0 459.00918570 0 -430.18760131 0 23559
0.14650000 0.14650700 10873.93149120 0 149.22096374 0 2659.76884896 0 53.09710897 0 -690.78969217 0 23044
0.14750000 0.14750500 10667.72395754 0 388.70319737 0 2643.73097817 0 -201.69785298 0 250.90173000 0 23649
0.14850000 0.14849900 10259.21299155 0 157.63918223 0 2984.28618046 0 55.14177113 0 -99.88998160 0 23640
0.14950000 0.14949500 10125.69716268 0 105.40618841 0 2872.13199692 0 295.54601596 0 734.11967128 0 24457
0.15050000 0.15050000 10124.63240778 0 63.14340426 0 2878.99744783 0 358.46748537 0 537.18437827 0 24591
0.15150000 0.15149900 9851.33422377 0 114.21492793 0 2820.61338710 0 369.76165122 0 1224.06885999 0 25020
0.15250000 0.15250500 9783.64464880 0 173.56835928 0 2751.63723328 0 -121.94660133 0 1232.16543377 0 25297
0.15350000 0.15350100 9543.01003981 0 67.09442135 0 2967.84902659 0 145.72834582 0 1517.67502561 0 25452
0.15450000 0.15450400 9563.90585486 0 35.68093514 0 2816.32109388 0 -8.60062431 0 1576.08126874 0 26061
0.15550000 0.15549900 9634.47914104 0 55.72516809 0 2916.26386958 0 -445.22060966 0 913.06504285 0 26128
0.15650000 0.15649500 9537.64190049 0 123.77997618 0 3152.07380790 0 -141.53143690 0 667.33181062 0 26331
0.15750000 0.15749700 9457.99601520 0 60.54961694 0 3432.71436428 0 -531.83509398 0 -51.80576091 0 27345
0.15850000 0.15849900 9400.63234459 0 68.91637227 0 3149.88884210 0 -127.09957143 0 -309.90911601 0 26980
0.15950000 0.15949700 9420.28594558 0 16.93315220 0 3383.97964489 0 97.26591532 0 -752.37689058 0 27777
0.16050000 0.16050000 9310.74928452 0 39.17732407 0 3002.30937551 0 -62.08596954 0 -1026.89843361 0 28224
0.16150000 0.16150500 9356.97739340 0 143.54448914 0 3058.68592959 0 70.63950063 0 -1200.54443127 0 28075
0.16250000 0.16249700 9041.65466416 0 201.76772752 0 3049.26950338 0 -115.60243667 0 -1596.32270317 0 28590
0.16350000 0.16349900 8804.63578538 0 143.68091087 0 2990.88544265 0 163.16038007 0 -1092.83559946 0 29163
0.16450000 0.16449100 8705.92413254 0 5.47737652 0 2757.53775005 0 617.64546653 0 -1440.58011562 0 28996
0.16550000 0.16550500 8646.18694577 0 -14.36243458 0 2435.54921145 0 364.10957725 0 -665.43410682 0 30777
0.16650000 0.16650700 8602.67618015 0 -1.62894191 0 2144.61602430 0 537.25425281 0 -515.06742244 0 29211
0.16750000 0.16749900 8658.63126875 0 10.26450349 0 2012.80823977 0 218.31135689 0 192.35351955 0 30922
0.16850000 0.16850800 8626.58880077 0 37.36768437 0 1696.83112991 0 129.23906332 0 155.85128128 0 30867
0.16950000 0.16949900 8663.51139541 0 -9.01781968 0 2071.01484135 0 -111.76044605 0 624.49649889 0 30852
0.17050000 0.17049200 8752.66243648 0 16.39877834 0 1823.43714308 0 -134.97432126 0 142.95111011 0 31257
0.17150000 0.17149500 8694.04546061 0 99.27242376 0 1893.27841026 0 -42.21775389 0 259.40756894 0 32608
0.17250000 0.17250900 8649.50321366 0 144.28316286 0 2185.81982096 0 -312.04195318 0 376.47848009 0 32361
0.17350000 0.17350400 8624.74766207 0 -6.25027767 0 2181.33897740 0 231.79714326 0 -106.83750737 0 32508
0.17450000 0.17449800 8445.99084086 0 -3.82688441 0 2006.61935187 0 424.95588371 0 622.29822365 0 32791
0.17550000 0.17549800 8489.53488008 0 28.81892250 0 1614.76736369 0 458.29713086 0 385.08968540 0 33633
0.17650000 0.17650100 8505.35092693 0 52.06584948 0 1548.09817884 0 101.97789943 0 677.58673132 0 33984
0.17750000 0.17750300 8162.71057960 0 208.37031707 0 1434.03630942 0 22.82246687 0 734.08639769 0 34069
0.17850000 0.17849800 8032.41119786 0 152.18674981 0 1482.75993761 0 -227.47601293 0 714.31190265 0 34536
