### header ###
fiducial parameters:
Omega_m = 0.31
Omega_nu = 0
Omega_de = 0.69
Omega_k = 0
H_0 = 100
w_de = -1
zeff = 0
beta = 0
fgrowth = 0
b_1 = 2
gamma = 0.55
Lx = 3500 Ly = 3500 Lz = 3500
nx = 700 ny = 700 nz = 700
xoffset = 1379.75464 yoffset = 22.6059522 zoffset = 368.141391
bins = 400 dk = 0.001
kx_ny = 0.628318531 ky_ny = 0.628318531 kz_ny = 0.628318531
############################
A(data) = 3.3418872 (not used)
A(ran) = 3.34787106 (used)
Ngal = 187837
weighted Ngal = 0
Nran = 9399747
weighted Nran = 0
SN(data) = 6619.03477
SN(ran) = 133.162853
SN(data+ran) = 6752.19762
############################
13 columns: k_central k_mean P_0(k) sigma^{lin}_{P_0(k)} P^img_1(k) sigma^{lin}_{P_1(k)} P_2(k) sigma^{lin}_{P_2(k)} P^img_3(k) sigma^{lin}_{P_3(k)} P_4(k) sigma^{lin}_{P_4(k)} N_modes
### header ###
0.00050000 0 0 0 0 0 0 0 0 0 0 0 0
0.00150000 0.00179520 59966.44180405 0 -40965.77957614 0 -74257.00542395 0 74535.83811523 0 36572.77828889 0 3
0.00250000 0.00253879 91157.10586184 0 -30973.94206942 0 -4295.37657171 0 -104857.28506819 0 15124.17798254 0 6
0.00350000 0.00331552 100943.42348910 0 -5756.10939219 0 -69895.61404800 0 -8495.15811693 0 -2355.52622547 0 7
0.00450000 0.00420575 101631.41043580 0 4820.94403030 0 -18043.93557915 0 -55085.76058698 0 -5863.46108745 0 24
0.00550000 0.00557378 95199.84714947 0 5200.39606029 0 -8572.05338537 0 -25573.63827533 0 -10570.50961629 0 45
0.00650000 0.00659388 92233.72834960 0 959.37855394 0 63750.09273096 0 -4359.25077494 0 -44806.10651946 0 40
0.00750000 0.00754703 70697.17485145 0 15550.19085732 0 26487.66381584 0 -35143.56665014 0 -28017.47261091 0 57
0.00850000 0.00846663 66785.30968781 0 18201.09783991 0 60008.58835245 0 -7686.06639075 0 -15318.93940095 0 75
0.00950000 0.00948925 51540.57039445 0 7499.49027569 0 70769.37854358 0 1132.96576826 0 -12807.55967596 0 112
0.01050000 0.01054430 44576.29691869 0 793.67607154 0 60653.20871908 0 26386.51209967 0 -8071.48548471 0 105
0.01150000 0.01145670 49577.31762265 0 -6967.63410843 0 41774.43874563 0 34518.68861408 0 -2249.68293299 0 144
0.01250000 0.01249090 62316.77734934 0 -11259.67222987 0 32659.13853374 0 16299.95577102 0 708.93932685 0 169
0.01350000 0.01339930 66124.05252576 0 -4184.83061173 0 4699.30687337 0 27671.31635415 0 -6618.98233237 0 180
0.01450000 0.01448870 79707.88507613 0 -5324.00745028 0 8958.71469338 0 -3510.85184678 0 2546.61645769 0 267
0.01550000 0.01550050 79517.89287240 0 1398.62211756 0 -17120.26069731 0 -22942.69544725 0 -27991.63012202 0 238
0.01650000 0.01653350 80705.53824162 0 5339.75694995 0 21411.88844445 0 -13789.24151785 0 -13528.48747759 0 315
0.01750000 0.01747870 68308.68558865 0 6227.29671214 0 19258.42164499 0 -22341.99622053 0 -39930.74907693 0 297
0.01850000 0.01844180 63519.50674641 0 3671.07527789 0 26957.48691856 0 -7525.34385578 0 -16679.82926649 0 388
0.01950000 0.01947590 65264.26293833 0 -993.26659710 0 33201.16532860 0 9808.05637328 0 -29758.34688390 0 399
0.02050000 0.02045430 68064.56834382 0 -3953.69006733 0 21338.46472065 0 8908.13883530 0 -34559.83695475 0 462
0.02150000 0.02154770 74433.46636740 0 -2667.23322450 0 18655.50417888 0 8153.99289880 0 -11730.04989244 0 571
0.02250000 0.02255340 71837.34989773 0 -1039.20522574 0 9554.54488464 0 2285.40767836 0 -9900.52368224 0 510
0.02350000 0.02348930 76965.14298280 0 659.37276769 0 9886.64859486 0 -4744.24840341 0 -12690.43663619 0 555
0.02450000 0.02439640 75135.31731028 0 3545.17910133 0 17653.96909446 0 -4134.57639836 0 -22461.00476378 0 592
0.02550000 0.02547300 68787.60347288 0 5289.53601017 0 29989.93107618 0 -9558.22716202 0 -8433.39124113 0 837
0.02650000 0.02652900 62995.66951455 0 3794.05446965 0 32175.56234679 0 -3951.78238145 0 -18069.00168426 0 723
0.02750000 0.02749970 61258.45533655 0 1017.90014552 0 35588.54547170 0 6303.07176969 0 -1811.53628875 0 826
0.02850000 0.02848090 61056.70646406 0 -724.23741480 0 33305.20075597 0 10854.45534936 0 -10314.29187559 0 831
0.02950000 0.02946900 62342.17619036 0 1532.53722952 0 28955.23331288 0 4812.62563259 0 4114.03550161 0 996
0.03050000 0.03053250 54403.65197467 0 3517.50656495 0 28411.54283848 0 -215.59068628 0 395.20152966 0 1041
0.03150000 0.03150510 53747.82949912 0 3890.37042395 0 30139.88405892 0 -57.08883076 0 613.52397775 0 1036
0.03250000 0.03246190 49064.79341167 0 1490.80105540 0 27041.22545552 0 -1383.36063056 0 8641.57300784 0 1059
0.03350000 0.03345080 48691.79645830 0 693.23530109 0 35003.15209677 0 3398.94166957 0 -1962.22129049 0 1302
0.03450000 0.03451200 46604.21136871 0 623.07571656 0 26206.28014926 0 3009.54083592 0 3762.12291364 0 1339
0.03550000 0.03553350 46938.16730882 0 1919.52018224 0 28303.40366823 0 1615.95412177 0 -3288.86153986 0 1365
0.03650000 0.03647120 46101.22558710 0 85.44314302 0 24654.28896030 0 3525.62532111 0 4275.66751474 0 1308
0.03750000 0.03744890 44177.34656447 0 229.74416271 0 27075.27543015 0 4428.00510482 0 2811.99552707 0 1579
0.03850000 0.03847530 44779.37673481 0 745.25966950 0 23884.89262800 0 965.49645818 0 8407.91476174 0 1662
0.03950000 0.03950240 42921.15759811 0 -172.21523325 0 20819.39670348 0 5117.37845114 0 5572.60553868 0 1683
0.04050000 0.04050350 44055.34339803 0 1025.67285634 0 24815.00040408 0 1796.74063202 0 11563.68193822 0 1822
0.04150000 0.04152450 42189.36042347 0 1342.37865784 0 21738.74601852 0 1351.56216891 0 11350.50913287 0 1887
0.04250000 0.04250150 40608.19938653 0 -57.71038143 0 21373.18016710 0 5439.74409044 0 14868.52589288 0 1920
0.04350000 0.04349210 41645.00447725 0 -1052.62446493 0 17181.26228052 0 3515.95379737 0 13729.12723039 0 2005
0.04450000 0.04448520 43037.61516607 0 344.43268475 0 17719.18533251 0 2338.82288287 0 10941.96489328 0 2151
0.04550000 0.04548030 41372.49376823 0 323.72320181 0 15675.85411874 0 -2237.74880508 0 9990.56201907 0 2274
0.04650000 0.04648670 39650.69635399 0 1480.02041197 0 17076.00682148 0 -2801.89144665 0 6953.63701789 0 2311
0.04750000 0.04749250 40835.79074790 0 146.45149186 0 16597.86532105 0 -379.16254975 0 3522.73051871 0 2568
0.04850000 0.04851840 39191.29897639 0 222.20103966 0 15432.84599360 0 880.70093015 0 -629.55852118 0 2493
0.04950000 0.04949480 39419.22307368 0 36.81911377 0 15125.50892617 0 1834.87216713 0 -2356.26933567 0 2644
0.05050000 0.05050630 38312.65435415 0 1003.69454047 0 12574.75545202 0 857.76544398 0 -2638.07446773 0 2829
0.05150000 0.05149060 37961.39614680 0 823.00563275 0 13306.77445060 0 -27.22678118 0 -4401.16440821 0 2784
0.05250000 0.05249300 35745.81864443 0 445.57996444 0 11044.08154359 0 545.57265052 0 -4395.10861467 0 3055
0.05350000 0.05348950 34511.81207197 0 2065.67997562 0 14026.26039663 0 -358.19907840 0 -3066.71595618 0 3009
0.05450000 0.05448610 32926.99094004 0 1012.89801570 0 12989.67712985 0 -1087.24230884 0 -2818.21768856 0 3336
0.05550000 0.05550870 32541.90458199 0 -26.04656691 0 15084.58240943 0 1400.85144815 0 -1950.12079462 0 3349
0.05650000 0.05647670 31121.67681277 0 661.91154267 0 14537.78639988 0 697.68398019 0 -19.43732265 0 3324
0.05750000 0.05747970 31757.75695775 0 1051.93126512 0 16422.40258532 0 -1074.18020620 0 -2262.14943836 0 3639
0.05850000 0.05849280 31181.68018826 0 415.21892191 0 18307.90606652 0 -327.63395785 0 1898.87946472 0 3846
0.05950000 0.05951020 31205.63717367 0 -395.50764669 0 18488.24892890 0 1655.05059101 0 2803.66603816 0 3787
0.06050000 0.06049470 30868.24296251 0 35.50846703 0 18670.58820673 0 751.90773295 0 5365.92108355 0 3930
0.06150000 0.06148310 32250.98248604 0 226.14950577 0 18253.33737754 0 1442.21052157 0 3514.80031289 0 4083
0.06250000 0.06249100 31788.03592542 0 54.46409900 0 17723.06725144 0 1872.84842548 0 4802.05572190 0 4303
0.06350000 0.06350600 31899.94610263 0 -466.36930400 0 18298.03490124 0 3181.12165270 0 7875.01602196 0 4470
0.06450000 0.06451750 32514.17658962 0 -202.08937223 0 16370.27395967 0 803.08140655 0 6318.14470634 0 4479
0.06550000 0.06550280 30567.00605339 0 702.65394554 0 13785.24868695 0 1247.30491760 0 7404.30562348 0 4636
0.06650000 0.06648880 31886.74757826 0 539.61889600 0 15097.67002183 0 1592.11913952 0 7966.20784327 0 4653
0.06750000 0.06749660 30220.96070861 0 139.97756020 0 13155.82326013 0 553.57494912 0 6536.75219819 0 5220
0.06850000 0.06852730 30027.08658595 0 557.24613531 0 13083.17592012 0 192.84818694 0 5823.08913056 0 5029
0.06950000 0.06949320 28902.88286328 0 628.03902719 0 10647.73762064 0 -296.14715883 0 1918.30015057 0 5040
0.07050000 0.07048030 29252.03374321 0 -20.75440229 0 11372.80243874 0 766.06897321 0 6431.37473599 0 5475
0.07150000 0.07148790 28257.92976074 0 -533.29247726 0 9871.14310152 0 1476.11631064 0 -1150.45658585 0 5509
0.07250000 0.07249820 29201.01423725 0 265.67409522 0 9514.43911647 0 245.18976358 0 3755.76765779 0 5916
0.07350000 0.07351270 28506.48348435 0 439.57962689 0 8712.30157078 0 283.00298133 0 -48.46930705 0 5721
0.07450000 0.07449140 28445.59281311 0 347.50716454 0 8195.21887786 0 1049.39138102 0 1042.00353473 0 6028
0.07550000 0.07549160 27435.73933097 0 450.85937418 0 8266.86801015 0 412.76998563 0 3702.80719236 0 6183
0.07650000 0.07648840 27092.68860936 0 623.52047356 0 9029.06615562 0 -160.95545011 0 2586.18984840 0 6330
0.07750000 0.07749960 26181.76860400 0 529.46157784 0 9467.78954211 0 858.62168439 0 5164.80440929 0 6583
0.07850000 0.07848650 25948.29890824 0 453.27170952 0 9775.64789580 0 -47.89522669 0 4479.08006677 0 6549
0.07950000 0.07947320 25083.96193007 0 351.59537974 0 10410.98493059 0 -80.10716817 0 5780.06637760 0 6828
0.08050000 0.08048110 24886.98227227 0 507.32133049 0 10943.56202564 0 271.19972954 0 4935.38300041 0 7147
0.08150000 0.08149960 24175.03834016 0 638.70986778 0 11367.14592829 0 -671.96460359 0 6031.28198847 0 7386
0.08250000 0.08250610 23680.26004430 0 186.37314616 0 11026.50199642 0 122.05418594 0 4202.12178777 0 7227
0.08350000 0.08350160 23435.47732766 0 73.47474330 0 11818.66855606 0 1181.06828943 0 4062.82744530 0 7798
0.08450000 0.08449610 23833.31856219 0 -40.70691104 0 9487.19913677 0 724.92728725 0 3748.28109985 0 7371
0.08550000 0.08548940 23083.77547243 0 20.34003517 0 8508.40100609 0 1451.28312067 0 1477.69126061 0 8256
0.08650000 0.08650700 22710.00213527 0 651.40374268 0 8666.22873866 0 -253.35066629 0 3063.17786436 0 8037
0.08750000 0.08749060 21885.37164217 0 570.26165493 0 7894.17051909 0 924.37695461 0 1451.82658933 0 8155
0.08850000 0.08849210 21050.42633591 0 447.22700718 0 7450.87755947 0 741.47646222 0 2512.52211827 0 8718
0.08950000 0.08949900 20292.01028859 0 285.52179216 0 5891.18907982 0 371.36211094 0 2271.74332372 0 8571
0.09050000 0.09049190 19942.41576078 0 529.43939544 0 6443.22013433 0 590.62176517 0 1720.41101462 0 8932
0.09150000 0.09150830 19162.26096744 0 356.30692020 0 6164.26543988 0 -239.74509499 0 1964.81663057 0 9285
0.09250000 0.09250820 18949.19907407 0 178.65256396 0 6134.14174897 0 449.84120230 0 2386.75903608 0 9204
0.09350000 0.09350330 18286.05640853 0 401.93832269 0 6731.58016378 0 -156.65428394 0 1600.69263476 0 9349
0.09450000 0.09448040 18487.25072118 0 317.06404716 0 6224.88992240 0 -679.47667128 0 399.72008330 0 9564
0.09550000 0.09549270 17492.25944295 0 640.77393953 0 7832.22618414 0 -845.21797288 0 1503.17883120 0 10155
0.09650000 0.09649430 17160.29991829 0 634.97546176 0 8314.37160667 0 -802.00445133 0 710.95570646 0 9913
0.09750000 0.09749140 16863.94313583 0 -95.27648732 0 8785.44801466 0 461.57457956 0 1039.10318673 0 10476
0.09850000 0.09850240 16544.18392782 0 -114.48333490 0 8172.13809701 0 995.34841477 0 347.46723623 0 10575
0.09950000 0.09950330 16770.44434556 0 184.49540652 0 8165.09518695 0 996.85238107 0 1747.72863271 0 10882
0.10050000 0.10051200 17169.28378782 0 -302.06209417 0 7620.86124390 0 884.33884275 0 2487.18982444 0 10875
0.10150000 0.10150300 16602.96727164 0 -18.76608341 0 6594.60388147 0 1269.65367945 0 2419.57788785 0 11118
0.10250000 0.10250800 17154.75431982 0 196.52935520 0 6322.11535485 0 -219.32509229 0 3807.05335248 0 11575
0.10350000 0.10349800 16391.12540993 0 284.45814637 0 6375.98529843 0 102.37052780 0 2411.88059716 0 11364
0.10450000 0.10450100 16118.39287697 0 434.42000207 0 6530.07529763 0 148.56658312 0 3098.23713791 0 12093
0.10550000 0.10551000 15607.53234554 0 175.41060710 0 6268.81106232 0 -131.26986148 0 2619.34143608 0 12067
0.10650000 0.10649700 15399.57240276 0 94.09128201 0 5955.05219185 0 779.24309695 0 2385.32827167 0 12054
0.10750000 0.10749900 15276.23829270 0 -33.78278770 0 4989.48585913 0 117.18847784 0 1196.86215388 0 12807
0.10850000 0.10850100 15257.71599379 0 -134.45414412 0 4897.86148114 0 329.05363106 0 1528.36693947 0 12736
0.10950000 0.10950300 15387.03935021 0 293.15586302 0 5036.98945566 0 -498.69459750 0 655.68827207 0 12933
0.11050000 0.11050200 15184.95774181 0 147.48297318 0 4580.84179877 0 -197.46101575 0 66.70223662 0 13428
0.11150000 0.11150900 14984.87254887 0 230.82333617 0 5565.70681418 0 -96.83524414 0 384.04378553 0 13453
0.11250000 0.11250000 14883.60992073 0 177.58559082 0 5109.19314779 0 -83.66256226 0 122.55994452 0 13668
0.11350000 0.11349100 14720.01476574 0 -32.30444206 0 5773.41165943 0 611.88913532 0 593.60529715 0 13791
0.11450000 0.11448600 14736.31882526 0 80.35694192 0 5689.14074502 0 83.49186874 0 900.64290227 0 14205
0.11550000 0.11549300 14725.78218816 0 319.53738408 0 5518.38067680 0 -268.58997090 0 848.02404570 0 14776
0.11650000 0.11649800 14230.44933245 0 152.76349205 0 6327.94932445 0 78.61196391 0 793.58845108 0 14553
0.11750000 0.11747300 13931.20883878 0 195.49676477 0 6228.68311176 0 135.46677041 0 1211.55798984 0 14568
0.11850000 0.11849100 13980.01010536 0 170.62697385 0 6102.94221196 0 -72.01791458 0 1071.17116446 0 16015
0.11950000 0.11950300 13630.08284164 0 171.40890324 0 5730.30017689 0 126.64926883 0 -53.49140103 0 15270
0.12050000 0.12050700 13459.05658470 0 64.90701548 0 5622.40501298 0 365.96291626 0 996.84128988 0 15999
0.12150000 0.12150000 13250.65299404 0 22.07869120 0 4861.85945584 0 671.11723614 0 -223.39667069 0 15670
0.12250000 0.12250700 13455.72922561 0 -198.70544805 0 3966.99950367 0 1306.66500367 0 1345.73929052 0 16887
0.12350000 0.12352200 13190.76053052 0 35.24416381 0 3683.28668573 0 420.73457415 0 612.78863139 0 16407
0.12450000 0.12449800 13416.13365251 0 50.53726072 0 2889.22353142 0 425.65795648 0 1456.68453359 0 16306
0.12550000 0.12549900 13081.62315255 0 170.43287790 0 2863.92451118 0 -148.27599376 0 840.42990315 0 17523
0.12650000 0.12650100 12775.94976466 0 331.32954467 0 3089.28654197 0 -716.91167922 0 939.28685067 0 17154
0.12750000 0.12750600 12448.42671878 0 214.91523239 0 3420.84678354 0 -234.71967366 0 327.52970060 0 18007
0.12850000 0.12850300 12466.83810571 0 122.30151963 0 3962.86248721 0 -162.41172427 0 589.85536346 0 17496
0.12950000 0.12949900 12334.07647824 0 50.45285671 0 3811.57856083 0 247.91376155 0 -244.03406085 0 18405
0.13050000 0.13049000 12364.24453394 0 102.37585157 0 3752.40702511 0 233.30221869 0 57.48478649 0 18100
0.13150000 0.13148800 11891.42680804 0 88.70428766 0 3632.38918294 0 -18.90561067 0 334.39071503 0 19059
0.13250000 0.13249300 11990.58210875 0 277.12797431 0 3935.96633461 0 -137.76819377 0 197.80706109 0 18957
0.13350000 0.13349100 11698.99454099 0 88.64317516 0 3712.83363440 0 363.51065262 0 586.23186942 0 19468
0.13450000 0.13450700 11639.43481337 0 -49.30990886 0 3703.42829939 0 279.41497912 0 705.80717283 0 19953
0.13550000 0.13551000 11765.65263464 0 -40.73774457 0 3211.14552284 0 519.29649583 0 985.57041554 0 19956
0.13650000 0.13649900 11807.46644714 0 81.38498497 0 3265.24838156 0 -0.41106194 0 707.19135421 0 19723
0.13750000 0.13749600 11487.81815109 0 252.82938003 0 3361.71961261 0 -317.42451106 0 297.13649360 0 20946
0.13850000 0.13851100 11459.86833478 0 117.19513255 0 3463.03769673 0 -243.99635078 0 864.54992916 0 20955
0.13950000 0.13949800 11277.86179286 0 -43.71972378 0 3734.25073571 0 150.80478667 0 158.75495664 0 20506
0.14050000 0.14048300 11577.43502243 0 -125.09871950 0 3434.61095896 0 274.19657095 0 763.60007277 0 21447
0.14150000 0.14148400 11610.70861328 0 -64.62796097 0 3016.70574914 0 274.44834112 0 5.42495952 0 21771
0.14250000 0.14249400 11659.39896788 0 186.64709872 0 3279.83330554 0 -154.93293017 0 -80.79116228 0 22470
0.14350000 0.14350900 11182.47749911 0 403.76947930 0 3712.55635448 0 -733.84904608 0 -178.46512273 0 22519
0.14450000 0.14449900 10713.60823932 0 343.85261515 0 3704.38214233 0 -315.96158218 0 -266.93405519 0 22218
0.14550000 0.14550500 10772.11430322 0 -77.68629261 0 4110.57504816 0 483.38985483 0 -33.21580571 0 23559
0.14650000 0.14650700 10625.37776759 0 -69.65016586 0 3216.71330371 0 662.82323906 0 -409.43375358 0 23044
0.14750000 0.14750500 10704.69091697 0 -5.17190278 0 3178.95886930 0 456.41162738 0 137.71273779 0 23649
0.14850000 0.14849900 10605.94599054 0 270.23479540 0 3226.59556019 0 -348.67617670 0 -342.97419235 0 23640
0.14950000 0.14949500 10269.64980787 0 294.98036492 0 3357.62696094 0 -371.87008776 0 223.76378931 0 24457
0.15050000 0.15050000 9925.77833769 0 91.27666896 0 3374.01975003 0 226.89372509 0 327.30011282 0 24591
0.15150000 0.15149900 10075.01039263 0 -4.76584296 0 3216.34729421 0 248.69347269 0 176.63840260 0 25020
0.15250000 0.15250500 10025.98730212 0 66.38746845 0 3127.29607391 0 383.87741757 0 162.76886081 0 25297
0.15350000 0.15350100 9818.78156073 0 215.11154657 0 3500.30411848 0 -27.16422683 0 704.81007423 0 25452
0.15450000 0.15450400 9492.43418173 0 69.67489923 0 2770.70300083 0 409.89958385 0 1171.90696075 0 26061
0.15550000 0.15549900 9664.96884145 0 -53.60453123 0 2956.18108740 0 541.48332621 0 1232.18761616 0 26128
0.15650000 0.15649500 9518.07702907 0 89.22002831 0 2513.74214994 0 141.15100884 0 1104.37155341 0 26331
0.15750000 0.15749700 9323.77034974 0 160.63380540 0 2473.96911768 0 217.94756563 0 1067.41790342 0 27345
0.15850000 0.15849900 9117.54063368 0 136.64909200 0 2303.58615016 0 -392.98994499 0 1111.02738070 0 26980
0.15950000 0.15949700 8992.23229056 0 149.62468331 0 2122.71091033 0 41.37127374 0 623.67907767 0 27777
0.16050000 0.16050000 8721.06361637 0 177.56784490 0 2361.93693731 0 -15.04953423 0 398.81171427 0 28224
0.16150000 0.16150500 8531.62597250 0 120.57572938 0 2019.58496110 0 -2.21683081 0 305.94734046 0 28075
0.16250000 0.16249700 8635.22884319 0 -35.01102685 0 1879.28131971 0 269.48613961 0 33.51460255 0 28590
0.16350000 0.16349900 8491.03219167 0 -47.17906811 0 1602.32304072 0 268.39920231 0 40.57869680 0 29163
0.16450000 0.16449100 8539.55617831 0 50.00532691 0 1547.13324470 0 -152.81894803 0 -83.68308097 0 28996
0.16550000 0.16550500 8665.29707812 0 -14.76282679 0 1550.77115730 0 -26.43553519 0 -59.94281755 0 30777
0.16650000 0.16650700 8489.91198077 0 121.01161342 0 1930.42282884 0 -441.23554259 0 -680.85752530 0 29211
0.16750000 0.16749900 8474.05156914 0 200.21274171 0 2131.43968233 0 -260.29819206 0 -378.93850757 0 30922
0.16850000 0.16850800 8316.12401579 0 122.46123286 0 2430.69126719 0 -193.59573361 0 -639.51508868 0 30867
0.16950000 0.16949900 8220.25170937 0 62.02419157 0 2348.13948830 0 300.59361969 0 0.24658060 0 30852
0.17050000 0.17049200 8225.49784553 0 -35.36860704 0 2512.93249256 0 119.98567771 0 -371.38096597 0 31257
0.17150000 0.17149500 8288.83967130 0 38.84813734 0 2312.25946617 0 347.26426733 0 316.49506876 0 32608
0.17250000 0.17250900 8177.19568282 0 84.91320563 0 2372.49575680 0 78.93704689 0 544.63766262 0 32361
0.17350000 0.17350400 8055.19251639 0 143.58552657 0 2088.47238535 0 -11.05765717 0 343.55537107 0 32508
0.17450000 0.17449800 7937.61473754 0 98.21476722 0 2426.31024439 0 -51.01640043 0 610.79332506 0 32791
0.17550000 0.17549800 7737.10807911 0 216.84953713 0 2399.89101326 0 -210.17818217 0 348.37782350 0 33633
0.17650000 0.17650100 7557.29759419 0 155.17471826 0 2810.11002359 0 -189.12487212 0 365.31297212 0 33984
0.17750000 0.17750300 7414.24333595 0 32.29135444 0 2476.53118417 0 100.46750023 0 173.54174041 0 34069
0.17850000 0.17849800 7437.93413263 0 -62.65982807 0 2547.96958372 0 328.26948344 0 155.22130129 0 34536
