### header ###
fiducial parameters:
Omega_m = 0.31
Omega_nu = 0
Omega_de = 0.69
Omega_k = 0
H_0 = 100
w_de = -1
zeff = 0
beta = 0
fgrowth = 0
b_1 = 2
gamma = 0.55
Lx = 3500 Ly = 3500 Lz = 3500
nx = 700 ny = 700 nz = 700
xoffset = 1379.75464 yoffset = 22.6059522 zoffset = 368.141391
bins = 400 dk = 0.001
kx_ny = 0.628318531 ky_ny = 0.628318531 kz_ny = 0.628318531
############################
A(data) = 3.35662084 (not used)
A(ran) = 3.35645685 (used)
Ngal = 188549
weighted Ngal = 0
Nran = 9399747
weighted Nran = 0
SN(data) = 6637.26982
SN(ran) = 133.504356
SN(data+ran) = 6770.77418
############################
13 columns: k_central k_mean P_0(k) sigma^{lin}_{P_0(k)} P^img_1(k) sigma^{lin}_{P_1(k)} P_2(k) sigma^{lin}_{P_2(k)} P^img_3(k) sigma^{lin}_{P_3(k)} P_4(k) sigma^{lin}_{P_4(k)} N_modes
### header ###
0.00050000 0 0 0 0 0 0 0 0 0 0 0 0
0.00150000 0.00179520 19093.38463440 0 -18474.38493272 0 -16382.14154040 0 5370.08028241 0 45086.38106634 0 3
0.00250000 0.00253879 32358.45618447 0 -15902.66909633 0 -17088.98352191 0 -20520.15620982 0 -10006.14515078 0 6
0.00350000 0.00331552 38378.97971190 0 -6343.61009454 0 -23186.03630829 0 -23273.32402827 0 6591.15451922 0 7
0.00450000 0.00420575 44595.92833729 0 -3065.38501255 0 -28153.56159746 0 -18719.16764936 0 -5425.68045271 0 24
0.00550000 0.00557378 46260.38426331 0 -3025.29033558 0 -26218.36955393 0 -13916.79028275 0 -367.22731272 0 45
0.00650000 0.00659388 48058.37820059 0 -2510.52570282 0 -9958.81901340 0 -25456.84797147 0 -43372.23657799 0 40
0.00750000 0.00754703 53746.72037942 0 -4626.72608054 0 -15366.74245979 0 -18018.53673814 0 -17591.30383170 0 57
0.00850000 0.00846663 57537.24784845 0 -416.11952710 0 -6929.18092861 0 -16234.96135690 0 -34666.86700530 0 75
0.00950000 0.00948925 57980.67390244 0 3649.23671110 0 -5167.18901663 0 -16374.71043845 0 -25429.56362698 0 112
0.01050000 0.01054430 53436.83233669 0 225.35093959 0 19720.92455773 0 -10999.21765193 0 -29588.98430650 0 105
0.01150000 0.01145670 52651.13194488 0 706.06116125 0 12536.82355845 0 2753.93311105 0 -27387.15988834 0 144
0.01250000 0.01249090 54061.15581290 0 -176.22691919 0 13866.99080845 0 5730.11162654 0 -15840.00383357 0 169
0.01350000 0.01339930 50265.74821722 0 -1048.90447747 0 -867.59224448 0 7517.16964363 0 -7758.23680930 0 180
0.01450000 0.01448870 56346.94059196 0 -276.24511503 0 9420.60759029 0 -6615.98770919 0 -8177.04040606 0 267
0.01550000 0.01550050 51770.49090719 0 3694.55534183 0 -1921.59423607 0 -2830.78401470 0 -28452.58026718 0 238
0.01650000 0.01653350 47585.89321059 0 5151.48388175 0 18945.20624317 0 -15275.46190891 0 -14442.73484204 0 315
0.01750000 0.01747870 44984.89661427 0 1159.34063460 0 17161.63086192 0 2359.41923560 0 -14424.10163116 0 297
0.01850000 0.01844180 47004.27084263 0 -7082.12853453 0 4607.36085067 0 14508.50563994 0 -13487.00640101 0 388
0.01950000 0.01947590 54121.15918839 0 -1803.85008927 0 5620.03149683 0 3940.08116867 0 -6479.84326665 0 399
0.02050000 0.02045430 53714.22317236 0 -678.94318471 0 388.44588160 0 8566.00868304 0 992.19296924 0 462
0.02150000 0.02154770 60222.75936552 0 -2593.72077113 0 -10147.75755341 0 6962.49888425 0 14774.69436670 0 571
0.02250000 0.02255340 58700.15984847 0 -853.53526147 0 -11911.61278648 0 7687.46388157 0 11424.48741652 0 510
0.02350000 0.02348930 54850.07265183 0 2894.08147568 0 -8134.59439534 0 -9309.96180953 0 15690.82723462 0 555
0.02450000 0.02439640 53559.94462281 0 2651.28408329 0 3579.27344075 0 -4959.98327525 0 10630.24680305 0 592
0.02550000 0.02547300 50891.84628495 0 1513.23854683 0 4383.69577301 0 -284.27292338 0 15916.20035661 0 837
0.02650000 0.02652900 53527.55832773 0 -1906.55457301 0 7469.62168231 0 -2794.97053976 0 9638.10596245 0 723
0.02750000 0.02749970 53168.53628251 0 -1109.31933637 0 6251.22042396 0 -534.86964547 0 6964.65057645 0 826
0.02850000 0.02848090 56121.67838195 0 633.36391085 0 11690.01067146 0 -5570.06565458 0 4055.04142504 0 831
0.02950000 0.02946900 55647.30788847 0 2966.99500442 0 21256.27895127 0 -9264.48790205 0 1667.60582595 0 996
0.03050000 0.03053250 53743.06028443 0 3405.24146944 0 23136.68048187 0 -7268.66028481 0 4302.94076803 0 1041
0.03150000 0.03150510 51406.25599941 0 -759.37099938 0 27832.69326975 0 7348.72763557 0 -2915.89786008 0 1036
0.03250000 0.03246190 52181.41975412 0 -947.69065060 0 26128.53085865 0 4013.98181394 0 9462.46576757 0 1059
0.03350000 0.03345080 55132.23270219 0 -1014.94988713 0 27220.23737427 0 4758.76678021 0 -4443.73242209 0 1302
0.03450000 0.03451200 52426.64611864 0 2545.89552989 0 25069.43246207 0 1210.81487964 0 5830.80860363 0 1339
0.03550000 0.03553350 50976.36120570 0 902.14797769 0 21041.33155441 0 3050.70026779 0 4447.15960195 0 1365
0.03650000 0.03647120 51910.46181267 0 -3135.49246846 0 19641.40067561 0 7669.46286892 0 8702.87405338 0 1308
0.03750000 0.03744890 52753.50369271 0 117.81845782 0 13461.49664803 0 1668.08274742 0 -1281.90945208 0 1579
0.03850000 0.03847530 50607.35708323 0 1975.47527084 0 15863.18443520 0 -533.58417574 0 -2204.25339029 0 1662
0.03950000 0.03950240 47885.57735213 0 4571.18136623 0 15098.33549365 0 -8381.37352744 0 -247.95147162 0 1683
0.04050000 0.04050350 43846.60707147 0 1855.67925260 0 17232.83634633 0 675.88645083 0 -4050.03929522 0 1822
0.04150000 0.04152450 40857.30766998 0 1157.58822549 0 22716.21320556 0 1291.55879342 0 -2017.18926256 0 1887
0.04250000 0.04250150 40022.58418766 0 1230.56830141 0 16910.63707499 0 2104.32170579 0 -3189.96133667 0 1920
0.04350000 0.04349210 38163.25593126 0 1065.04105991 0 20115.88208105 0 3383.91309771 0 -3443.10681582 0 2005
0.04450000 0.04448520 37913.92582387 0 1059.79381463 0 17764.99197591 0 -973.87918483 0 -185.32280981 0 2151
0.04550000 0.04548030 35828.44806169 0 -223.42772604 0 15681.51062918 0 4763.84654841 0 3084.41750651 0 2274
0.04650000 0.04648670 36570.33822556 0 -1440.85739554 0 14997.62742536 0 3264.25017383 0 744.28142593 0 2311
0.04750000 0.04749250 39001.30677267 0 -1147.73924260 0 9890.18668668 0 2359.49687398 0 3562.15972386 0 2568
0.04850000 0.04851840 39748.85344698 0 -493.46842550 0 9639.93600994 0 3206.05466344 0 2737.71778111 0 2493
0.04950000 0.04949480 39192.18627215 0 299.23051159 0 8189.18526672 0 -2139.92444799 0 3433.06928258 0 2644
0.05050000 0.05050630 39373.97099013 0 515.02749413 0 7297.80795039 0 -1246.57289860 0 -378.33292822 0 2829
0.05150000 0.05149060 40164.55150860 0 -537.45611260 0 9990.28473914 0 1477.12560956 0 317.03631917 0 2784
0.05250000 0.05249300 39032.58394806 0 243.34751576 0 8980.06524751 0 -2894.61385314 0 -3831.30980020 0 3055
0.05350000 0.05348950 38895.38584181 0 1287.63250970 0 11908.06360346 0 -3216.12547027 0 -5274.47416471 0 3009
0.05450000 0.05448610 38287.14460117 0 1263.78643627 0 13627.53186634 0 -1786.27054210 0 -5333.12441417 0 3336
0.05550000 0.05550870 36697.55425455 0 508.28848286 0 15116.85779255 0 -1682.35711789 0 -7343.10439872 0 3349
0.05650000 0.05647670 37317.44125199 0 270.61411434 0 16408.42767717 0 1532.74796226 0 -5960.52015194 0 3324
0.05750000 0.05747970 36719.07117663 0 -424.21277352 0 12166.93214023 0 4071.38984934 0 -4626.79262772 0 3639
0.05850000 0.05849280 36860.92758560 0 104.94690194 0 13053.11877639 0 1532.22667600 0 -3984.31286210 0 3846
0.05950000 0.05951020 37137.87477340 0 649.09566460 0 11382.11904417 0 1388.55131074 0 -805.49596013 0 3787
0.06050000 0.06049470 34146.24622055 0 2156.29505469 0 14662.78418949 0 -56.08152825 0 2205.99470821 0 3930
0.06150000 0.06148310 31998.10319562 0 1709.90765111 0 12311.22861253 0 -300.05458752 0 595.36657922 0 4083
0.06250000 0.06249100 30333.75818157 0 1175.47832616 0 15127.39442965 0 -456.01345341 0 2616.67954881 0 4303
0.06350000 0.06350600 28474.87357305 0 1097.17669395 0 16092.55038808 0 1196.57378276 0 4493.77590272 0 4470
0.06450000 0.06451750 27973.99511887 0 43.15551459 0 14510.61296736 0 1267.66835520 0 2107.14996101 0 4479
0.06550000 0.06550280 28449.69655598 0 -255.29273488 0 13984.55749611 0 2323.10665679 0 4990.61716122 0 4636
0.06650000 0.06648880 28295.08527052 0 -347.22433902 0 11756.33602921 0 1077.18924793 0 2904.70684236 0 4653
0.06750000 0.06749660 28345.43930466 0 190.40035977 0 10691.98040527 0 803.86555417 0 5906.40620203 0 5220
0.06850000 0.06852730 28024.23824104 0 119.34017004 0 10862.76265588 0 551.70497332 0 3220.25139554 0 5029
0.06950000 0.06949320 28339.56097028 0 166.22598690 0 9819.91286282 0 -935.99941990 0 2771.93412369 0 5040
0.07050000 0.07048030 27259.83294737 0 490.58804165 0 11010.34212247 0 -410.91110102 0 769.83665282 0 5475
0.07150000 0.07148790 27509.60670265 0 565.87508654 0 11238.70986763 0 -974.29399560 0 -200.83052138 0 5509
0.07250000 0.07249820 26958.26330235 0 216.07426247 0 11875.89913231 0 -175.60913952 0 -72.32436436 0 5916
0.07350000 0.07351270 26956.93235872 0 -225.49845251 0 10348.36403262 0 973.36122594 0 -3214.90543861 0 5721
0.07450000 0.07449140 26627.08016148 0 -436.99870536 0 10349.58406428 0 1695.20072396 0 -488.06479435 0 6028
0.07550000 0.07549160 27480.88050255 0 -278.70846987 0 8073.57062973 0 1184.02963901 0 -2504.54754767 0 6183
0.07650000 0.07648840 27660.33606917 0 -103.91408968 0 7810.48743812 0 1121.97439209 0 -1587.70484314 0 6330
0.07750000 0.07749960 26670.00309367 0 1204.31543823 0 7724.98540085 0 -986.35899964 0 -1682.25729712 0 6583
0.07850000 0.07848650 25918.35267648 0 953.89506617 0 7380.21554371 0 -1023.32263171 0 -2132.53771083 0 6549
0.07950000 0.07947320 23853.28271669 0 1082.28010733 0 8901.41756995 0 33.45193729 0 -811.66710211 0 6828
0.08050000 0.08048110 23484.16768226 0 274.14998793 0 8241.80190504 0 938.87869462 0 -1762.70174859 0 7147
0.08150000 0.08149960 22685.04694214 0 313.20098326 0 8373.22149768 0 1199.59058833 0 -1443.24200289 0 7386
0.08250000 0.08250610 22103.86822205 0 606.77387528 0 6961.23448779 0 56.27373869 0 -548.19904596 0 7227
0.08350000 0.08350160 21180.19334020 0 449.46521073 0 7590.69318820 0 881.33423750 0 -255.40808332 0 7798
0.08450000 0.08449610 20831.70793209 0 257.28582297 0 6400.99594755 0 893.18739968 0 949.12696060 0 7371
0.08550000 0.08548940 20134.73711586 0 278.07405341 0 7063.68387401 0 -283.19374992 0 -904.40281803 0 8256
0.08650000 0.08650700 20109.67101076 0 507.71617710 0 6449.81939651 0 7.39895967 0 -309.67509175 0 8037
0.08750000 0.08749060 19572.74616650 0 18.93888426 0 6777.18716564 0 -234.15291349 0 -1289.76201952 0 8155
0.08850000 0.08849210 19488.67489363 0 59.14635870 0 6306.78732067 0 476.07077397 0 -531.85949462 0 8718
0.08950000 0.08949900 19505.20077708 0 -147.92994842 0 5423.08511262 0 73.04684492 0 -1813.01141794 0 8571
0.09050000 0.09049190 19515.51559025 0 48.56202945 0 5213.10657200 0 436.44414551 0 -1326.67352296 0 8932
0.09150000 0.09150830 19714.71348744 0 47.91064346 0 4152.48868143 0 1347.60261160 0 -1357.78433040 0 9285
0.09250000 0.09250820 18981.69628113 0 111.14266638 0 4796.13302273 0 540.85556446 0 -1379.25688769 0 9204
0.09350000 0.09350330 19439.20815524 0 235.30750709 0 2412.84553130 0 192.14389593 0 -850.26224925 0 9349
0.09450000 0.09448040 18696.54160759 0 177.61997353 0 4256.53520000 0 140.96911321 0 -1450.97256716 0 9564
0.09550000 0.09549270 18264.65039842 0 461.63114466 0 2896.23316789 0 -652.63486555 0 -482.14542254 0 10155
0.09650000 0.09649430 17879.67495235 0 369.98680252 0 4601.88179938 0 -426.61512678 0 -1467.12134992 0 9913
0.09750000 0.09749140 17305.15095043 0 374.82034615 0 4591.23425031 0 -1157.07803043 0 -2005.01112831 0 10476
0.09850000 0.09850240 17101.07292659 0 552.36157218 0 5685.52501481 0 -433.88429726 0 -1961.71109543 0 10575
0.09950000 0.09950330 16560.26616339 0 88.00631863 0 6041.11988017 0 -229.22953117 0 -1740.55262828 0 10882
0.10050000 0.10051200 16845.75357284 0 -174.48671039 0 5646.45072796 0 1006.39746517 0 -2038.04071283 0 10875
0.10150000 0.10150300 16830.22589711 0 -44.28005105 0 6057.86758756 0 410.74584218 0 -1243.22335712 0 11118
0.10250000 0.10250800 16708.88820250 0 353.71268923 0 5692.25737136 0 95.25807593 0 -500.22185532 0 11575
0.10350000 0.10349800 16471.75841174 0 390.30143885 0 5969.13801197 0 -207.84459433 0 92.89321092 0 11364
0.10450000 0.10450100 16041.19814621 0 82.24799100 0 5993.76046920 0 574.50847424 0 627.36911890 0 12093
0.10550000 0.10551000 15869.06276958 0 -35.29640334 0 5766.92330921 0 1011.77447745 0 825.39911305 0 12067
0.10650000 0.10649700 16135.91696815 0 -34.95324171 0 5403.79752113 0 854.95715292 0 2110.68805284 0 12054
0.10750000 0.10749900 15487.96924244 0 281.49346943 0 5066.80259305 0 30.69322387 0 1586.11880197 0 12807
0.10850000 0.10850100 15662.21194649 0 378.44162195 0 5049.31177547 0 -289.79966682 0 2364.06644712 0 12736
0.10950000 0.10950300 14740.08983222 0 403.38905125 0 5279.78684805 0 -335.99893859 0 868.69692770 0 12933
0.11050000 0.11050200 14521.70416431 0 263.65660649 0 5417.79461168 0 -225.84338874 0 1278.27153948 0 13428
0.11150000 0.11150900 14257.40094103 0 84.63781121 0 5464.18908851 0 -190.45803399 0 720.50522703 0 13453
0.11250000 0.11250000 14393.48992759 0 43.14730710 0 5143.27639601 0 550.00358370 0 -235.41730994 0 13668
0.11350000 0.11349100 14344.68866101 0 -86.36859249 0 4986.28050321 0 155.52187273 0 -44.58528079 0 13791
0.11450000 0.11448600 14318.18070031 0 -79.81025682 0 4204.04056485 0 425.26200075 0 -741.36000465 0 14205
0.11550000 0.11549300 14441.95845825 0 -32.65592209 0 4331.87770087 0 284.65224232 0 246.92886326 0 14776
0.11650000 0.11649800 14289.78723612 0 194.06378212 0 3838.49689583 0 -25.01564016 0 -471.57883920 0 14553
0.11750000 0.11747300 14279.02877508 0 38.01740669 0 3996.16935164 0 -68.42270309 0 -146.76870010 0 14568
0.11850000 0.11849100 14124.19566568 0 142.86792613 0 4597.11258469 0 -300.25533818 0 -231.49768094 0 16015
0.11950000 0.11950300 14220.68907913 0 185.23186199 0 4750.78111841 0 -195.72080695 0 -827.59738828 0 15270
0.12050000 0.12050700 13985.33387989 0 -0.87064232 0 5150.07529974 0 32.16779851 0 388.49135551 0 15999
0.12150000 0.12150000 14093.80578605 0 -52.17809240 0 5031.03348290 0 376.92101885 0 -509.34880129 0 15670
0.12250000 0.12250700 14131.84859158 0 -6.75818795 0 4763.63581567 0 279.65898545 0 602.91302963 0 16887
0.12350000 0.12352200 14264.61021905 0 72.43505450 0 4966.18325434 0 355.47729867 0 701.91416271 0 16407
0.12450000 0.12449800 14028.03498814 0 187.43457371 0 4990.28442531 0 -47.85241467 0 1576.78001414 0 16306
0.12550000 0.12549900 14102.78965557 0 58.58669690 0 4965.83942723 0 374.59186749 0 1341.51354448 0 17523
0.12650000 0.12650100 13605.57129638 0 281.39919425 0 4641.43300770 0 -185.53797903 0 819.05716663 0 17154
0.12750000 0.12750600 13443.75073291 0 477.81320101 0 5234.23530218 0 -337.78905778 0 1304.76840899 0 18007
0.12850000 0.12850300 12881.09431173 0 121.76803306 0 5353.89822606 0 114.27371128 0 1222.05026215 0 17496
0.12950000 0.12949900 12771.73510982 0 136.51710676 0 5333.95625395 0 552.19187686 0 1173.83682902 0 18405
0.13050000 0.13049000 12535.93626270 0 117.60217948 0 5113.67399136 0 230.74569779 0 1406.41922902 0 18100
0.13150000 0.13148800 12449.20310256 0 16.49039162 0 4390.03993767 0 739.88154810 0 1958.61665148 0 19059
0.13250000 0.13249300 12298.47373604 0 175.46939044 0 4608.72506789 0 329.64035538 0 1565.72209079 0 18957
0.13350000 0.13349100 12097.50124733 0 211.16529870 0 4386.95658492 0 -6.10476117 0 1976.69530251 0 19468
0.13450000 0.13450700 11706.75837885 0 112.16860210 0 4210.86165097 0 -168.46640869 0 1918.69943366 0 19953
0.13550000 0.13551000 11858.92960098 0 125.19632203 0 4236.27158318 0 -69.01208930 0 1913.33129434 0 19956
0.13650000 0.13649900 11616.47603569 0 -109.69215964 0 4006.89453909 0 602.54480189 0 967.83559162 0 19723
0.13750000 0.13749600 11799.36987337 0 -160.67706107 0 3064.08734251 0 599.08989404 0 948.34503122 0 20946
0.13850000 0.13851100 11805.13729578 0 42.95764764 0 3297.62358545 0 346.56441280 0 1500.01784007 0 20955
0.13950000 0.13949800 11571.66760002 0 393.86171307 0 2492.36941342 0 5.42616847 0 984.63431851 0 20506
0.14050000 0.14048300 11127.02151437 0 230.72906099 0 2928.18690630 0 -13.73489465 0 1546.55650246 0 21447
0.14150000 0.14148400 10885.00050576 0 57.34670108 0 2321.32097408 0 174.65862394 0 1072.13498948 0 21771
0.14250000 0.14249400 10788.81764582 0 71.39902579 0 3018.03669278 0 7.31491058 0 1209.63921276 0 22470
0.14350000 0.14350900 10803.14747228 0 137.77928497 0 2551.18603083 0 -37.87898855 0 776.94278270 0 22519
0.14450000 0.14449900 10691.92494928 0 17.29694346 0 2695.30504398 0 -72.93205104 0 885.75186124 0 22218
0.14550000 0.14550500 10625.10048767 0 -23.14078422 0 2633.01688192 0 75.76540821 0 453.31829255 0 23559
0.14650000 0.14650700 10676.14217603 0 134.63936711 0 2449.37993405 0 31.14885025 0 458.42357050 0 23044
0.14750000 0.14750500 10499.10449034 0 142.92005476 0 2496.24024115 0 -170.69019367 0 745.06113707 0 23649
0.14850000 0.14849900 10262.64017140 0 216.99594093 0 2775.47221552 0 110.47375629 0 227.75551109 0 23640
0.14950000 0.14949500 10154.71173390 0 169.92046461 0 3030.61411012 0 -165.50284086 0 866.37664929 0 24457
0.15050000 0.15050000 9948.94784812 0 -2.83190423 0 2407.49957437 0 403.93584726 0 132.41669125 0 24591
0.15150000 0.15149900 9932.47742065 0 39.91799420 0 2803.43312303 0 64.13484635 0 274.18880712 0 25020
0.15250000 0.15250500 9704.68641773 0 147.49739174 0 2328.96280878 0 -172.77644782 0 53.96122413 0 25297
0.15350000 0.15350100 9592.36586623 0 123.43836732 0 2066.17907948 0 258.71547825 0 249.16263032 0 25452
0.15450000 0.15450400 9424.46732683 0 141.88635520 0 2219.40396532 0 -99.99690074 0 0.73679930 0 26061
0.15550000 0.15549900 9136.86149876 0 240.20094319 0 2025.15274197 0 223.96010350 0 -215.54077589 0 26128
0.15650000 0.15649500 9008.04833741 0 118.81001083 0 2416.94927417 0 63.56021144 0 370.91291746 0 26331
0.15750000 0.15749700 8824.15629201 0 83.78955647 0 2161.34154930 0 -24.93367621 0 483.61278789 0 27345
0.15850000 0.15849900 8849.24457950 0 78.84620999 0 2612.13215806 0 132.50209346 0 655.38437327 0 26980
0.15950000 0.15949700 8636.51542204 0 174.37247106 0 2488.60949765 0 -426.90793437 0 216.27834049 0 27777
0.16050000 0.16050000 8562.50386480 0 104.20933734 0 2753.33418641 0 -322.06284962 0 628.23866874 0 28224
0.16150000 0.16150500 8662.89028838 0 -122.36584857 0 3183.11806816 0 119.65516004 0 268.80070364 0 28075
0.16250000 0.16249700 8933.02748125 0 -183.43286985 0 2759.23470319 0 213.70407368 0 -85.93403939 0 28590
0.16350000 0.16349900 9162.52652850 0 -80.94832454 0 2560.32517712 0 4.94868135 0 282.43733029 0 29163
0.16450000 0.16449100 9162.77053484 0 -33.41733276 0 2352.19886639 0 238.23780133 0 -394.86213903 0 28996
0.16550000 0.16550500 9352.03071956 0 55.11803597 0 2496.05169080 0 4.11139580 0 -72.32924448 0 30777
0.16650000 0.16650700 9166.41953863 0 132.33350727 0 2220.24689629 0 155.66384005 0 -444.47417210 0 29211
0.16750000 0.16749900 8890.37073779 0 193.51809523 0 2407.23338564 0 124.86802260 0 437.29816768 0 30922
0.16850000 0.16850800 8585.93956395 0 221.62429742 0 2243.61604826 0 -122.18284382 0 -113.69696904 0 30867
0.16950000 0.16949900 8458.30206947 0 130.39032956 0 2355.44858709 0 309.67841911 0 548.59943817 0 30852
0.17050000 0.17049200 8289.10586003 0 71.09157781 0 2337.66939838 0 76.74498272 0 149.06346874 0 31257
0.17150000 0.17149500 8357.79364273 0 -23.13512771 0 2016.80107067 0 146.27292359 0 680.99172878 0 32608
0.17250000 0.17250900 8284.50301329 0 -75.07365026 0 2130.27510665 0 369.90250942 0 840.76042082 0 32361
0.17350000 0.17350400 8509.86504408 0 23.17073046 0 1851.65314811 0 -141.99061245 0 432.87167097 0 32508
0.17450000 0.17449800 8206.44316917 0 220.89338754 0 2161.25281972 0 -197.51203525 0 287.39176796 0 32791
0.17550000 0.17549800 8134.35038901 0 193.25967034 0 2286.56116285 0 -218.73947709 0 370.49034286 0 33633
0.17650000 0.17650100 7920.21264953 0 66.34454552 0 2535.97999982 0 2.88810332 0 1126.59942121 0 33984
0.17750000 0.17750300 7968.89191293 0 -79.10396940 0 2254.74051880 0 465.11821698 0 610.75006939 0 34069
0.17850000 0.17849800 7966.52948798 0 90.46168781 0 2264.23458339 0 209.11231814 0 836.39936218 0 34536
