### header ###
fiducial parameters:
Omega_m = 0.31
Omega_nu = 0
Omega_de = 0.69
Omega_k = 0
H_0 = 100
w_de = -1
zeff = 0
beta = 0
fgrowth = 0
b_1 = 2
gamma = 0.55
Lx = 3500 Ly = 3500 Lz = 3500
nx = 700 ny = 700 nz = 700
xoffset = 1379.75464 yoffset = 22.6059522 zoffset = 368.141391
bins = 400 dk = 0.001
kx_ny = 0.628318531 ky_ny = 0.628318531 kz_ny = 0.628318531
############################
A(data) = 3.36106933 (not used)
A(ran) = 3.36355626 (used)
Ngal = 188831
weighted Ngal = 0
Nran = 9399747
weighted Nran = 0
SN(data) = 6659.76216
SN(ran) = 133.786738
SN(data+ran) = 6793.5489
############################
13 columns: k_central k_mean P_0(k) sigma^{lin}_{P_0(k)} P^img_1(k) sigma^{lin}_{P_1(k)} P_2(k) sigma^{lin}_{P_2(k)} P^img_3(k) sigma^{lin}_{P_3(k)} P_4(k) sigma^{lin}_{P_4(k)} N_modes
### header ###
0.00050000 0 0 0 0 0 0 0 0 0 0 0 0
0.00150000 0.00179520 52573.93721412 0 -46424.31215421 0 -62001.23279617 0 59800.73932164 0 3071.07479658 0 3
0.00250000 0.00253879 82169.02167894 0 -31960.83677388 0 -14450.60959187 0 -71010.16842933 0 -2621.38221632 0 6
0.00350000 0.00331552 89773.81177846 0 752.76840983 0 -37679.90156826 0 -58087.92577693 0 42374.25067659 0 7
0.00450000 0.00420575 85132.81132744 0 14657.46041495 0 -19780.81702125 0 -49889.20208083 0 3760.68105804 0 24
0.00550000 0.00557378 61668.49688772 0 9413.57577143 0 2731.71744356 0 -15852.75871006 0 -729.91721676 0 45
0.00650000 0.00659388 52333.14732837 0 8224.12253711 0 39511.72365623 0 -13644.61230964 0 -65207.03236208 0 40
0.00750000 0.00754703 45396.49093301 0 1277.61715886 0 13748.86956096 0 122.12960608 0 4294.33399920 0 57
0.00850000 0.00846663 42984.48833268 0 -1280.29013732 0 31025.29431129 0 4406.90964823 0 -48245.59760507 0 75
0.00950000 0.00948925 56528.94713388 0 -9468.34410196 0 3760.76978761 0 -6.41978444 0 -18107.37722570 0 112
0.01050000 0.01054430 66155.21878919 0 -7590.17190194 0 6589.19137736 0 2424.89057118 0 -29246.93179262 0 105
0.01150000 0.01145670 70735.32856895 0 -1105.31763251 0 12545.14195617 0 -19926.88808505 0 -37468.94700230 0 144
0.01250000 0.01249090 72586.89298749 0 2574.46645323 0 -1502.44681220 0 1481.63972672 0 -10937.18458740 0 169
0.01350000 0.01339930 69921.67836083 0 -1900.75387700 0 6142.73742661 0 -3211.91081543 0 -6552.11350597 0 180
0.01450000 0.01448870 83803.42046123 0 -11474.95236263 0 -16794.62315491 0 23820.45277373 0 812.06638520 0 267
0.01550000 0.01550050 87973.26686588 0 -9792.08504968 0 -5495.69917904 0 24465.96043611 0 -14342.02677375 0 238
0.01650000 0.01653350 108976.55561476 0 -8277.70410956 0 -57309.21283919 0 5296.97820332 0 16385.24707555 0 315
0.01750000 0.01747870 110310.05022385 0 -5764.56088426 0 -34131.27310467 0 -2841.26519582 0 5898.34290185 0 297
0.01850000 0.01844180 113922.12033397 0 4339.55280916 0 -47329.13200124 0 -26054.66348698 0 2758.23649546 0 388
0.01950000 0.01947590 109120.51935115 0 6322.58118512 0 -27073.05719076 0 -23775.97707397 0 -13788.46513406 0 399
0.02050000 0.02045430 94710.50354011 0 11178.15193230 0 -4279.05032981 0 -24379.22727598 0 -26569.73867325 0 462
0.02150000 0.02154770 79977.95572182 0 13644.27957373 0 22674.39939307 0 -23913.72974006 0 -20901.47156089 0 571
0.02250000 0.02255340 68593.72935022 0 7837.82723860 0 39097.68927415 0 -9335.87084561 0 -31035.05456461 0 510
0.02350000 0.02348930 62080.31303041 0 5279.14355863 0 47262.25208364 0 -705.33468784 0 -35553.16455344 0 555
0.02450000 0.02439640 57199.63181334 0 2270.60093044 0 43228.38375358 0 7183.22479471 0 -26250.97767296 0 592
0.02550000 0.02547300 55736.03746406 0 -1363.51847922 0 39255.40609475 0 9260.75016868 0 -20043.56747695 0 837
0.02650000 0.02652900 57179.11309899 0 915.07365861 0 33097.79537304 0 6483.38135848 0 -17389.00039936 0 723
0.02750000 0.02749970 55664.83197965 0 2253.85322305 0 35104.30381294 0 1618.52727946 0 -11537.95036130 0 826
0.02850000 0.02848090 52300.53920934 0 51.82151041 0 21774.01602481 0 5515.96279587 0 -6874.11313577 0 831
0.02950000 0.02946900 56090.62303049 0 -2845.16929714 0 22971.75438325 0 12008.66075978 0 -1870.57473011 0 996
0.03050000 0.03053250 58223.01655576 0 -2736.10955755 0 15382.49195946 0 5592.93570269 0 1232.66453763 0 1041
0.03150000 0.03150510 60889.56212605 0 -453.69206589 0 8726.67576203 0 2450.77742486 0 -5750.70797927 0 1036
0.03250000 0.03246190 61386.55866130 0 -72.46488982 0 13558.10097345 0 -4191.55187708 0 -5673.87925801 0 1059
0.03350000 0.03345080 58732.10249568 0 1911.87834754 0 11917.93476874 0 -4465.04970263 0 -11295.49679601 0 1302
0.03450000 0.03451200 57393.50593600 0 3472.53176132 0 19444.08828190 0 -7637.54240411 0 -14734.76605768 0 1339
0.03550000 0.03553350 54047.95728854 0 2240.48833072 0 21899.67928623 0 -4514.92681530 0 -14642.15456317 0 1365
0.03650000 0.03647120 50433.00346720 0 1047.64008102 0 26435.31336624 0 5725.95242769 0 -16078.35365599 0 1308
0.03750000 0.03744890 51591.25716450 0 -123.25758081 0 18833.18515399 0 5956.20567633 0 -10279.34351401 0 1579
0.03850000 0.03847530 49971.27693825 0 -94.91635616 0 8444.91499476 0 8913.29624188 0 -1650.20373794 0 1662
0.03950000 0.03950240 49748.67661550 0 -441.18785045 0 13627.64277831 0 3342.74257463 0 -2880.04002035 0 1683
0.04050000 0.04050350 49467.84750877 0 613.45410321 0 6038.03652742 0 2272.71934905 0 -1218.21270800 0 1822
0.04150000 0.04152450 48022.44272248 0 2395.92036476 0 7259.62095929 0 -2859.94277148 0 961.23965679 0 1887
0.04250000 0.04250150 43806.67876246 0 1794.10092715 0 9342.10409829 0 -2770.58099767 0 -3420.66932439 0 1920
0.04350000 0.04349210 43453.20231572 0 1433.18228726 0 11209.98366754 0 -3494.58106086 0 -7803.35579848 0 2005
0.04450000 0.04448520 41884.01977148 0 327.03059674 0 9861.27193624 0 764.87999690 0 -7924.42730437 0 2151
0.04550000 0.04548030 41597.97780219 0 -418.74037694 0 13008.75398860 0 -1387.75274456 0 -7691.85599556 0 2274
0.04650000 0.04648670 42478.06428003 0 -967.83004602 0 8238.41908997 0 1797.16209751 0 -14185.97363269 0 2311
0.04750000 0.04749250 43538.60453222 0 1003.18989101 0 13922.33588123 0 -2040.62496172 0 -13276.27365899 0 2568
0.04850000 0.04851840 42126.25151283 0 1583.05763162 0 10808.48233801 0 -3603.26369975 0 -9632.62691115 0 2493
0.04950000 0.04949480 39092.92005946 0 1738.74476318 0 16666.96347803 0 296.37896485 0 -10200.37419174 0 2644
0.05050000 0.05050630 38715.26480337 0 1553.78796287 0 15011.49142154 0 -972.79446577 0 -8529.29682114 0 2829
0.05150000 0.05149060 36312.13516060 0 1435.98836008 0 19286.48237326 0 945.05760044 0 -9348.10443584 0 2784
0.05250000 0.05249300 35524.77108925 0 817.95026518 0 19111.46328542 0 1132.44448200 0 -2432.36603793 0 3055
0.05350000 0.05348950 34822.25467455 0 -338.63087962 0 17547.93725163 0 2438.29982829 0 -4843.40370412 0 3009
0.05450000 0.05448610 34565.49346520 0 346.71192572 0 17372.03086803 0 2725.24018454 0 -1633.35620978 0 3336
0.05550000 0.05550870 34365.29736028 0 108.48144458 0 17025.09822749 0 1192.55876946 0 14.48465957 0 3349
0.05650000 0.05647670 33520.36997677 0 750.69324688 0 14132.29223946 0 691.26661364 0 -1182.27722989 0 3324
0.05750000 0.05747970 34019.69566337 0 440.01329269 0 14663.00601343 0 740.97624924 0 718.85152957 0 3639
0.05850000 0.05849280 32576.95276435 0 215.76925455 0 14852.22183336 0 530.23685250 0 555.89300928 0 3846
0.05950000 0.05951020 33108.55383408 0 -537.34630975 0 13852.12860454 0 1855.12469276 0 2329.15135913 0 3787
0.06050000 0.06049470 32627.75044637 0 608.93000397 0 13712.49043497 0 204.61483778 0 -1363.47411444 0 3930
0.06150000 0.06148310 32505.52545600 0 772.11256643 0 12331.08185506 0 1020.65852620 0 1362.03225883 0 4083
0.06250000 0.06249100 31436.33407019 0 628.50374835 0 14689.84671004 0 -46.15424151 0 4065.99952763 0 4303
0.06350000 0.06350600 30284.18053121 0 462.93436030 0 13531.92574865 0 1561.31888560 0 2911.22846617 0 4470
0.06450000 0.06451750 30749.12350728 0 284.99052382 0 14340.14127027 0 1448.14431194 0 6803.47330240 0 4479
0.06550000 0.06550280 29671.50281179 0 -224.29283941 0 10167.82152869 0 3293.88585208 0 5859.56807732 0 4636
0.06650000 0.06648880 30420.04769383 0 -414.36157239 0 11530.18652343 0 2139.62498568 0 9548.36708794 0 4653
0.06750000 0.06749660 29890.22121561 0 194.69708947 0 8613.60100914 0 543.33111962 0 6649.25020884 0 5220
0.06850000 0.06852730 30002.57504070 0 723.20371525 0 10510.57278798 0 4.35810838 0 8442.33074587 0 5029
0.06950000 0.06949320 28477.64637229 0 645.58308253 0 8557.40191420 0 -1665.43195135 0 5253.71144402 0 5040
0.07050000 0.07048030 28070.59944429 0 261.21987052 0 10688.12066873 0 -3.26842046 0 4573.52160878 0 5475
0.07150000 0.07148790 28564.82318030 0 36.78839116 0 8872.61373147 0 501.27773727 0 2655.38782616 0 5509
0.07250000 0.07249820 27397.14196559 0 463.29482420 0 8673.90384695 0 88.85945350 0 1243.89992014 0 5916
0.07350000 0.07351270 27492.85899525 0 216.54009274 0 8280.22181127 0 -170.61144618 0 329.52167957 0 5721
0.07450000 0.07449140 26930.75713392 0 230.63145846 0 7592.00194944 0 500.44589750 0 -1624.48325222 0 6028
0.07550000 0.07549160 26791.56261222 0 14.78367824 0 6001.21375355 0 1197.51653450 0 -1685.00791396 0 6183
0.07650000 0.07648840 25721.92757853 0 92.68658192 0 5968.82745846 0 787.01580777 0 -2424.29164655 0 6330
0.07750000 0.07749960 26021.27898416 0 517.69825435 0 4695.33622486 0 153.83046519 0 -2073.67672862 0 6583
0.07850000 0.07848650 25152.06187933 0 617.57448287 0 5558.55299215 0 -453.06874062 0 -1644.25885638 0 6549
0.07950000 0.07947320 24338.18984727 0 533.65959588 0 4093.07313938 0 -171.10056796 0 -2101.14962346 0 6828
0.08050000 0.08048110 24030.40913196 0 435.79641961 0 6228.90493570 0 67.72107397 0 -2321.73134837 0 7147
0.08150000 0.08149960 23012.56998802 0 322.80817806 0 5130.47715473 0 18.22760580 0 -1786.63655160 0 7386
0.08250000 0.08250610 22811.93023523 0 502.43787647 0 6387.34268410 0 -456.02454460 0 -346.47124675 0 7227
0.08350000 0.08350160 22492.28193918 0 208.85722061 0 6421.40374993 0 51.91012908 0 -396.10768045 0 7798
0.08450000 0.08449610 22208.01456140 0 155.39654220 0 6852.81803763 0 1024.75339612 0 -246.85011576 0 7371
0.08550000 0.08548940 22159.10238285 0 87.43922573 0 6822.59452594 0 -501.72803987 0 -841.75419207 0 8256
0.08650000 0.08650700 21786.21634145 0 501.11802404 0 7590.09426356 0 14.32838460 0 237.86070063 0 8037
0.08750000 0.08749060 21441.39102833 0 349.89842660 0 8217.56763971 0 -1371.41541145 0 -1332.47421897 0 8155
0.08850000 0.08849210 21046.76624092 0 363.50843438 0 7470.09860378 0 202.47423677 0 -1110.35081768 0 8718
0.08950000 0.08949900 20764.93892646 0 212.01044790 0 8252.42727172 0 -485.42619859 0 -2191.52069620 0 8571
0.09050000 0.09049190 20601.34377148 0 172.31505403 0 7840.57785544 0 -88.28370947 0 -3404.01034658 0 8932
0.09150000 0.09150830 20530.24919904 0 -27.81627830 0 7139.11510445 0 1005.34712882 0 -2980.04934323 0 9285
0.09250000 0.09250820 19653.71190422 0 60.05594776 0 6426.01768786 0 257.12278237 0 -4158.61102215 0 9204
0.09350000 0.09350330 20333.38045321 0 136.35184792 0 6029.93995364 0 513.94610243 0 -2840.24480570 0 9349
0.09450000 0.09448040 19588.49566616 0 288.94564466 0 6245.54173112 0 351.00532806 0 -3451.33648395 0 9564
0.09550000 0.09549270 19355.13688237 0 623.49385468 0 5821.62509256 0 -396.99830356 0 -3565.35398858 0 10155
0.09650000 0.09649430 18443.21866929 0 501.14353379 0 7125.56166178 0 -761.57038373 0 -2413.96574219 0 9913
0.09750000 0.09749140 18032.73347024 0 644.29317632 0 7198.18681940 0 142.47307952 0 -1806.68943568 0 10476
0.09850000 0.09850240 17377.35464257 0 105.15464006 0 7862.30551026 0 999.17044124 0 -633.66337317 0 10575
0.09950000 0.09950330 17193.90624504 0 26.06309280 0 6666.06446341 0 1121.79693293 0 281.17958855 0 10882
0.10050000 0.10051200 17325.66966479 0 -111.12492046 0 6960.62447196 0 1491.30015926 0 867.93274423 0 10875
0.10150000 0.10150300 17330.77161538 0 76.31408972 0 5843.37492978 0 157.30311896 0 1550.44951259 0 11118
0.10250000 0.10250800 16989.05183741 0 408.44552793 0 6018.79330071 0 -225.42303237 0 1674.17181455 0 11575
0.10350000 0.10349800 16716.31930445 0 469.95841533 0 6155.90267738 0 -543.21798941 0 1133.01013305 0 11364
0.10450000 0.10450100 16152.44285161 0 63.83660407 0 6345.31813887 0 129.09265952 0 1397.32444752 0 12093
0.10550000 0.10551000 15784.21511292 0 135.76179624 0 6309.14974562 0 351.04636549 0 358.93886124 0 12067
0.10650000 0.10649700 16111.84907077 0 215.79143694 0 6304.90181719 0 530.91896112 0 1728.51867959 0 12054
0.10750000 0.10749900 15317.83028125 0 254.27789035 0 5915.72280747 0 157.74898507 0 1036.12741859 0 12807
0.10850000 0.10850100 15313.39380247 0 320.35591441 0 6884.26158097 0 -290.47290248 0 1943.51044124 0 12736
0.10950000 0.10950300 14898.47212464 0 173.62270615 0 5910.24375618 0 374.53419327 0 724.30285287 0 12933
0.11050000 0.11050200 14587.03131433 0 -80.82022122 0 6274.65612311 0 572.44662073 0 1743.49179547 0 13428
0.11150000 0.11150900 14751.51376508 0 190.32050315 0 6101.24525882 0 -212.91548958 0 1479.52130811 0 13453
0.11250000 0.11250000 14438.29836326 0 230.73571571 0 5602.56286164 0 400.07278336 0 600.83010284 0 13668
0.11350000 0.11349100 14344.13410117 0 52.11465075 0 5854.11120842 0 -51.79544610 0 1325.58658566 0 13791
0.11450000 0.11448600 14210.81791385 0 -22.84731115 0 5499.84728670 0 90.65012725 0 397.04045011 0 14205
0.11550000 0.11549300 14563.40706483 0 -124.88133204 0 5217.50977719 0 437.01201479 0 -170.78668709 0 14776
0.11650000 0.11649800 14355.11438615 0 104.91784300 0 4821.27676621 0 -392.85685062 0 -1059.22150887 0 14553
0.11750000 0.11747300 14258.51006073 0 265.29477628 0 5169.09670251 0 -571.04912991 0 -691.78346341 0 14568
0.11850000 0.11849100 14068.73968094 0 158.98454441 0 5372.24306581 0 166.81936594 0 -963.07968637 0 16015
0.11950000 0.11950300 13823.95696430 0 53.22033217 0 5345.52437236 0 174.77508151 0 -1569.36000339 0 15270
0.12050000 0.12050700 13953.28032071 0 150.33895639 0 5656.90972668 0 301.09161443 0 -491.28124146 0 15999
0.12150000 0.12150000 13703.50656544 0 53.20946280 0 5150.41912685 0 170.64582889 0 -909.43378497 0 15670
0.12250000 0.12250700 13775.59934560 0 -3.59058646 0 5334.91009688 0 314.02284096 0 957.83576845 0 16887
0.12350000 0.12352200 13813.64215113 0 -55.77774036 0 4950.92176734 0 529.95624522 0 -77.97699288 0 16407
0.12450000 0.12449800 13685.76065032 0 126.06254451 0 5352.30109370 0 439.53304386 0 1204.03815831 0 16306
0.12550000 0.12549900 13537.24952318 0 297.52579461 0 4999.91158426 0 -144.55489719 0 1020.17495002 0 17523
0.12650000 0.12650100 13170.24181617 0 199.41084817 0 5258.11464921 0 -105.97472316 0 1449.15361086 0 17154
0.12750000 0.12750600 12991.34080939 0 250.36713431 0 5369.14862186 0 143.14742429 0 1852.93972696 0 18007
0.12850000 0.12850300 12469.38908101 0 209.40956222 0 5112.90869877 0 -108.71535793 0 978.46428565 0 17496
0.12950000 0.12949900 12639.97169007 0 158.36011003 0 5709.41545304 0 236.99225991 0 1720.92120968 0 18405
0.13050000 0.13049000 12392.85982207 0 -3.38163940 0 4877.62004671 0 429.31805147 0 713.40242451 0 18100
0.13150000 0.13148800 12309.45402102 0 -156.94709154 0 4574.91909960 0 819.02056568 0 1855.75689098 0 19059
0.13250000 0.13249300 12301.46835921 0 46.03844941 0 3907.93887992 0 278.34467861 0 885.37365143 0 18957
0.13350000 0.13349100 12520.18676303 0 8.78862010 0 3433.42420088 0 303.37196453 0 1806.46761174 0 19468
0.13450000 0.13450700 12349.16050609 0 91.08800770 0 3734.31728289 0 378.45936787 0 1398.75521193 0 19953
0.13550000 0.13551000 11945.55184914 0 159.64668887 0 3436.40773286 0 -108.90424101 0 1593.15062084 0 19956
0.13650000 0.13649900 12035.16872049 0 23.01545370 0 3061.94674150 0 79.75646452 0 1844.76551481 0 19723
0.13750000 0.13749600 12031.39771352 0 -37.82353257 0 3325.62885774 0 449.89333093 0 1659.74216732 0 20946
0.13850000 0.13851100 12057.24020241 0 77.01871346 0 2961.59359151 0 35.28176296 0 2047.88969572 0 20955
0.13950000 0.13949800 11917.60203283 0 168.01832433 0 3259.40332077 0 -167.77875448 0 960.48212804 0 20506
0.14050000 0.14048300 11887.76671304 0 196.67464988 0 3398.89730478 0 -240.97289050 0 1869.70961674 0 21447
0.14150000 0.14148400 11584.97703636 0 80.98692191 0 3371.80151064 0 20.23954893 0 1070.61327726 0 21771
0.14250000 0.14249400 11571.44577608 0 163.04170426 0 3723.37027150 0 -7.63841861 0 1477.55816625 0 22470
0.14350000 0.14350900 11215.30744207 0 198.51357034 0 3679.52676997 0 -244.81044464 0 885.68531406 0 22519
0.14450000 0.14449900 11062.42638334 0 225.59938241 0 3675.45630069 0 12.58762124 0 1142.17146173 0 22218
0.14550000 0.14550500 10969.78161523 0 102.15214213 0 4210.92819815 0 79.72829288 0 992.44917588 0 23559
0.14650000 0.14650700 10614.08692910 0 188.60358587 0 3783.29600861 0 4.59126752 0 417.97397523 0 23044
0.14750000 0.14750500 10635.49293921 0 116.75259380 0 3865.01594773 0 34.32847459 0 1379.85581233 0 23649
0.14850000 0.14849900 10345.30286226 0 20.02737433 0 3779.65809602 0 470.49522926 0 1007.11728385 0 23640
0.14950000 0.14949500 10513.76705270 0 -22.12039411 0 3739.06431518 0 560.70326140 0 1605.63930860 0 24457
0.15050000 0.15050000 10331.62741642 0 78.22931761 0 3327.23708130 0 101.33305724 0 1379.21252291 0 24591
0.15150000 0.15149900 10305.13054691 0 154.39278888 0 3299.14307943 0 187.96584204 0 1932.77416259 0 25020
0.15250000 0.15250500 10085.71339768 0 117.45688480 0 3299.03216746 0 -257.54868433 0 1560.85305533 0 25297
0.15350000 0.15350100 9924.83558595 0 229.55893972 0 3660.88246790 0 -454.73352928 0 1339.32857868 0 25452
0.15450000 0.15450400 9663.73771859 0 191.44404140 0 3734.58347162 0 100.16537602 0 1096.46352998 0 26061
0.15550000 0.15549900 9534.64727731 0 200.41681973 0 3584.71921845 0 -148.83166273 0 405.12260533 0 26128
0.15650000 0.15649500 9098.11994782 0 101.30765840 0 3611.06081121 0 203.41587939 0 792.06230238 0 26331
0.15750000 0.15749700 9146.53302250 0 86.41817014 0 3493.41648518 0 237.95830317 0 700.31370299 0 27345
0.15850000 0.15849900 9024.25257615 0 5.73604542 0 2991.34018172 0 339.64905150 0 842.35311670 0 26980
0.15950000 0.15949700 8925.25255219 0 -3.84438632 0 2984.43036602 0 731.97463379 0 1033.46664044 0 27777
0.16050000 0.16050000 8863.30821723 0 73.46886497 0 2450.51123613 0 -65.37872409 0 1099.69550478 0 28224
0.16150000 0.16150500 8837.86501143 0 69.58705695 0 2406.75646417 0 215.42320921 0 906.82846280 0 28075
0.16250000 0.16249700 8850.24278723 0 13.61788252 0 2261.39523697 0 266.82092498 0 1516.45499394 0 28590
0.16350000 0.16349900 8797.28232180 0 -22.10120633 0 2348.17276189 0 -149.59806444 0 1400.74053618 0 29163
0.16450000 0.16449100 8892.88843949 0 9.21808233 0 2171.72290964 0 86.31036371 0 964.95964425 0 28996
0.16550000 0.16550500 8776.22013880 0 116.51524218 0 2267.91686078 0 -68.72394000 0 905.29011379 0 30777
0.16650000 0.16650700 8618.64750375 0 98.09819874 0 2271.92078287 0 -228.51303984 0 969.87415362 0 29211
0.16750000 0.16749900 8761.03629017 0 84.10365916 0 2328.76316723 0 56.54769126 0 650.76710798 0 30922
0.16850000 0.16850800 8560.30780780 0 80.11947939 0 2575.23174582 0 -56.94919259 0 563.30747444 0 30867
0.16950000 0.16949900 8399.26362812 0 130.73859315 0 2386.96976882 0 -235.39290931 0 586.61673395 0 30852
0.17050000 0.17049200 8445.75792572 0 2.08343698 0 2514.29670978 0 159.10876582 0 277.28436018 0 31257
0.17150000 0.17149500 8473.85192759 0 -32.80665145 0 2332.16816470 0 98.77930914 0 78.28976463 0 32608
0.17250000 0.17250900 8472.72062550 0 73.53219570 0 2287.55937057 0 -51.15626042 0 160.30883333 0 32361
0.17350000 0.17350400 8372.52275227 0 90.14658691 0 2500.26634564 0 -3.89191210 0 227.19540565 0 32508
0.17450000 0.17449800 8304.36734703 0 44.38308827 0 2324.03831733 0 67.15242831 0 278.66854156 0 32791
0.17550000 0.17549800 8337.14183401 0 46.05630624 0 2156.72761137 0 80.05093580 0 -228.37107252 0 33633
0.17650000 0.17650100 8156.21113819 0 137.59849846 0 2428.46193660 0 -138.31055330 0 -109.36020012 0 33984
0.17750000 0.17750300 7947.49699402 0 166.75836436 0 2526.75212396 0 -233.36543851 0 -51.47213771 0 34069
0.17850000 0.17849800 7867.20781931 0 80.54127761 0 2553.53736459 0 86.12314430 0 -183.41734217 0 34536
