### header ###
fiducial parameters:
Omega_m = 0.31
Omega_nu = 0
Omega_de = 0.69
Omega_k = 0
H_0 = 100
w_de = -1
zeff = 0
beta = 0
fgrowth = 0
b_1 = 2
gamma = 0.55
Lx = 3500 Ly = 3500 Lz = 3500
nx = 700 ny = 700 nz = 700
xoffset = 1379.75464 yoffset = 22.6059522 zoffset = 368.141391
bins = 400 dk = 0.001
kx_ny = 0.628318531 ky_ny = 0.628318531 kz_ny = 0.628318531
############################
A(data) = 3.30348188 (not used)
A(ran) = 3.30259521 (used)
Ngal = 185560
weighted Ngal = 0
Nran = 9399747
weighted Nran = 0
SN(data) = 6725.3737
SN(ran) = 131.361989
SN(data+ran) = 6856.73569
############################
13 columns: k_central k_mean P_0(k) sigma^{lin}_{P_0(k)} P^img_1(k) sigma^{lin}_{P_1(k)} P_2(k) sigma^{lin}_{P_2(k)} P^img_3(k) sigma^{lin}_{P_3(k)} P_4(k) sigma^{lin}_{P_4(k)} N_modes
### header ###
0.00050000 0 0 0 0 0 0 0 0 0 0 0 0
0.00150000 0.00179520 35187.70961399 0 -24744.01674361 0 -36927.36385532 0 43180.91343064 0 11974.72169712 0 3
0.00250000 0.00253879 52237.20847477 0 -22310.94086908 0 -11642.98399640 0 -41923.06078474 0 -1357.81760399 0 6
0.00350000 0.00331552 58519.48425018 0 -6712.99131770 0 -24605.48769372 0 -27121.19298552 0 -15437.72612026 0 7
0.00450000 0.00420575 62664.04272579 0 2414.34284289 0 -16557.16062825 0 -26549.99634269 0 10271.65731452 0 24
0.00550000 0.00557378 54485.50500814 0 -3179.66870590 0 -25466.83004872 0 -4704.20918242 0 20960.58764063 0 45
0.00650000 0.00659388 74292.71907813 0 -11103.73000077 0 -27664.43981204 0 19770.39129612 0 -18668.92452719 0 40
0.00750000 0.00754703 80333.09584810 0 -10980.10751959 0 -57533.92048936 0 -12549.68934691 0 -27247.41080679 0 57
0.00850000 0.00846663 76531.80991803 0 2362.74659468 0 -15558.06560715 0 -32958.26811543 0 -24165.16717488 0 75
0.00950000 0.00948925 73904.74900888 0 4796.76522096 0 -12920.02441302 0 -33996.40414978 0 -21166.44025599 0 112
0.01050000 0.01054430 71573.04667445 0 8461.66270215 0 -3283.55994772 0 -40845.99464910 0 -50478.81011060 0 105
0.01150000 0.01145670 69938.53698019 0 258.66002227 0 14107.89160617 0 -9267.43816044 0 -53800.62359659 0 144
0.01250000 0.01249090 62416.59812188 0 1393.84181168 0 28542.19713853 0 -12656.83030943 0 -50333.95907845 0 169
0.01350000 0.01339930 62502.99854611 0 9500.70821465 0 23488.71507301 0 -10958.63496230 0 -39339.03371974 0 180
0.01450000 0.01448870 68884.42962223 0 -11596.40096921 0 11772.19644084 0 22384.91915272 0 -35177.72753674 0 267
0.01550000 0.01550050 62764.52897014 0 -7003.65831612 0 25291.36731300 0 5153.35829404 0 -62178.80285931 0 238
0.01650000 0.01653350 86474.18068636 0 -602.02129739 0 -13356.24118899 0 -6094.24671355 0 -21656.00568928 0 315
0.01750000 0.01747870 79975.62657046 0 1558.00261771 0 17407.30087433 0 -6923.02531431 0 -44320.09026919 0 297
0.01850000 0.01844180 78214.45540705 0 7057.14006781 0 3380.45264426 0 -12026.07393899 0 -8334.52431153 0 388
0.01950000 0.01947590 68146.75411321 0 3473.23050673 0 20147.82472826 0 2758.86869369 0 -18389.09362818 0 399
0.02050000 0.02045430 68022.31088345 0 4435.12565326 0 24797.58722487 0 6732.30109159 0 -4867.48269270 0 462
0.02150000 0.02154770 63012.30630997 0 1166.27263270 0 28430.84152117 0 4159.88650979 0 5987.80449644 0 571
0.02250000 0.02255340 63416.80226267 0 -505.66097831 0 26207.50018092 0 11475.72874642 0 9882.67794635 0 510
0.02350000 0.02348930 66189.49058776 0 -4318.95645643 0 19688.42735067 0 13494.32659099 0 17478.06271086 0 555
0.02450000 0.02439640 69632.97450427 0 -390.90147260 0 22606.52126775 0 -1184.02963901 0 15264.03797605 0 592
0.02550000 0.02547300 69419.24713908 0 3005.24854270 0 18122.46125355 0 -2076.61589581 0 27933.62316198 0 837
0.02650000 0.02652900 67423.94080809 0 -206.68556425 0 22525.22279411 0 4945.44271605 0 13982.89381656 0 723
0.02750000 0.02749970 69115.23743073 0 -1706.82429836 0 22429.50576445 0 428.55497712 0 19194.53635056 0 826
0.02850000 0.02848090 65131.72313480 0 4623.88673412 0 22667.30102702 0 -3288.50662156 0 3668.56866738 0 831
0.02950000 0.02946900 67001.92076421 0 5021.31759437 0 37450.20287946 0 -1667.84983229 0 25276.94875697 0 996
0.03050000 0.03053250 59115.96882206 0 1219.86529635 0 32683.76099096 0 -639.98091895 0 10550.94474487 0 1041
0.03150000 0.03150510 57584.93999532 0 3370.03801032 0 30243.58675038 0 4381.69935756 0 3193.42179012 0 1036
0.03250000 0.03246190 51995.75311721 0 1315.00558377 0 35613.38975286 0 -1308.98306383 0 13789.24151785 0 1059
0.03350000 0.03345080 51452.61720265 0 2250.17094566 0 28156.66713261 0 3953.92298247 0 1278.55991060 0 1302
0.03450000 0.03451200 51409.58335849 0 -1054.66080869 0 31220.38846561 0 8952.80308541 0 12706.96251964 0 1339
0.03550000 0.03553350 51643.49670213 0 -2106.41794201 0 17150.98331285 0 5112.13231498 0 -3582.05733119 0 1365
0.03650000 0.03647120 50921.68160474 0 727.45829840 0 15829.68902041 0 2255.21744027 0 -496.16802284 0 1308
0.03750000 0.03744890 49443.66869942 0 1025.70834817 0 12830.51845364 0 -2176.80267785 0 -3998.34322624 0 1579
0.03850000 0.03847530 49207.86985230 0 977.53040687 0 11885.21573775 0 -334.99629438 0 -5597.64946139 0 1662
0.03950000 0.03950240 47443.48224178 0 1782.22225522 0 13596.25469095 0 372.26382525 0 -11208.31998800 0 1683
0.04050000 0.04050350 45376.30495457 0 1288.34234631 0 8860.74615074 0 293.90562793 0 -10534.79596212 0 1822
0.04150000 0.04152450 41974.63485055 0 1376.26226452 0 8574.46017511 0 814.44766518 0 -7506.07844668 0 1887
0.04250000 0.04250150 41094.32654877 0 1206.09002974 0 9410.12640917 0 380.59220504 0 -8351.20547174 0 1920
0.04350000 0.04349210 39657.24016019 0 36.79238399 0 8678.09631939 0 1880.61226334 0 -8024.90245752 0 2005
0.04450000 0.04448520 39299.99270648 0 161.45455398 0 6879.17072157 0 203.72532378 0 -4779.62932167 0 2151
0.04550000 0.04548030 39005.74325145 0 107.01663020 0 5986.50682639 0 717.79786586 0 -5747.53589695 0 2274
0.04650000 0.04648670 39382.84394769 0 -78.60697287 0 8004.78302626 0 576.30192079 0 -6535.17724823 0 2311
0.04750000 0.04749250 39452.94031240 0 168.59173921 0 7837.02867242 0 -1009.24568454 0 -6793.90159944 0 2568
0.04850000 0.04851840 37968.27268891 0 1945.29612395 0 10283.25870653 0 -2109.40147399 0 -3383.95746249 0 2493
0.04950000 0.04949480 37579.74805982 0 274.13446025 0 10109.50401514 0 543.08045857 0 -2558.16239371 0 2644
0.05050000 0.05050630 35936.58723194 0 -60.98605554 0 10844.17380979 0 3776.02018342 0 -891.48046447 0 2829
0.05150000 0.05149060 38351.91719135 0 -469.42160140 0 8949.68645907 0 3318.25321177 0 1396.37060458 0 2784
0.05250000 0.05249300 37158.50439972 0 -51.13951271 0 7554.36951819 0 2862.21646685 0 5190.36961825 0 3055
0.05350000 0.05348950 36734.70976433 0 70.66501038 0 5440.97521330 0 2260.91831550 0 6983.64979683 0 3009
0.05450000 0.05448610 36972.50502690 0 -878.96626695 0 1378.05903842 0 4003.12353213 0 8608.47687615 0 3336
0.05550000 0.05550870 37937.55007336 0 -294.88387150 0 2652.54847974 0 809.46771775 0 7961.73809090 0 3349
0.05650000 0.05647670 37029.84651512 0 1103.40107368 0 -829.80453648 0 -1607.94627757 0 6994.69662899 0 3324
0.05750000 0.05747970 35172.07102630 0 2015.43685345 0 3587.10382580 0 -2605.93217897 0 4997.06114664 0 3639
0.05850000 0.05849280 33003.29837504 0 1170.39855796 0 3696.89558439 0 -3182.24186360 0 2104.27734100 0 3846
0.05950000 0.05951020 32335.27558285 0 708.84505168 0 5920.66948131 0 -737.61118008 0 3168.12276988 0 3787
0.06050000 0.06049470 30758.44011272 0 1159.80646488 0 7039.71579740 0 351.58096118 0 248.02245528 0 3930
0.06150000 0.06148310 30324.99613598 0 231.88476372 0 6083.22206378 0 200.54769586 0 1932.43033549 0 4083
0.06250000 0.06249100 29770.21446463 0 359.50118492 0 7759.81175926 0 646.23302667 0 1683.85442948 0 4303
0.06350000 0.06350600 29084.66758126 0 279.86639083 0 6040.17712843 0 1725.72369796 0 3637.61313670 0 4470
0.06450000 0.06451750 29559.14898671 0 -211.95055544 0 7539.29658154 0 444.55070136 0 3384.36783678 0 4479
0.06550000 0.06550280 29266.34138727 0 89.98975738 0 5799.88634654 0 973.70172568 0 4620.06027118 0 4636
0.06650000 0.06648880 29288.85651708 0 412.79771362 0 7087.21939393 0 -1524.86212123 0 2950.71312730 0 4653
0.06750000 0.06749660 28918.18871507 0 557.01211106 0 6956.03271643 0 -1340.89243745 0 3304.76631628 0 5220
0.06850000 0.06852730 28473.65354139 0 -11.74868310 0 8012.86850883 0 -123.34409214 0 1608.50083742 0 5029
0.06950000 0.06949320 28845.09772718 0 167.06115403 0 8506.47113782 0 -379.79363886 0 1234.58331470 0 5040
0.07050000 0.07048030 28740.84047587 0 183.11566162 0 8495.31339369 0 282.69020958 0 1232.63126404 0 5475
0.07150000 0.07148790 28366.84531477 0 236.84696523 0 8939.87074977 0 -174.37025282 0 -69.34626706 0 5509
0.07250000 0.07249820 27459.36358047 0 633.99056348 0 8417.28682316 0 32.41823774 0 -328.17520826 0 5916
0.07350000 0.07351270 27226.22662062 0 294.80845136 0 9450.86437557 0 737.27955330 0 1606.39351000 0 5721
0.07450000 0.07449140 26623.97462633 0 35.36727609 0 8223.37942691 0 1515.32369185 0 159.84189394 0 6028
0.07550000 0.07549160 26982.44211170 0 -161.67415967 0 6347.49201347 0 1573.65229660 0 2145.58095844 0 6183
0.07650000 0.07648840 26248.75943357 0 478.25573977 0 5924.09666117 0 698.13761015 0 -60.54229675 0 6330
0.07750000 0.07749960 25877.42615975 0 562.70522245 0 5278.11207731 0 -427.44031183 0 1567.23049357 0 6583
0.07850000 0.07848650 24915.70847237 0 581.13435530 0 6265.67225358 0 -881.41187588 0 -840.56965223 0 6549
0.07950000 0.07947320 24157.18151308 0 391.52257963 0 5761.42207553 0 -184.09834166 0 446.53824385 0 6828
0.08050000 0.08048110 23439.69198250 0 139.82893817 0 4953.29528349 0 618.45179655 0 -2255.60563216 0 7147
0.08150000 0.08149960 23773.31518670 0 101.02893662 0 4871.49770599 0 -82.99198849 0 -1872.50459837 0 7386
0.08250000 0.08250610 22691.03618849 0 626.58497127 0 4407.79694398 0 -433.18444273 0 -2477.37411514 0 7227
0.08350000 0.08350160 22279.22004580 0 722.03248485 0 4526.73894005 0 -187.72294483 0 -2559.32696939 0 7798
0.08450000 0.08449610 21531.56245952 0 -66.60197220 0 4482.56270261 0 34.46434175 0 -2286.41697729 0 7371
0.08550000 0.08548940 21357.54157941 0 236.32013338 0 4599.82992794 0 60.78364120 0 -4994.34380339 0 8256
0.08650000 0.08650700 21683.95550559 0 339.46271940 0 5861.55340158 0 -437.63977654 0 -2725.16254616 0 8037
0.08750000 0.08749060 20520.48894572 0 317.78830232 0 4225.15820383 0 -626.61159015 0 -5180.95319204 0 8155
0.08850000 0.08849210 20529.36190328 0 396.52249122 0 6661.18433675 0 -265.98132137 0 -2991.12944898 0 8718
0.08950000 0.08949900 19736.78496936 0 509.95438064 0 5271.93428061 0 -551.59627959 0 -4119.79183283 0 8571
0.09050000 0.09049190 19712.93889592 0 97.13747926 0 7049.26531797 0 471.92377543 0 -3936.70944480 0 8932
0.09150000 0.09150830 19357.57694570 0 146.90179446 0 6059.14307521 0 979.71315443 0 -3007.06749900 0 9285
0.09250000 0.09250820 19326.74341819 0 343.34131097 0 6160.16169701 0 277.56940395 0 -2530.53422212 0 9204
0.09350000 0.09350330 18682.67761140 0 485.24763032 0 5781.85206031 0 -106.16870820 0 -1220.77477450 0 9349
0.09450000 0.09448040 17925.37068378 0 256.18890359 0 6063.31336526 0 874.03401167 0 -799.18728730 0 9564
0.09550000 0.09549270 17751.23889169 0 157.60812687 0 6134.89595036 0 34.39080711 0 610.47722595 0 10155
0.09650000 0.09649430 17858.82350209 0 51.76128521 0 5682.38620607 0 1159.39609059 0 371.12697756 0 9913
0.09750000 0.09749140 17469.30066527 0 -35.47863171 0 6060.15237413 0 -136.85206090 0 1049.34812535 0 10476
0.09850000 0.09850240 17487.71205220 0 213.58539787 0 5183.14924904 0 323.52466938 0 -171.21591641 0 10575
0.09950000 0.09950330 17760.88823304 0 113.65814985 0 6049.67119301 0 -25.45995351 0 1090.59739592 0 10882
0.10050000 0.10051200 17448.89286288 0 25.55445050 0 4570.89299510 0 -198.54351657 0 -188.85202868 0 10875
0.10150000 0.10150300 17153.86702406 0 260.72963962 0 6350.36463348 0 86.86137437 0 418.96441912 0 11118
0.10250000 0.10250800 16826.45489015 0 610.49164450 0 5761.42207553 0 -1237.26738436 0 -181.56733052 0 11575
0.10350000 0.10349800 16339.99499200 0 347.45503592 0 6617.77339190 0 119.26253166 0 -80.81811389 0 11364
0.10450000 0.10450100 16155.32656281 0 75.34616096 0 6883.45192360 0 387.92015886 0 184.48320620 0 12093
0.10550000 0.10551000 15788.87341564 0 122.25937308 0 6554.45374852 0 623.30863169 0 -289.85290457 0 12067
0.10650000 0.10649700 15822.81247830 0 226.22159855 0 6941.96907870 0 115.20426270 0 1108.33443808 0 12054
0.10750000 0.10749900 15441.16439132 0 286.22830140 0 6180.09257793 0 -255.26278864 0 184.62295528 0 12807
0.10850000 0.10850100 15110.53581029 0 150.98446406 0 7626.92812863 0 265.66189490 0 1592.62933458 0 12736
0.10950000 0.10950300 15040.21762164 0 -107.97690603 0 6273.72446257 0 245.43044255 0 214.34181750 0 12933
0.11050000 0.11050200 15313.61562641 0 -129.64832849 0 6503.54515453 0 607.74768238 0 197.00184019 0 13428
0.11150000 0.11150900 15361.64050920 0 132.48212931 0 5648.44714341 0 -126.40969898 0 -368.96641240 0 13453
0.11250000 0.11250000 15160.00254868 0 197.39335945 0 5756.07611860 0 -240.54366117 0 -858.88343664 0 13668
0.11350000 0.11349100 15115.74867285 0 51.08660770 0 5616.26048987 0 178.68029196 0 -250.78416332 0 13791
0.11450000 0.11448600 14801.31323937 0 -153.54098495 0 4592.70937950 0 578.37708374 0 -1911.50124684 0 14205
0.11550000 0.11549300 15141.59116174 0 51.81518843 0 5115.88113955 0 266.94847375 0 -972.39185532 0 14776
0.11650000 0.11649800 14765.37776126 0 330.70178293 0 4472.24788945 0 -109.63681457 0 -1558.26880644 0 14553
0.11750000 0.11747300 14396.26272682 0 360.23431304 0 4989.65222708 0 9.81981304 0 -489.94697047 0 14568
0.11850000 0.11849100 14123.64110584 0 106.18911600 0 4987.34525812 0 134.12473558 0 -1042.55809458 0 16015
0.11950000 0.11950300 14257.40094103 0 -103.21900437 0 4785.79602717 0 590.08716948 0 -415.03924452 0 15270
0.12050000 0.12050700 14181.53715391 0 57.06243371 0 4922.66139751 0 159.99051598 0 -499.71166026 0 15999
0.12150000 0.12150000 14086.48559606 0 14.56096700 0 4219.91206768 0 21.69160843 0 -1049.20615803 0 15670
0.12250000 0.12250700 13864.55074513 0 380.34265311 0 4770.98927925 0 -305.88301152 0 -79.10718585 0 16887
0.12350000 0.12352200 13304.11256333 0 587.56503129 0 5124.68754993 0 -420.44398479 0 -1080.91367186 0 16407
0.12450000 0.12449800 12961.50548960 0 232.73434940 0 5190.50271262 0 -143.89164361 0 -563.07123195 0 16306
0.12550000 0.12549900 12543.92192450 0 77.42642586 0 5251.14937753 0 586.75759215 0 -846.72083006 0 17523
0.12650000 0.12650100 12561.00236780 0 -108.51383088 0 4677.46830658 0 678.64261327 0 -453.48133314 0 17154
0.12750000 0.12750600 12772.51149360 0 -233.09148594 0 3717.93558500 0 851.71852341 0 -153.82824695 0 18007
0.12850000 0.12850300 12972.15303867 0 -99.23859561 0 3199.34448929 0 455.25925201 0 -510.20615082 0 17496
0.12950000 0.12949900 12785.04454616 0 197.44437895 0 2917.66136040 0 -68.34695022 0 -369.73725059 0 18405
0.13050000 0.13049000 12700.30780147 0 165.50727734 0 3181.98676607 0 -334.43729806 0 -721.07975103 0 18100
0.13150000 0.13148800 12204.86403379 0 342.18449913 0 3501.69051810 0 -382.99677654 0 -603.89238232 0 19059
0.13250000 0.13249300 12016.42459764 0 336.88734346 0 3571.04377262 0 -368.20555629 0 -1307.10865154 0 18957
0.13350000 0.13349100 11569.44936063 0 157.02583903 0 3844.18667986 0 108.57849256 0 -397.56617285 0 19468
0.13450000 0.13450700 11572.77671971 0 27.76936254 0 3820.69552472 0 578.05987551 0 -420.25876180 0 19953
0.13550000 0.13551000 11464.85937341 0 -87.35160528 0 3171.53885854 0 603.25574761 0 128.96621987 0 19956
0.13650000 0.13649900 11547.48879067 0 97.80006736 0 3528.60885309 0 70.96114534 0 -51.02372062 0 19723
0.13750000 0.13749600 11529.85378752 0 -46.06174093 0 2973.67190498 0 371.21127066 0 312.29372335 0 20946
0.13850000 0.13851100 11592.07540240 0 -100.05878962 0 2826.92427816 0 48.42915691 0 532.48503813 0 20955
0.13950000 0.13949800 11493.25283760 0 251.65593140 0 2954.16248955 0 198.69657509 0 422.99828745 0 20506
0.14050000 0.14048300 11371.80423101 0 160.87892085 0 2702.15940369 0 -104.89310963 0 1022.05934438 0 21447
0.14150000 0.14148400 11033.21217058 0 218.84040699 0 3084.05149701 0 48.07490408 0 427.24621588 0 21771
0.14250000 0.14249400 10927.54633725 0 137.06057541 0 2955.59325396 0 203.68428636 0 1089.37625513 0 22470
0.14350000 0.14350900 10500.66834911 0 265.23155646 0 2970.62182582 0 231.70175897 0 727.37178706 0 22519
0.14450000 0.14449900 10369.72567794 0 114.33027638 0 2909.46496585 0 136.47274197 0 1388.58458433 0 22218
0.14550000 0.14550500 10333.53510230 0 -4.03946938 0 2799.97266958 0 300.30968505 0 1494.71624792 0 23559
0.14650000 0.14650700 10173.22294161 0 96.26260564 0 2670.03929733 0 194.28560606 0 728.48534323 0 23044
0.14750000 0.14750500 10198.88797134 0 169.87609982 0 2833.70099950 0 -478.84468232 0 1164.30949084 0 23649
0.14850000 0.14849900 9732.20367735 0 286.65198513 0 3032.54397839 0 -361.60407586 0 889.79903901 0 23640
0.14950000 0.14949500 9637.18539310 0 117.90164180 0 3372.65553280 0 -171.44550419 0 1070.68426092 0 24457
0.15050000 0.15050000 9517.30064529 0 52.03490504 0 3447.88712170 0 142.53186286 0 515.51772503 0 24591
0.15150000 0.15149900 9637.45158183 0 9.82460444 0 3442.10860809 0 103.01004622 0 483.54624071 0 25020
0.15250000 0.15250500 9521.22692900 0 124.60294300 0 3663.16725447 0 -333.06864436 0 465.21249216 0 25297
0.15350000 0.15350100 9356.89975502 0 188.08784521 0 3686.19257933 0 -151.86510509 0 606.57312462 0 25452
0.15450000 0.15450400 9415.02871823 0 -186.63489841 0 3444.54867142 0 384.75362213 0 419.93268061 0 26061
0.15550000 0.15549900 9474.66608422 0 -187.37024476 0 3171.84941206 0 776.61891975 0 403.83159000 0 26128
0.15650000 0.15649500 9671.11336456 0 60.92638490 0 2782.03820411 0 73.51600256 0 554.59312100 0 26331
0.15750000 0.15749700 9595.31612462 0 167.51700223 0 2617.72212133 0 47.17784807 0 948.22635541 0 27345
0.15850000 0.15849900 9355.72408814 0 106.06744557 0 2751.29340617 0 258.12875394 0 1126.47741805 0 26980
0.15950000 0.15949700 9207.59006170 0 97.43949255 0 2629.84479959 0 113.83560900 0 1136.94750797 0 27777
0.16050000 0.16050000 9157.15838918 0 176.87686333 0 2699.51969882 0 -17.48904300 0 1053.43855878 0 28224
0.16150000 0.16150500 8903.74672131 0 169.01985941 0 3044.10100561 0 -326.22426672 0 961.35833260 0 28075
0.16250000 0.16249700 8648.07244926 0 235.01026302 0 3001.18916461 0 -388.13200072 0 878.02906081 0 28590
0.16350000 0.16349900 8603.50801992 0 32.02960219 0 3275.17500283 0 13.56298110 0 657.43069911 0 29163
0.16450000 0.16449100 8577.15533597 0 -77.61564168 0 3094.34412778 0 337.85338672 0 290.49397575 0 28996
0.16550000 0.16550500 8574.49344870 0 26.56729861 0 2777.15807746 0 183.45616136 0 99.79315545 0 30777
0.16650000 0.16650700 8546.04452853 0 159.53355866 0 2838.61439975 0 -202.27126786 0 -99.57144243 0 29211
0.16750000 0.16749900 8324.87497018 0 163.35336689 0 2676.08399967 0 -28.63214675 0 202.62507705 0 30922
0.16850000 0.16850800 8219.25350165 0 -40.05031218 0 2537.54385859 0 421.29467960 0 51.25197745 0 30867
0.16950000 0.16949900 8282.71733058 0 -81.18367974 0 2171.66745366 0 331.35172707 0 44.35835490 0 30852
0.17050000 0.17049200 8356.69561423 0 131.55046876 0 1884.13926397 0 35.85728517 0 -250.25844058 0 31257
0.17150000 0.17149500 8098.65891723 0 168.63499488 0 2036.51012765 0 -195.03426186 0 -212.78128609 0 32608
0.17250000 0.17250900 7879.00885287 0 152.40413727 0 1993.40973631 0 -139.05366350 0 333.82839135 0 32361
0.17350000 0.17350400 7714.33785178 0 3.24274434 0 2249.45001786 0 284.08215479 0 -188.39507136 0 32508
0.17450000 0.17449800 7802.60159709 0 50.17236034 0 1783.00973020 0 166.31138912 0 -120.12875415 0 32791
0.17550000 0.17549800 7765.29081056 0 16.92161736 0 2009.00395922 0 272.03267843 0 52.11121248 0 33633
0.17650000 0.17650100 7757.09441601 0 6.24248056 0 1606.43787478 0 288.39441217 0 507.40451447 0 33984
0.17750000 0.17750300 7742.93095751 0 -2.80592864 0 1530.87354998 0 69.87953181 0 710.59635168 0 34069
0.17850000 0.17849800 7672.39094492 0 80.90262881 0 1479.37712254 0 23.76921144 0 664.14641886 0 34536
