### header ###
fiducial parameters:
Omega_m = 0.31
Omega_nu = 0
Omega_de = 0.69
Omega_k = 0
H_0 = 100
w_de = -1
zeff = 0
beta = 0
fgrowth = 0
b_1 = 2
gamma = 0.55
Lx = 3500 Ly = 3500 Lz = 3500
nx = 700 ny = 700 nz = 700
xoffset = 1379.75464 yoffset = 22.6059522 zoffset = 368.141391
bins = 400 dk = 0.001
kx_ny = 0.628318531 ky_ny = 0.628318531 kz_ny = 0.628318531
############################
A(data) = 3.29058598 (not used)
A(ran) = 3.28671443 (used)
Ngal = 184724
weighted Ngal = 0
Nran = 9399747
weighted Nran = 0
SN(data) = 6642.72157
SN(ran) = 130.730325
SN(data+ran) = 6773.4519
############################
13 columns: k_central k_mean P_0(k) sigma^{lin}_{P_0(k)} P^img_1(k) sigma^{lin}_{P_1(k)} P_2(k) sigma^{lin}_{P_2(k)} P^img_3(k) sigma^{lin}_{P_3(k)} P_4(k) sigma^{lin}_{P_4(k)} N_modes
### header ###
0.00050000 0 0 0 0 0 0 0 0 0 0 0 0
0.00150000 0.00179520 16264.24211684 0 -19924.11528582 0 -29640.89110822 0 27799.08694299 0 -7390.79654560 0 3
0.00250000 0.00253879 25154.94559054 0 -11309.02805629 0 -6819.27825805 0 -31388.64192332 0 -353.42875459 0 6
0.00350000 0.00331552 35958.32597795 0 -7940.64263431 0 -36704.54170863 0 8886.21153893 0 20023.60332244 0 7
0.00450000 0.00420575 32958.26811543 0 -3000.46823681 0 -24344.06818165 0 -15827.69260496 0 2223.06406032 0 24
0.00550000 0.00557378 39838.91396620 0 -570.60326380 0 -32497.20705829 0 -22488.51093222 0 -9316.77180446 0 45
0.00650000 0.00659388 37629.32571017 0 -5894.31679736 0 -11848.50387585 0 -13330.95325995 0 -30022.87193111 0 40
0.00750000 0.00754703 39124.19723486 0 -435.46368370 0 -20128.74786951 0 -27357.32456855 0 -12378.44126603 0 57
0.00850000 0.00846663 44671.23756457 0 -583.67756676 0 4615.22450931 0 -18749.00296915 0 -25330.07559035 0 75
0.00950000 0.00948925 48355.06771895 0 2020.26152412 0 14851.77818549 0 -14640.82361953 0 -17139.55938000 0 112
0.01050000 0.01054430 46828.91901888 0 1496.97885210 0 18708.52010029 0 -5911.81870614 0 -29277.98714407 0 105
0.01150000 0.01145670 58668.66084914 0 -7780.13083207 0 43179.13883913 0 426.21473457 0 -302.76083957 0 144
0.01250000 0.01249090 67070.57527332 0 -12187.33994262 0 13678.55137230 0 22567.81299040 0 -16487.61882338 0 169
0.01350000 0.01339930 90646.13441843 0 -10774.48781937 0 14936.51493017 0 9926.28853275 0 -17215.86681500 0 180
0.01450000 0.01448870 97132.93186557 0 -1064.81147213 0 19337.61279120 0 -9030.11981933 0 10123.02418422 0 267
0.01550000 0.01550050 94670.02067125 0 7159.17907973 0 32098.92217588 0 -4127.05656683 0 -19403.60541304 0 238
0.01650000 0.01653350 88575.85159608 0 4791.28616966 0 27755.72036293 0 -3286.56566209 0 23046.28722674 0 315
0.01750000 0.01747870 82605.34936688 0 5164.90423006 0 46216.24129946 0 13581.72522295 0 -3225.94117957 0 297
0.01850000 0.01844180 79143.56497540 0 4649.45194309 0 38308.21787537 0 2536.60110685 0 14578.04744480 0 388
0.01950000 0.01947590 74550.14575930 0 1744.97801586 0 32058.77204293 0 7979.80565073 0 10414.24574249 0 399
0.02050000 0.02045430 71668.32005624 0 706.32180437 0 39775.25049572 0 9623.78722718 0 30770.64042936 0 462
0.02150000 0.02154770 71851.32480588 0 -747.58660262 0 27469.67839363 0 3666.68316390 0 9826.11284191 0 571
0.02250000 0.02255340 75312.88737342 0 -598.29132786 0 24195.22431861 0 6257.90841572 0 6881.42223456 0 510
0.02350000 0.02348930 73350.96554525 0 -237.69100532 0 25335.51027686 0 917.66012574 0 13634.18658451 0 555
0.02450000 0.02439640 72184.39345024 0 499.17373721 0 14946.38609546 0 4182.87856107 0 -10.07032991 0 592
0.02550000 0.02547300 81786.04264832 0 -3233.10609280 0 14626.07232759 0 12365.35365363 0 12563.77516704 0 837
0.02650000 0.02652900 73511.23334116 0 109.79053856 0 8524.40560328 0 -1423.92113780 0 -232.46261508 0 723
0.02750000 0.02749970 81945.64497240 0 4173.41777007 0 14358.99630508 0 -1873.72463004 0 16156.10294660 0 826
0.02850000 0.02848090 68071.00123805 0 5834.54633701 0 12473.04917600 0 -7368.58087811 0 -291.47332844 0 831
0.02950000 0.02946900 63714.60090073 0 4106.57112606 0 26759.95270092 0 -2681.08612949 0 10657.50896515 0 996
0.03050000 0.03053250 61079.55432977 0 2294.43591268 0 27482.21144618 0 939.21808525 0 -2311.97109505 0 1041
0.03150000 0.03150510 54951.33527997 0 1842.04817155 0 21181.41337187 0 445.48679838 0 -8084.92801541 0 1036
0.03250000 0.03246190 54207.33778868 0 3220.80595539 0 29951.99918261 0 -3833.91623149 0 -4031.38390195 0 1059
0.03350000 0.03345080 49848.71921197 0 2453.16203220 0 19966.92730604 0 -3287.87442333 0 -19523.05760417 0 1302
0.03450000 0.03451200 48030.31747231 0 1313.87428168 0 28446.14737295 0 4394.63169320 0 -12253.44347643 0 1339
0.03550000 0.03553350 46632.71574486 0 -1128.42946871 0 17910.50847987 0 2175.20554549 0 -15019.80981925 0 1365
0.03650000 0.03647120 49496.90644477 0 -2544.97496054 0 14505.95466464 0 12391.52887843 0 -8883.05054780 0 1308
0.03750000 0.03744890 51392.05926731 0 -3244.08637778 0 8004.83848224 0 8425.84922720 0 -7350.96805736 0 1579
0.03850000 0.03847530 54939.24587530 0 -1253.31634635 0 -2859.04438453 0 3055.86876557 0 -5459.32005305 0 1662
0.03950000 0.03950240 53064.61176711 0 2218.35030161 0 2157.69254550 0 -2052.25962731 0 250.09318175 0 1683
0.04050000 0.04050350 50533.82244746 0 3611.74846542 0 4091.05454153 0 -7064.27170744 0 -25.70029974 0 1822
0.04150000 0.04152450 46103.22200255 0 2428.75030772 0 11674.26117179 0 -565.16192257 0 3941.51193308 0 1887
0.04250000 0.04250150 43793.14750218 0 2449.97885868 0 13146.72847864 0 52.16500478 0 4630.65236426 0 1920
0.04350000 0.04349210 41191.26361010 0 1625.13763284 0 17260.67525067 0 1377.14956027 0 5735.76813699 0 2005
0.04450000 0.04448520 39610.54622103 0 1454.07810231 0 16533.64729072 0 2438.02254837 0 8185.24789180 0 2151
0.04550000 0.04548030 37879.43220136 0 795.44622657 0 18401.51576877 0 2410.22800882 0 13366.22326624 0 2274
0.04650000 0.04648670 37591.94837646 0 -10.64167074 0 13332.72785146 0 745.53584030 0 10735.53553568 0 2311
0.04750000 0.04749250 37374.78274021 0 -57.71614886 0 15937.38454278 0 2851.18072589 0 10897.79974704 0 2568
0.04850000 0.04851840 36684.24481822 0 602.81986357 0 15823.36703815 0 -631.79894296 0 11043.63789571 0 2493
0.04950000 0.04949480 35844.64120924 0 1416.86713654 0 14562.07612120 0 -2377.61988979 0 3991.04521865 0 2644
0.05050000 0.05050630 35515.12174790 0 708.90716238 0 17820.89160853 0 -250.34606104 0 5527.60855266 0 2829
0.05150000 0.05149060 33906.01089466 0 855.70359047 0 17341.30825248 0 -2500.57689916 0 -510.32371750 0 2784
0.05250000 0.05249300 33472.67782989 0 336.32058330 0 16876.14345248 0 -586.31394427 0 -309.69505591 0 3055
0.05350000 0.05348950 32696.51586745 0 913.90575558 0 17713.63973404 0 287.80103313 0 -6441.07953332 0 3009
0.05450000 0.05448610 33006.84755806 0 289.52127778 0 18087.08033528 0 -1147.11813557 0 -3233.89356778 0 3336
0.05550000 0.05550870 31398.40217663 0 -625.03774930 0 14634.94528515 0 3197.27043546 0 -8202.06214638 0 3349
0.05650000 0.05647670 32948.06421424 0 -163.33673010 0 14973.89226389 0 2733.52530866 0 -4586.23212048 0 3324
0.05750000 0.05747970 32062.54304989 0 -201.59803221 0 9484.58161429 0 2579.95659572 0 -5362.46063010 0 3639
0.05850000 0.05849280 32972.02119965 0 -359.38694559 0 7777.21384728 0 2803.89895330 0 -4409.60480908 0 3846
0.05950000 0.05951020 31974.47894612 0 -218.24924619 0 6612.91544764 0 1525.68286980 0 -2413.00080806 0 3787
0.06050000 0.06049470 32628.63774213 0 375.86070042 0 2983.01069282 0 1125.83412862 0 -5144.48533648 0 3930
0.06150000 0.06148310 31748.66217626 0 -295.80000437 0 2542.29089088 0 194.44531930 0 -1403.18059951 0 4083
0.06250000 0.06249100 31618.45152408 0 309.41444862 0 1742.52686134 0 -206.48925006 0 -5948.90766874 0 4303
0.06350000 0.06350600 31543.03138484 0 660.06042190 0 2448.06008161 0 -1141.47271632 0 -5449.81489727 0 4470
0.06450000 0.06451750 29757.79232405 0 1101.10963239 0 4081.60484173 0 -2525.60973067 0 -6065.52051345 0 4479
0.06550000 0.06550280 28751.82076085 0 1071.66361361 0 5041.49248162 0 -1868.91105056 0 -6046.67656984 0 4636
0.06650000 0.06648880 28938.92925336 0 -55.43247140 0 7086.09918304 0 -102.31873191 0 -6360.55744347 0 4653
0.06750000 0.06749660 28792.41454168 0 85.73583971 0 8278.76886447 0 -235.45280177 0 -6791.41717132 0 5220
0.06850000 0.06852730 27951.59090103 0 740.00909686 0 8717.18169744 0 -972.27428864 0 -4806.24819435 0 5029
0.06950000 0.06949320 27681.29843140 0 872.30600318 0 10786.23339693 0 -696.73901021 0 -4100.75933886 0 5040
0.07050000 0.07048030 27625.84244666 0 99.09429913 0 11389.99379401 0 1605.78349416 0 -1786.38145407 0 5475
0.07150000 0.07148790 27605.32373231 0 -413.06612058 0 9941.52783736 0 2984.66328116 0 -1589.44616106 0 5509
0.07250000 0.07249820 27509.60670265 0 296.59746143 0 9585.07894984 0 568.81536285 0 1106.58202896 0 5916
0.07350000 0.07351270 26177.44303719 0 1005.17077878 0 10235.43346529 0 60.69280429 0 1039.56125316 0 5721
0.07450000 0.07449140 25986.23080181 0 549.46011505 0 8132.75325665 0 -39.42953789 0 2720.94789132 0 6028
0.07550000 0.07549160 24467.84593960 0 427.30499923 0 9951.47664102 0 618.53165317 0 2384.71825584 0 6183
0.07650000 0.07648840 24949.09297518 0 -57.45262202 0 8524.96016313 0 1421.05960899 0 3757.63097888 0 6330
0.07750000 0.07749960 24926.13419750 0 -164.78302218 0 7830.03012714 0 933.00812408 0 2088.80512126 0 6583
0.07850000 0.07848650 24854.59597718 0 247.39136617 0 7109.75670613 0 262.97338876 0 2778.25610595 0 6549
0.07950000 0.07947320 23803.81597831 0 748.67908552 0 8550.82483441 0 -1301.30795554 0 2842.55177466 0 6828
0.08050000 0.08048110 23417.62050057 0 538.13045737 0 8530.57230879 0 -494.51099801 0 1882.13175733 0 7147
0.08150000 0.08149960 23198.12571296 0 -11.04588941 0 10668.54470612 0 80.09019863 0 3096.70655273 0 7386
0.08250000 0.08250610 23243.71053242 0 226.02195701 0 8890.47055856 0 110.58744106 0 473.86029842 0 7227
0.08350000 0.08350160 23444.68302112 0 312.84717408 0 10213.76126645 0 -185.26957206 0 1549.09638656 0 7798
0.08450000 0.08449610 22592.21362368 0 105.19135192 0 9742.28557538 0 -649.17663034 0 1391.33520117 0 7371
0.08550000 0.08548940 23024.65939269 0 401.71206227 0 10939.90193065 0 423.19460164 0 669.40808269 0 8256
0.08650000 0.08650700 22258.70133145 0 -5.64460959 0 10073.14707154 0 622.90047565 0 733.39652524 0 8037
0.08750000 0.08749060 22456.34646107 0 -153.16721162 0 9747.79790026 0 1359.74747226 0 -165.78677550 0 8155
0.08850000 0.08849210 22093.88614480 0 122.38470361 0 8342.94253001 0 1133.16540981 0 1658.61086523 0 8718
0.08950000 0.08949900 22014.47317465 0 376.83228927 0 7627.06122299 0 301.26907358 0 -100.15605942 0 8571
0.09050000 0.09049190 21103.10952141 0 734.30822163 0 9894.02424083 0 -1000.66886194 0 1615.72120663 0 8932
0.09150000 0.09150830 20014.95218882 0 824.17353579 0 7789.93545017 0 82.62875179 0 591.43031343 0 9285
0.09250000 0.09250820 19810.98507695 0 -49.29282842 0 7994.46821310 0 1630.96051124 0 2955.01651172 0 9204
0.09350000 0.09350330 19189.98895981 0 -65.94459696 0 6963.64127753 0 1975.40872366 0 1598.37457460 0 9349
0.09450000 0.09448040 19281.49133464 0 569.23350097 0 6145.96496492 0 -52.86696664 0 2661.35489012 0 9564
0.09550000 0.09549270 18428.68920129 0 512.11827317 0 7006.24256501 0 58.89957957 0 2457.66505817 0 10155
0.09650000 0.09649430 17396.65332526 0 324.15243113 0 5532.62177368 0 -170.24432756 0 2830.51782597 0 9913
0.09750000 0.09749140 17374.36001939 0 85.60596179 0 6675.04833294 0 442.27367863 0 2272.86353461 0 10476
0.09850000 0.09850240 17304.15274271 0 29.00658555 0 5144.28569493 0 670.58042221 0 2182.17081717 0 10575
0.09950000 0.09950330 17265.77720127 0 149.19989047 0 5583.39727331 0 579.08026562 0 1808.86331029 0 10882
0.10050000 0.10051200 16769.33522587 0 317.27921638 0 4807.53477319 0 145.32684449 0 2546.19499221 0 10875
0.10150000 0.10150300 16585.22135652 0 111.37336328 0 4609.83418759 0 163.04059514 0 2853.94243393 0 11118
0.10250000 0.10250800 16480.74228127 0 93.86524342 0 5327.50117732 0 810.25630186 0 3785.73607194 0 11575
0.10350000 0.10349800 16354.30263606 0 396.51694562 0 4810.21884285 0 -472.02692356 0 3229.67891294 0 11364
0.10450000 0.10450100 15821.81427058 0 294.91492685 0 5959.71049457 0 99.24170114 0 4662.05154282 0 12093
0.10550000 0.10551000 15393.36133247 0 191.84110625 0 5574.46885977 0 412.99070044 0 3906.23083559 0 12067
0.10650000 0.10649700 15855.64242127 0 -85.79661946 0 5731.08765187 0 409.97056752 0 4866.97249764 0 12054
0.10750000 0.10749900 15371.62258645 0 155.67604037 0 6184.97270459 0 -273.66862998 0 4212.86915762 0 12807
0.10850000 0.10850100 15403.56523366 0 254.74150239 0 6324.43341501 0 -182.25942121 0 3270.80507123 0 12736
0.10950000 0.10950300 15063.84187114 0 160.61495037 0 5743.44324527 0 -198.79750498 0 3145.04198903 0 12933
0.11050000 0.11050200 14976.88688706 0 16.18438550 0 5736.43360880 0 425.56035395 0 3167.53493644 0 13428
0.11150000 0.11150900 14831.14855916 0 90.11209329 0 5707.09739287 0 -9.52782619 0 1748.90429958 0 13453
0.11250000 0.11250000 14884.38630451 0 96.78877202 0 5491.89489849 0 68.16361273 0 1365.48162108 0 13668
0.11350000 0.11349100 14784.34370804 0 -28.36773261 0 4880.71449066 0 123.81768625 0 982.95732954 0 13791
0.11450000 0.11448600 14733.65693799 0 -96.86607767 0 4757.52456615 0 185.57457998 0 295.48279614 0 14205
0.11550000 0.11549300 14968.56848935 0 138.39595552 0 4790.15486757 0 159.85409426 0 934.62522059 0 14776
0.11650000 0.11649800 14630.06515849 0 113.90104706 0 4380.25750196 0 -341.92274688 0 -66.83400004 0 14553
0.11750000 0.11747300 14362.76731204 0 486.22698301 0 5029.24780019 0 80.10960823 0 118.13344782 0 14568
0.11850000 0.11849100 13730.90182190 0 539.60115009 0 5342.88466749 0 -794.32379744 0 359.28823394 0 16015
0.11950000 0.11950300 13161.36885861 0 238.51508125 0 5898.35399305 0 590.93342780 0 575.62646689 0 15270
0.12050000 0.12050700 13094.26711707 0 37.73713214 0 5924.68449460 0 598.62517289 0 1703.34166252 0 15999
0.12150000 0.12150000 12873.99594568 0 -108.02459818 0 5044.42055761 0 957.34553754 0 1374.28803146 0 15670
0.12250000 0.12250700 13292.68863048 0 -133.74430752 0 4844.62373579 0 685.84523657 0 2200.84839283 0 16887
0.12350000 0.12352200 13213.94113214 0 -176.09493395 0 4008.95750172 0 177.33603889 0 1651.85632629 0 16407
0.12450000 0.12449800 13599.58205003 0 -63.94596327 0 3643.65783904 0 518.84175676 0 2506.97651980 0 16306
0.12550000 0.12549900 13652.26523554 0 44.99754058 0 3969.19556066 0 -301.13597922 0 1759.76258140 0 17523
0.12650000 0.12650100 13436.20871899 0 260.11629643 0 3399.07476393 0 -392.24239831 0 1361.65515814 0 17154
0.12750000 0.12750600 13071.97381121 0 363.91548131 0 4714.83454910 0 -492.31272278 0 972.62144310 0 18007
0.12850000 0.12850300 12696.53679451 0 273.12294309 0 4260.11765662 0 -85.32191624 0 1434.56868687 0 17496
0.12950000 0.12949900 12355.48248835 0 105.86181478 0 5157.26239536 0 332.56621313 0 1431.69606686 0 18405
0.13050000 0.13049000 12430.34806775 0 62.32709216 0 4442.64548479 0 209.58258489 0 821.92424104 0 18100
0.13150000 0.13148800 12246.89967023 0 152.11243879 0 4714.61272516 0 200.92923303 0 1545.17010284 0 19059
0.13250000 0.13249300 11895.75237485 0 326.16881073 0 4876.64402138 0 -497.88383101 0 870.15098362 0 18957
0.13350000 0.13349100 11889.87404046 0 211.32057545 0 4916.92724869 0 -546.59082240 0 687.21832675 0 19468
0.13450000 0.13450700 11545.15963931 0 -119.27695022 0 4933.84132404 0 334.46946253 0 411.18172622 0 19953
0.13550000 0.13551000 11797.92801776 0 -115.39614041 0 4513.89533399 0 367.47686465 0 120.67665928 0 19956
0.13650000 0.13649900 11848.72569979 0 44.17357556 0 4165.18810194 0 206.33064595 0 -281.33375619 0 19723
0.13750000 0.13749600 11839.07635844 0 121.12363451 0 4186.01736980 0 320.34371410 0 -258.22191999 0 20946
0.13850000 0.13851100 11352.39463635 0 311.53286724 0 4079.30896397 0 -368.03697009 0 -225.65151103 0 20955
0.13950000 0.13949800 11151.08941174 0 415.23777695 0 4465.50444170 0 -299.60539404 0 -687.90709008 0 20506
0.14050000 0.14048300 10717.42361107 0 223.80926322 0 4395.67426572 0 79.20789392 0 -431.02720492 0 21447
0.14150000 0.14148400 10619.21106209 0 20.27570623 0 4501.80592931 0 380.91274063 0 -108.32150952 0 21771
0.14250000 0.14249400 10145.20657811 0 84.35720392 0 4066.55408747 0 679.61198388 0 18.30302594 0 22470
0.14350000 0.14350900 10353.24415927 0 8.03121335 0 3867.97729731 0 367.87060214 0 378.42609427 0 22519
0.14450000 0.14449900 10171.98072755 0 -0.56174472 0 3278.90164500 0 737.85740466 0 965.57520568 0 22218
0.14550000 0.14550500 10341.68713205 0 -52.76991866 0 2963.46800379 0 587.29662432 0 1644.53613630 0 23559
0.14650000 0.14650700 10312.18454817 0 -86.15941252 0 2499.41232348 0 214.89194087 0 1122.45131355 0 23044
0.14750000 0.14750500 10289.92451590 0 198.69324773 0 2481.38912844 0 -389.43299813 0 1298.35769715 0 23649
0.14850000 0.14849900 10156.84124371 0 310.77866585 0 3056.95570287 0 -750.49693270 0 608.43755483 0 23640
0.14950000 0.14949500 9947.36180695 0 121.79908841 0 3393.85081017 0 -296.82594009 0 916.41569345 0 24457
0.15050000 0.15050000 9700.82668119 0 98.18082815 0 3399.90660371 0 38.84924646 0 244.24035712 0 24591
0.15150000 0.15149900 9890.27541626 0 7.32594632 0 3900.57432514 0 -57.77781591 0 543.69269264 0 25020
0.15250000 0.15250500 9829.91712247 0 -15.09478631 0 3233.09500160 0 359.89603153 0 -326.00687926 0 25297
0.15350000 0.15350100 9729.76361403 0 80.31612632 0 3717.51411951 0 143.41804950 0 671.39895254 0 25452
0.15450000 0.15450400 9675.54984334 0 76.53369542 0 3204.13588637 0 193.68113583 0 407.85436714 0 26061
0.15550000 0.15549900 9507.39620641 0 118.83219322 0 3129.11503021 0 258.41712506 0 983.57067273 0 26128
0.15650000 0.15649500 9508.93788279 0 1.70292020 0 2958.73206270 0 524.48163041 0 1262.30021587 0 26331
0.15750000 0.15749700 9428.51561371 0 38.95649834 0 2729.45483938 0 386.76112878 0 1039.34608394 0 27345
0.15850000 0.15849900 9289.60946314 0 150.20364379 0 2482.03241786 0 357.84305098 0 1989.61654695 0 26980
0.15950000 0.15949700 9000.18467877 0 203.82292632 0 2475.96553313 0 -179.40565624 0 1647.60839786 0 27777
0.16050000 0.16050000 8790.22832054 0 164.78413130 0 2513.22086368 0 -115.45048727 0 1821.58491319 0 28224
0.16150000 0.16150500 8654.69389383 0 106.00821858 0 2526.72994156 0 112.08985460 0 1397.60172745 0 28075
0.16250000 0.16249700 8530.57230879 0 124.67170842 0 2594.31969576 0 -174.06746314 0 1417.35514921 0 28590
0.16350000 0.16349900 8325.90645150 0 144.31199997 0 2615.31533159 0 -50.65238734 0 1106.91476487 0 29163
0.16450000 0.16449100 8292.45540151 0 185.65887308 0 2590.26031768 0 -139.02038991 0 923.70371896 0 28996
0.16550000 0.16550500 7992.90435433 0 62.69820361 0 2680.52047845 0 82.38652005 0 1040.23116146 0 30777
0.16650000 0.16650700 7915.84271793 0 18.89540677 0 2520.15286177 0 200.19610492 0 580.42008222 0 29211
0.16750000 0.16749900 7956.49195475 0 -9.48637839 0 2106.88377228 0 366.76370068 0 1040.02375607 0 30922
0.16850000 0.16850800 8080.53590142 0 -64.58481621 0 2104.08879065 0 178.85331463 0 804.33471180 0 30867
0.16950000 0.16949900 7964.16706303 0 72.71067075 0 1909.71556414 0 -59.13903851 0 490.63129732 0 30852
0.17050000 0.17049200 7869.19314357 0 186.62713457 0 2110.65477925 0 -264.13130972 0 740.11335412 0 31257
0.17150000 0.17149500 7684.73544712 0 106.30036070 0 2054.24495157 0 -190.30941196 0 247.90932507 0 32608
0.17250000 0.17250900 7707.62767762 0 -0.30038621 0 2354.42819697 0 18.20298334 0 518.79739197 0 32361
0.17350000 0.17350400 7747.33416270 0 -5.76786606 0 2173.26458602 0 264.61821327 0 145.44330206 0 32508
0.17450000 0.17449800 7768.29652493 0 -2.52353568 0 2106.66194835 0 213.15727767 0 411.42351432 0 32791
0.17550000 0.17549800 7790.23491249 0 49.17415261 0 2139.13697301 0 -42.38822558 0 283.93353275 0 33633
0.17650000 0.17650100 7684.19197847 0 79.62248286 0 2026.63896236 0 114.20716410 0 748.78223365 0 33984
0.17750000 0.17750300 7647.25829263 0 -19.43754448 0 2127.40248664 0 52.07117326 0 488.16128776 0 34069
0.17850000 0.17849800 7638.86225654 0 147.91996634 0 1891.83655466 0 -131.14453096 0 484.35700721 0 34536
