### header ###
fiducial parameters:
Omega_m = 0.31
Omega_nu = 0
Omega_de = 0.69
Omega_k = 0
H_0 = 100
w_de = -1
zeff = 0
beta = 0
fgrowth = 0
b_1 = 2
gamma = 0.55
Lx = 3500 Ly = 3500 Lz = 3500
nx = 700 ny = 700 nz = 700
xoffset = 1379.75464 yoffset = 22.6059522 zoffset = 368.141391
bins = 400 dk = 0.001
kx_ny = 0.628318531 ky_ny = 0.628318531 kz_ny = 0.628318531
############################
A(data) = 3.34451362 (not used)
A(ran) = 3.3482231 (used)
Ngal = 187518
weighted Ngal = 0
Nran = 9399747
weighted Nran = 0
SN(data) = 6655.46736
SN(ran) = 133.176856
SN(data+ran) = 6788.64421
############################
13 columns: k_central k_mean P_0(k) sigma^{lin}_{P_0(k)} P^img_1(k) sigma^{lin}_{P_1(k)} P_2(k) sigma^{lin}_{P_2(k)} P^img_3(k) sigma^{lin}_{P_3(k)} P_4(k) sigma^{lin}_{P_4(k)} N_modes
### header ###
0.00050000 0 0 0 0 0 0 0 0 0 0 0 0
0.00150000 0.00179520 6193.74584137 0 -9136.21820934 0 8138.60940864 0 -35455.78384423 0 -9264.97591471 0 3
0.00250000 0.00253879 20137.62082707 0 -14451.49688763 0 -23641.55176695 0 7831.23906761 0 27244.63800755 0 6
0.00350000 0.00331552 29345.08888561 0 -18682.01213959 0 -10759.08214681 0 -20358.44655831 0 -10706.74278841 0 7
0.00450000 0.00420575 41376.81933504 0 -12922.57538831 0 -29013.35118489 0 -9087.80513466 0 -15883.70314955 0 24
0.00550000 0.00557378 62760.31431530 0 -2296.90924960 0 -11185.02847440 0 -35615.27525635 0 -13736.11468447 0 45
0.00650000 0.00659388 56489.79520866 0 6906.12233016 0 -6384.08187220 0 -37450.42470340 0 -26774.03852104 0 40
0.00750000 0.00754703 56947.86164262 0 8553.36471852 0 33718.12601835 0 -7636.41110202 0 20227.57043432 0 57
0.00850000 0.00846663 48136.68205104 0 -3.46745199 0 18250.12093042 0 8931.28616333 0 -18962.95215828 0 75
0.00950000 0.00948925 56818.31646226 0 -5860.25573153 0 24632.10656640 0 26900.25634231 0 2768.65112940 0 112
0.01050000 0.01054430 67261.23294886 0 -979.67100788 0 14938.84408153 0 2695.20522321 0 8005.57050124 0 105
0.01150000 0.01145670 58945.16438905 0 2957.53421343 0 14046.89002295 0 -1340.50424556 0 2909.32078029 0 144
0.01250000 0.01249090 62842.94373257 0 3458.81195070 0 20615.54050357 0 -2542.96745389 0 7669.21886259 0 169
0.01350000 0.01339930 52725.22114049 0 -1354.66770406 0 11383.22816387 0 4629.21050866 0 3654.69358000 0 180
0.01450000 0.01448870 58428.20369930 0 41.39057242 0 21146.14336557 0 4393.57802949 0 8112.17908631 0 267
0.01550000 0.01550050 55741.58306253 0 -693.18539071 0 12103.71231763 0 11526.19369253 0 -1223.75830648 0 238
0.01650000 0.01653350 65577.47834015 0 -5681.15508321 0 -2320.27840157 0 18787.60033453 0 24777.06851051 0 315
0.01750000 0.01747870 60856.39944717 0 -894.16342501 0 -7068.40872391 0 6315.91537576 0 9885.62820474 0 297
0.01850000 0.01844180 62939.32623405 0 4162.95877135 0 -14919.10175096 0 -12906.71497668 0 16264.46394078 0 388
0.01950000 0.01947590 56492.01344805 0 4497.85746320 0 -890.01088087 0 298.89888480 0 7655.14413366 0 399
0.02050000 0.02045430 54520.77501444 0 1591.27620856 0 8773.73571068 0 -10444.40270699 0 15932.72624006 0 462
0.02150000 0.02154770 53128.60797350 0 -3560.25203799 0 1104.47691978 0 5836.57602605 0 1497.44468237 0 571
0.02250000 0.02255340 57584.27452351 0 1547.12215350 0 16560.48798733 0 303.92097878 0 5358.09069850 0 510
0.02350000 0.02348930 56482.47501867 0 2205.31814520 0 6396.22673286 0 -13510.40882657 0 -8078.61712434 0 555
0.02450000 0.02439640 54815.91176523 0 597.04911380 0 21531.56245952 0 1930.07900173 0 -2135.35487485 0 592
0.02550000 0.02547300 56828.63127542 0 -1624.96017369 0 14984.53981296 0 24.75710436 0 1577.21257083 0 837
0.02650000 0.02652900 56446.87227647 0 -516.85532339 0 17205.44108987 0 2526.46375284 0 -6270.76311298 0 723
0.02750000 0.02749970 59424.74774510 0 1340.04950648 0 17897.75360338 0 2018.63111817 0 2663.68404148 0 826
0.02850000 0.02848090 53973.75718095 0 1675.96858845 0 16130.59319362 0 -4751.18040150 0 -12193.10736503 0 831
0.02950000 0.02946900 55284.18210038 0 1548.60837390 0 15761.25633524 0 2658.65972926 0 2281.96940731 0 996
0.03050000 0.03053250 49708.30465861 0 2865.28872841 0 22412.42532115 0 -1171.71841040 0 -6215.79514090 0 1041
0.03150000 0.03150510 48431.59697790 0 3368.03050368 0 24259.66417288 0 -3806.08841834 0 2489.90716769 0 1036
0.03250000 0.03246190 44783.03682981 0 305.28186864 0 21884.48434642 0 3540.54298101 0 -1901.38607523 0 1059
0.03350000 0.03345080 47023.45861335 0 -795.10794506 0 24100.06184879 0 4365.09583573 0 1256.45515508 0 1302
0.03450000 0.03451200 46012.05236364 0 445.86500820 0 12130.88575015 0 3393.28515913 0 -3937.63001415 0 1339
0.03550000 0.03553350 47759.13770692 0 -389.82008090 0 19923.78254991 0 1358.42761982 0 2322.89592405 0 1365
0.03650000 0.03647120 44574.96597506 0 1398.15628729 0 14859.76384729 0 -112.83851039 0 3775.17725245 0 1308
0.03750000 0.03744890 46347.45015935 0 108.75450985 0 19572.52434256 0 1207.35442619 0 173.42971932 0 1579
0.03850000 0.03847530 44407.37798917 0 1328.61448243 0 16716.87386430 0 -2000.00899849 0 -1028.38576312 0 1662
0.03950000 0.03950240 44220.82405650 0 337.82122225 0 15124.95436632 0 3556.54757820 0 778.53769682 0 1683
0.04050000 0.04050350 42351.84645876 0 897.10037396 0 17920.49055712 0 499.76157065 0 -81.81687618 0 1822
0.04150000 0.04152450 43009.11078991 0 1710.48439335 0 17319.45859450 0 -1851.47568896 0 1545.68029790 0 1887
0.04250000 0.04250150 40155.90037498 0 1144.36751872 0 20013.39942125 0 3123.21451344 0 946.66027840 0 1920
0.04350000 0.04349210 36623.68688288 0 1387.08727274 0 19097.71020121 0 -941.52616334 0 4050.22784557 0 2005
0.04450000 0.04448520 36446.56046762 0 766.40060000 0 19734.12308209 0 1754.47208045 0 3888.27418773 0 2151
0.04550000 0.04548030 36217.63816260 0 317.07070188 0 16894.77666335 0 2972.27441417 0 4661.37497981 0 2274
0.04650000 0.04648670 36235.16225378 0 -297.30175244 0 16737.17075472 0 1712.32553205 0 6489.00459533 0 2311
0.04750000 0.04749250 36165.17680104 0 -292.67450507 0 16542.96389615 0 2827.31247006 0 6388.39634781 0 2568
0.04850000 0.04851840 36548.71039151 0 129.70267535 0 12446.87395120 0 933.48282731 0 6721.89754885 0 2493
0.04950000 0.04949480 36381.67696547 0 11.25567940 0 14916.43986370 0 757.78273997 0 5215.53554413 0 2644
0.05050000 0.05050630 36896.41941584 0 -524.59032414 0 12969.60206337 0 1342.01264834 0 6058.91016007 0 2829
0.05150000 0.05149060 36600.83901717 0 57.09182538 0 12061.56576922 0 1956.97515433 0 5028.68214914 0 2784
0.05250000 0.05249300 36863.81129681 0 173.04707303 0 10310.49868623 0 172.40045624 0 3649.36980546 0 3055
0.05350000 0.05348950 37247.67762319 0 250.18191132 0 10316.79848610 0 1519.18342839 0 4526.71675766 0 3009
0.05450000 0.05448610 35683.15338167 0 554.64635875 0 9381.86603935 0 -220.93220673 0 1763.94396265 0 3336
0.05550000 0.05550870 35599.74758062 0 395.90027507 0 9582.68325129 0 174.55658493 0 787.48052892 0 3349
0.05650000 0.05647670 34923.40639072 0 -88.86200448 0 8018.35865132 0 831.11329772 0 930.07782985 0 3324
0.05750000 0.05747970 34097.33404201 0 729.60222677 0 9068.72827591 0 -197.66620289 0 1790.51847053 0 3639
0.05850000 0.05849280 33282.90745010 0 1317.10182000 0 9000.18467877 0 -1061.04157429 0 -2434.42900056 0 3846
0.05950000 0.05951020 31944.08906648 0 919.34266032 0 10253.55648110 0 -824.42419684 0 1006.34200918 0 3787
0.06050000 0.06049470 31224.04856061 0 193.36836407 0 10406.23789829 0 -1102.55370623 0 -2954.82796137 0 3930
0.06150000 0.06148310 30652.85191777 0 837.20569220 0 11589.19169120 0 476.70629955 0 -102.67054468 0 4083
0.06250000 0.06249100 30852.71528678 0 -123.00802887 0 9990.31801273 0 267.71043898 0 -2224.10663283 0 4303
0.06350000 0.06350600 29603.84651041 0 -340.56407525 0 9469.96341671 0 1630.20630984 0 -4483.03962408 0 4470
0.06450000 0.06451750 31680.00766715 0 15.01969891 0 8802.72809950 0 36.86048394 0 -4476.61782104 0 4479
0.06550000 0.06550280 29950.11367913 0 670.34750707 0 8062.45725039 0 -229.96709576 0 -4399.90001175 0 4636
0.06650000 0.06648880 29558.59442686 0 375.25733931 0 8156.05586144 0 19.81142872 0 -4421.86058171 0 4653
0.06750000 0.06749660 29464.09742886 0 67.15143010 0 7583.41736300 0 333.57440294 0 -6712.11511314 0 5220
0.06850000 0.06852730 28859.62719518 0 537.14777732 0 7470.13187737 0 807.55448628 0 -5080.06766460 0 5029
0.06950000 0.06949320 27875.72711391 0 815.47914650 0 7244.95839693 0 -1186.02605446 0 -5782.37334656 0 5040
0.07050000 0.07048030 27228.22303607 0 130.82066800 0 6721.52044815 0 45.00297527 0 -3996.39117558 0 5475
0.07150000 0.07148790 28000.17034367 0 -515.79278672 0 6380.72123952 0 2785.84248467 0 -5068.17790148 0 5509
0.07250000 0.07249820 28334.45901969 0 -976.64976583 0 5758.70473227 0 1415.32546017 0 -1355.97646530 0 5916
0.07350000 0.07351270 29079.34380673 0 -94.34183215 0 3854.62349619 0 905.14149175 0 -3107.75338489 0 5721
0.07450000 0.07449140 29736.16449000 0 182.76185243 0 4807.23531087 0 -595.39319810 0 -195.38252544 0 6028
0.07550000 0.07549160 28234.19459927 0 817.06518766 0 6207.95366466 0 -1559.72175324 0 -2745.06015349 0 6183
0.07650000 0.07648840 28774.77953853 0 934.17491800 0 7396.22014091 0 -1840.72831912 0 -760.42577221 0 6330
0.07750000 0.07749960 27227.44665228 0 24.25666955 0 9039.88007265 0 136.23206300 0 -3109.07323733 0 6583
0.07850000 0.07848650 27430.85920431 0 452.15038951 0 8321.68070546 0 -527.23113813 0 -2630.18862670 0 6549
0.07950000 0.07947320 26681.20520258 0 498.08458167 0 9904.27250681 0 46.64646883 0 -3235.42415296 0 6828
0.08050000 0.08048110 26103.79748946 0 582.95109336 0 9416.00474356 0 -127.09180759 0 -3350.00730864 0 7147
0.08150000 0.08149960 25183.33905473 0 934.33795859 0 9205.43836949 0 -815.96383181 0 -4215.44231531 0 7386
0.08250000 0.08250610 24255.67134198 0 912.49384620 0 9901.83244348 0 707.01722242 0 -2373.44959974 0 7227
0.08350000 0.08350160 22671.62659383 0 486.96898409 0 9327.02007044 0 636.82769165 0 -1522.83243219 0 7798
0.08450000 0.08449610 22750.59591610 0 -381.40740801 0 8281.83003483 0 2828.29958658 0 -845.75700505 0 7371
0.08550000 0.08548940 22613.73054576 0 1.77936073 0 7377.66456841 0 2266.78555869 0 -476.10626580 0 8256
0.08650000 0.08650700 22639.68394662 0 103.18096156 0 5926.66981886 0 1078.04105185 0 2474.11330324 0 8037
0.08750000 0.08749060 21910.77048318 0 505.31049648 0 6136.69272427 0 -4.46913126 0 2193.05128138 0 8155
0.08850000 0.08849210 21719.11459992 0 616.97999472 0 6217.21481411 0 -822.47103705 0 3337.38552651 0 8718
0.08950000 0.08949900 20655.91246046 0 356.77385959 0 6185.54944683 0 794.03875368 0 3395.65867527 0 8571
0.09050000 0.09049190 20333.38045321 0 542.86307111 0 6756.11389143 0 -519.41628076 0 3087.26794413 0 8932
0.09150000 0.09150830 19896.38729345 0 474.38934851 0 7139.80275866 0 -603.09381614 0 2781.84965377 0 9285
0.09250000 0.09250820 19169.47024546 0 539.38819911 0 7584.69285065 0 488.40862145 0 1374.97568567 0 9204
0.09350000 0.09350330 18614.13401426 0 174.88377524 0 8114.90752076 0 -641.49043085 0 2928.90783410 0 9349
0.09450000 0.09448040 17769.87210256 0 532.55158531 0 7237.94876046 0 259.24452835 0 418.22241804 0 9564
0.09550000 0.09549270 17799.48559842 0 379.25682493 0 7961.78245569 0 602.78548086 0 2152.81241885 0 10155
0.09650000 0.09649430 17205.44108987 0 133.20971183 0 7303.27591048 0 -113.94652097 0 795.96973107 0 9913
0.09750000 0.09749140 17196.56813231 0 -221.11077500 0 7016.97884366 0 1384.18137914 0 2899.81562451 0 10476
0.09850000 0.09850240 17318.90403465 0 -239.20273546 0 5935.02149016 0 1191.98202722 0 1597.45400526 0 10575
0.09950000 0.09950330 17858.93441406 0 -123.93081646 0 5063.53068995 0 503.70560028 0 2013.17424927 0 10882
0.10050000 0.10051200 17745.69329322 0 314.22691898 0 4963.41045510 0 -53.47986618 0 1384.01501118 0 10875
0.10150000 0.10150300 17128.24635911 0 407.30202553 0 5622.94848163 0 -1476.72632647 0 1228.28351483 0 11118
0.10250000 0.10250800 16642.11919687 0 351.27817150 0 5902.92356619 0 -610.46280739 0 443.23861276 0 11575
0.10350000 0.10349800 16257.03283883 0 312.67304229 0 6274.46757276 0 -183.98188410 0 -434.15603158 0 11364
0.10450000 0.10450100 16057.61311770 0 209.60476729 0 5804.71101722 0 107.68809127 0 -1587.64938715 0 12093
0.10550000 0.10551000 15706.68764626 0 161.43237158 0 6629.78515819 0 39.13173925 0 -1562.74965000 0 12067
0.10650000 0.10649700 15393.25042050 0 284.77202724 0 5866.57771379 0 -16.51113216 0 -1947.49218094 0 12054
0.10750000 0.10749900 15309.40097157 0 2.74792168 0 5652.95016937 0 242.06759163 0 -2653.56886986 0 12807
0.10850000 0.10850100 15142.36754553 0 45.60012531 0 5133.94869938 0 356.08509626 0 -1607.66899764 0 12736
0.10950000 0.10950300 15193.27613952 0 -33.33104324 0 4400.96476666 0 613.88222341 0 -2465.17379850 0 12933
0.11050000 0.11050200 15031.23375211 0 -203.47133537 0 4392.89037528 0 1203.37268649 0 -2214.01364361 0 13428
0.11150000 0.11150900 15115.74867285 0 231.27031141 0 4276.13334501 0 -392.67384587 0 -1314.24029118 0 13453
0.11250000 0.11250000 14896.80844510 0 258.28292157 0 3805.41185533 0 -22.64423134 0 -1731.76840030 0 13668
0.11350000 0.11349100 14433.30732463 0 321.80220650 0 4838.50139507 0 -548.36874127 0 -1363.19683451 0 13791
0.11450000 0.11448600 14670.43711538 0 150.10715038 0 3937.43037260 0 562.66973062 0 -739.51110212 0 14205
0.11550000 0.11549300 14055.31933264 0 35.76190088 0 5089.93882989 0 419.87278815 0 -237.71429683 0 14776
0.11650000 0.11649800 14040.56804069 0 232.26408265 0 4801.60098282 0 85.95511267 0 294.60770070 0 14553
0.11750000 0.11747300 13885.62401933 0 177.97267359 0 4278.65104672 0 428.34868086 0 -417.25637479 0 14568
0.11850000 0.11849100 13686.31521017 0 181.09373641 0 4483.21708323 0 -289.77859355 0 488.14132361 0 16015
0.11950000 0.11950300 13304.88894712 0 158.90579692 0 4513.28531816 0 -7.63865152 0 405.43981356 0 15270
0.12050000 0.12050700 13528.93112547 0 -147.34655146 0 4464.28441004 0 708.41914972 0 601.71850772 0 15999
0.12150000 0.12150000 13605.46038442 0 -219.15983346 0 3909.76892741 0 444.26676672 0 94.29835466 0 15670
0.12250000 0.12250700 13741.10572309 0 128.26525623 0 3888.69565321 0 5.79556078 0 748.24541972 0 16887
0.12350000 0.12352200 13364.67049867 0 340.95004891 0 3618.60282513 0 -356.31357492 0 47.24506073 0 16407
0.12450000 0.12449800 13078.29579347 0 269.78560193 0 4075.06103553 0 -49.36214840 0 615.57806742 0 16306
0.12550000 0.12549900 12916.03158211 0 113.46405390 0 4353.67190287 0 336.14201503 0 1025.62627332 0 17523
0.12650000 0.12650100 12772.51149360 0 -59.87793405 0 3731.21174775 0 867.09314062 0 855.61707913 0 17154
0.12750000 0.12750600 12836.28587606 0 -10.15037508 0 3539.57804687 0 355.64366662 0 1325.54222087 0 18007
0.12850000 0.12850300 12661.59952412 0 244.40450683 0 3102.79561986 0 35.21199934 0 1564.19150561 0 17496
0.12950000 0.12949900 12361.24991076 0 247.43351272 0 3743.15696686 0 -381.07245387 0 1374.14384590 0 18405
0.13050000 0.13049000 12161.05380585 0 231.32798563 0 3610.87226086 0 -252.86709010 0 967.47734596 0 18100
0.13150000 0.13148800 11897.19423045 0 164.26395416 0 3950.14088431 0 -417.82757143 0 648.55663243 0 19059
0.13250000 0.13249300 11712.74762520 0 282.28870825 0 4417.88993320 0 -551.18812354 0 -131.27984356 0 18957
0.13350000 0.13349100 11687.90334404 0 106.91126383 0 4543.00972598 0 -92.99003707 0 132.88363064 0 19468
0.13450000 0.13450700 11693.33803054 0 -192.55205198 0 4243.61395556 0 542.00683071 0 -418.55848131 0 19953
0.13550000 0.13551000 11727.60982911 0 -138.13531239 0 3967.40987795 0 538.78705623 0 -85.63391161 0 19956
0.13650000 0.13649900 11621.02342644 0 261.38402024 0 3718.41250647 0 115.43717784 0 -185.46921361 0 19723
0.13750000 0.13749600 11547.15605476 0 276.85956734 0 3787.68812261 0 -278.63304973 0 -569.19800914 0 20946
0.13850000 0.13851100 11081.40342132 0 340.69716962 0 4613.22809386 0 -411.19725390 0 -103.38781238 0 20955
0.13950000 0.13949800 10763.31898404 0 393.65098033 0 4543.13172914 0 -555.89633664 0 -451.96738476 0 20506
0.14050000 0.14048300 10262.62908021 0 127.03302425 0 4494.68538087 0 306.70597833 0 233.34547435 0 21447
0.14150000 0.14148400 10224.77482502 0 -37.25599602 0 4571.91338522 0 574.79795448 0 -465.84025390 0 21771
0.14250000 0.14249400 10311.76308269 0 -85.59087776 0 4027.98999569 0 937.65533560 0 326.17213809 0 22470
0.14350000 0.14350900 10323.13155956 0 -87.61180476 0 3682.82085546 0 525.09497360 0 569.35994062 0 22519
0.14450000 0.14449900 10520.03357898 0 -208.94373195 0 2612.74217390 0 450.85271947 0 873.47390622 0 22218
0.14550000 0.14550500 10769.44132475 0 -194.42535514 0 2305.23873851 0 746.46195525 0 497.21281359 0 23559
0.14650000 0.14650700 10813.41792065 0 70.48012013 0 2023.23396490 0 -276.54790471 0 328.26615608 0 23044
0.14750000 0.14750500 10691.95822287 0 124.20476902 0 2139.09260822 0 -341.21291027 0 550.76998541 0 23649
0.14850000 0.14849900 10576.28812990 0 303.16123178 0 2395.45453448 0 -288.55967100 0 194.59394134 0 23640
0.14950000 0.14949500 10199.39816640 0 203.35931429 0 2775.96022819 0 -321.01584063 0 217.98194834 0 24457
0.15050000 0.15050000 10232.90467238 0 87.95230450 0 2972.49623811 0 335.51758064 0 163.69386664 0 24591
0.15150000 0.15149900 10040.69422927 0 51.93319877 0 2780.21924781 0 115.57027220 0 487.01667624 0 25020
0.15250000 0.15250500 9934.48492730 0 87.38155151 0 2921.18836103 0 12.18112887 0 642.89013991 0 25297
0.15350000 0.15350100 9817.53934667 0 100.55101694 0 2735.08916743 0 452.13929831 0 686.82569838 0 25452
0.15450000 0.15450400 9944.68882849 0 35.40709349 0 2495.03130068 0 357.29181849 0 1347.30314929 0 26061
0.15550000 0.15549900 9543.62005564 0 137.81588592 0 2348.70513935 0 209.87539249 0 1039.28064588 0 26128
0.15650000 0.15649500 9413.79759536 0 250.29836889 0 2553.42645262 0 -69.52306074 0 1502.87936888 0 26331
0.15750000 0.15749700 9036.48616638 0 177.50906156 0 2484.98267625 0 -27.59123791 0 1506.11799839 0 27345
0.15850000 0.15849900 9054.15444312 0 29.94490082 0 2072.35687618 0 284.89513953 0 1630.68323131 0 26980
0.15950000 0.15949700 8944.16304299 0 74.31911613 0 2257.84605395 0 -46.97243911 0 1371.54850581 0 27777
0.16050000 0.16050000 8720.95270440 0 215.37108058 0 2201.05912557 0 -315.11754209 0 704.63926980 0 28224
0.16150000 0.16150500 8597.69623272 0 159.06329191 0 2591.22525182 0 -65.50183638 0 1425.22989904 0 28075
0.16250000 0.16249700 8478.59895989 0 14.56673442 0 2461.26969717 0 -164.35268374 0 547.63228580 0 28590
0.16350000 0.16349900 8515.31082179 0 99.48348923 0 2872.97492789 0 194.91004045 0 1056.75704491 0 29163
0.16450000 0.16449100 8257.61795189 0 173.51290330 0 2643.81970774 0 -302.13862343 0 355.13014420 0 28996
0.16550000 0.16550500 8169.84221924 0 130.75190258 0 3085.17170791 0 -122.93039050 0 820.80513927 0 30777
0.16650000 0.16650700 8039.05482483 0 25.57973843 0 2851.84619771 0 142.14145273 0 410.70036827 0 29211
0.16750000 0.16749900 8123.08173291 0 -41.12216545 0 2857.65798491 0 149.60915563 0 487.68769365 0 30922
0.16850000 0.16850800 8148.36966195 0 27.19750042 0 2761.74131370 0 27.33547491 0 126.75019872 0 30867
0.16950000 0.16949900 7972.87365264 0 107.72591225 0 2716.37831818 0 -75.67357310 0 366.14924837 0 30852
0.17050000 0.17049200 8078.19565886 0 26.08006233 0 2590.92578950 0 73.24360276 0 96.54365657 0 31257
0.17150000 0.17149500 7959.49766912 0 -12.80833606 0 2569.50868819 0 204.40410504 0 302.69207415 0 32608
0.17250000 0.17250900 7988.90043223 0 36.81977924 0 2378.66246230 0 406.97594434 0 495.41936704 0 32361
0.17350000 0.17350400 8052.28662279 0 -99.95863611 0 1924.41140009 0 420.51940493 0 615.55588503 0 32508
0.17450000 0.17449800 8078.57275956 0 18.84327814 0 1785.22796959 0 500.20410941 0 1156.71202093 0 32791
0.17550000 0.17549800 7973.53912446 0 52.76936410 0 1485.47728087 0 124.08387498 0 944.12483078 0 33633
0.17650000 0.17650100 7910.95150008 0 165.78122990 0 1557.57006103 0 -166.13836645 0 1496.06937395 0 33984
0.17750000 0.17750300 7765.30190175 0 180.02565415 0 1714.72123059 0 -186.64709872 0 1133.86415521 0 34069
0.17850000 0.17849800 7383.38762604 0 101.49044132 0 1852.59589985 0 -195.08195400 0 1065.69100405 0 34536
