### header ###
fiducial parameters:
Omega_m = 0.31
Omega_nu = 0
Omega_de = 0.69
Omega_k = 0
H_0 = 100
w_de = -1
zeff = 0
beta = 0
fgrowth = 0
b_1 = 2
gamma = 0.55
Lx = 3500 Ly = 3500 Lz = 3500
nx = 700 ny = 700 nz = 700
xoffset = 1379.75464 yoffset = 22.6059522 zoffset = 368.141391
bins = 400 dk = 0.001
kx_ny = 0.628318531 ky_ny = 0.628318531 kz_ny = 0.628318531
############################
A(data) = 3.30704062 (not used)
A(ran) = 3.30198892 (used)
Ngal = 185698
weighted Ngal = 0
Nran = 9399747
weighted Nran = 0
SN(data) = 6731.17482
SN(ran) = 131.337873
SN(data+ran) = 6862.5127
############################
13 columns: k_central k_mean P_0(k) sigma^{lin}_{P_0(k)} P^img_1(k) sigma^{lin}_{P_1(k)} P_2(k) sigma^{lin}_{P_2(k)} P^img_3(k) sigma^{lin}_{P_3(k)} P_4(k) sigma^{lin}_{P_4(k)} N_modes
### header ###
0.00050000 0 0 0 0 0 0 0 0 0 0 0 0
0.00150000 0.00179520 53929.50330513 0 -34895.67839835 0 -72182.17521085 0 56943.75789975 0 -183795.55198808 0 3
0.00250000 0.00253879 90331.58807298 0 -46215.46491567 0 -41203.35301477 0 7086.28773339 0 61450.22213178 0 6
0.00350000 0.00331552 112608.92261530 0 -34402.00922218 0 -28413.53925393 0 -104266.45700676 0 -87727.37502954 0 7
0.00450000 0.00420575 133148.71024372 0 -4995.58601745 0 -34249.17252823 0 -59000.06581395 0 4465.97027197 0 24
0.00550000 0.00557378 97539.42423372 0 27485.20606936 0 9255.07147584 0 -68261.99164950 0 8622.36305473 0 45
0.00650000 0.00659388 85731.95778658 0 34474.54565022 0 36568.56363405 0 2886.29545543 0 35948.45481267 0 40
0.00750000 0.00754703 49748.12205565 0 1512.15160953 0 37030.95563482 0 36605.60823185 0 -4252.38709234 0 57
0.00850000 0.00846663 53372.05974651 0 -1548.63055629 0 44391.40666557 0 23853.83727654 0 2062.28606936 0 75
0.00950000 0.00948925 66664.30472911 0 -417.54474591 0 24611.25511614 0 12173.25412249 0 -1693.02684936 0 112
0.01050000 0.01054430 54261.79556570 0 1614.10189187 0 16455.45435223 0 973.94018642 0 24593.39828905 0 105
0.01150000 0.01145670 66534.53772481 0 -5812.08666319 0 11706.20381900 0 15486.86012274 0 24923.02866235 0 144
0.01250000 0.01249090 64489.76465544 0 -7448.83677923 0 10216.20132978 0 12603.14891620 0 9202.58793188 0 169
0.01350000 0.01339930 83650.47285531 0 -4071.81131483 0 -3920.79357718 0 13966.36793311 0 -2386.91431283 0 180
0.01450000 0.01448870 78439.38488116 0 4343.50127527 0 11591.74266650 0 -10343.60590912 0 22705.12200861 0 267
0.01550000 0.01550050 68104.16391693 0 5392.98360410 0 4662.47300831 0 -12268.19476837 0 1229.42590812 0 238
0.01650000 0.01653350 73368.37872446 0 1096.11304816 0 23365.60278688 0 319.44754538 0 13606.68041608 0 315
0.01750000 0.01747870 62896.95786171 0 4818.81452049 0 10722.59210885 0 274.90308020 0 3663.32253123 0 297
0.01850000 0.01844180 62817.65580353 0 3460.12071194 0 25525.39156861 0 -397.21569102 0 -3045.73141156 0 388
0.01950000 0.01947590 60121.38582541 0 1558.88991347 0 25991.22184043 0 -1463.21724859 0 -187.68967124 0 399
0.02050000 0.02045430 56344.38961667 0 4170.85570358 0 25630.09246780 0 632.79160509 0 -2884.73159666 0 462
0.02150000 0.02154770 53582.23792868 0 -510.51226785 0 22006.93116072 0 1391.83430503 0 -10548.46031676 0 571
0.02250000 0.02255340 52813.83980411 0 -1479.57676409 0 21371.29466362 0 8672.57290331 0 -7909.08817899 0 510
0.02350000 0.02348930 54411.74854844 0 1020.55981455 0 17844.51585803 0 -3983.63629909 0 -3174.22292820 0 555
0.02450000 0.02439640 55200.88721130 0 -1364.72741969 0 15848.10040735 0 5506.63509923 0 -12337.07110142 0 592
0.02550000 0.02547300 57976.57015957 0 -3717.02610685 0 9712.41698200 0 7277.34469202 0 51.86532064 0 837
0.02650000 0.02652900 63712.71539725 0 -3139.54075535 0 7890.01132024 0 6420.63845734 0 -10795.35036083 0 723
0.02750000 0.02749970 63960.27091313 0 -409.53801083 0 3411.21962459 0 1191.00600189 0 1691.29662263 0 826
0.02850000 0.02848090 65596.00063906 0 1716.22963337 0 7163.83738245 0 -5321.93339645 0 -2579.06929996 0 831
0.02950000 0.02946900 62099.27897719 0 2672.37953989 0 9168.99269632 0 -5996.77727477 0 -1826.63140780 0 996
0.03050000 0.03053250 61523.75676755 0 1890.69416137 0 16029.66330139 0 1457.07272548 0 3341.60018135 0 1041
0.03150000 0.03150510 54769.55056199 0 2443.02467819 0 13702.06470983 0 -550.49603285 0 268.80624924 0 1036
0.03250000 0.03246190 55944.21923077 0 1847.31649011 0 19784.47711624 0 -1164.54240597 0 9031.21784783 0 1059
0.03350000 0.03345080 54794.39484315 0 859.34039395 0 17533.51869560 0 4495.00702558 0 -2090.57971277 0 1302
0.03450000 0.03451200 50933.32736154 0 2547.67012140 0 19923.33890203 0 1641.61915150 0 11978.60361605 0 1339
0.03550000 0.03553350 49406.29136570 0 1129.70495636 0 17322.45321767 0 1446.23662606 0 5535.10620180 0 1365
0.03650000 0.03647120 48085.10798523 0 144.96416235 0 16939.80692296 0 4067.08646493 0 7278.59799727 0 1308
0.03750000 0.03744890 48009.57693402 0 689.12490351 0 16531.98361117 0 -87.22705114 0 6969.27560558 0 1579
0.03850000 0.03847530 45951.16169239 0 2364.82064851 0 16581.00670168 0 -631.54606367 0 7872.44286427 0 1662
0.03950000 0.03950240 44239.01361950 0 70.87163938 0 16060.71865284 0 3023.71538562 0 7146.80130394 0 1683
0.04050000 0.04050350 43343.73220184 0 17.65873831 0 13219.59764259 0 4507.70644609 0 5164.70458852 0 1822
0.04150000 0.04152450 42389.00196853 0 754.19362864 0 14249.96983908 0 163.70163048 0 10903.06806559 0 1887
0.04250000 0.04250150 43464.29351266 0 -801.99114189 0 8070.75346571 0 4314.88598715 0 4253.99531590 0 1920
0.04350000 0.04349210 41845.64423004 0 971.38033816 0 9846.78683303 0 3399.39640865 0 8623.83818392 0 2005
0.04450000 0.04448520 40122.95952004 0 1920.10801568 0 7302.49952669 0 -3587.92457437 0 5048.97903956 0 2151
0.04550000 0.04548030 38417.68798925 0 1662.58151374 0 10164.48307841 0 -1019.34421936 0 6681.17067366 0 2274
0.04650000 0.04648670 36535.51186714 0 1662.28205142 0 13909.91374064 0 -2456.37847932 0 4930.96870403 0 2311
0.04750000 0.04749250 34480.86763248 0 1273.11413290 0 15223.77693113 0 -2418.97896321 0 886.57371894 0 2568
0.04850000 0.04851840 33259.94867242 0 996.80801629 0 16101.31243367 0 -380.75524563 0 -5.68236402 0 2493
0.04950000 0.04949480 33779.46033748 0 -238.34427682 0 15950.80489109 0 -711.84078397 0 -3359.47919083 0 2644
0.05050000 0.05050630 33857.43145202 0 -322.08281378 0 15790.42618322 0 1985.64589844 0 -2394.35650599 0 2829
0.05150000 0.05149060 35486.72828372 0 -685.32727767 0 15152.01688688 0 2073.59909024 0 -2750.15101289 0 2784
0.05250000 0.05249300 35791.84711176 0 -1195.35375109 0 11276.41993726 0 1874.81156734 0 -5463.44597832 0 3055
0.05350000 0.05348950 36511.00032188 0 705.20048436 0 11508.11504151 0 -125.75420924 0 -5560.76014034 0 3009
0.05450000 0.05448610 34782.88092538 0 1144.14569478 0 11879.33740336 0 -3538.21382965 0 -7092.60971565 0 3336
0.05550000 0.05550870 33847.56028674 0 1605.99422691 0 15110.42489832 0 -1525.19485714 0 -6639.34576996 0 3349
0.05650000 0.05647670 32216.48886353 0 601.22384033 0 14436.08012387 0 -1652.13360621 0 -8798.61326543 0 3324
0.05750000 0.05747970 31083.96674315 0 397.27225613 0 15770.01838083 0 1102.40397507 0 -10279.24369323 0 3639
0.05850000 0.05849280 31877.43097283 0 143.42026774 0 14141.94158080 0 2440.08551100 0 -11310.35899992 0 3846
0.05950000 0.05951020 30679.13805454 0 -524.55039583 0 12666.92329866 0 2637.55318147 0 -5126.00740236 0 3787
0.06050000 0.06049470 31209.51909260 0 -138.79191125 0 11638.76934156 0 2366.90579354 0 -6430.09924834 0 3930
0.06150000 0.06148310 31662.37266400 0 659.95061905 0 10014.04208301 0 1125.73430785 0 -826.55592489 0 4083
0.06250000 0.06249100 30577.20995459 0 198.38158509 0 8992.86448879 0 1477.79108138 0 -1652.76580444 0 4303
0.06350000 0.06350600 30244.14131023 0 574.38979843 0 9770.46830683 0 -324.80348439 0 -614.53993139 0 4470
0.06450000 0.06451750 28968.43183725 0 1131.03589999 0 11302.37333812 0 -1900.70951221 0 -255.38146445 0 4479
0.06550000 0.06550280 28751.93167282 0 100.30512510 0 10654.03742051 0 -394.09351908 0 -543.88789771 0 4636
0.06650000 0.06648880 28813.48781588 0 -874.12052300 0 10211.04392320 0 1400.05288197 0 -3280.16604145 0 4653
0.06750000 0.06749660 30156.40994237 0 -551.84583152 0 8687.14673610 0 1889.28557936 0 -3046.58543372 0 5220
0.06850000 0.06852730 30036.62501533 0 21.86429837 0 7441.42785967 0 676.78040130 0 -3928.15813196 0 5029
0.06950000 0.06949320 29694.01794160 0 503.63128926 0 7068.17580877 0 524.45390241 0 -2220.72381776 0 5040
0.07050000 0.07048030 28768.45755627 0 981.67407805 0 7412.84584513 0 -22.21755299 0 -1324.14473006 0 5475
0.07150000 0.07148790 28273.90108435 0 -2.91313615 0 5172.98971264 0 2026.39495603 0 -617.58557407 0 5509
0.07250000 0.07249820 27622.84782349 0 -130.53340600 0 5419.90193910 0 1836.12547238 0 540.83892767 0 5916
0.07350000 0.07351270 28136.92480204 0 535.85787112 0 5024.74477423 0 352.09115624 0 1059.43667809 0 5721
0.07450000 0.07449140 26706.49313163 0 1271.98283081 0 6089.59950203 0 -1542.35293882 0 1676.58969548 0 6028
0.07550000 0.07549160 25354.25439970 0 992.91056968 0 7870.47972241 0 -1939.20705682 0 2896.85427492 0 6183
0.07650000 0.07648840 24730.59639530 0 483.74366402 0 9209.51992997 0 -281.12635081 0 1929.70190104 0 6330
0.07750000 0.07749960 24272.75178528 0 69.16182046 0 9779.49654114 0 873.17555302 0 2892.93908240 0 6583
0.07850000 0.07848650 24023.19985394 0 446.97967349 0 10193.37564646 0 -528.06852350 0 1792.43724761 0 6549
0.07950000 0.07947320 24331.86786501 0 271.05665310 0 10059.32744014 0 -530.81803122 0 1474.63009025 0 6828
0.08050000 0.08048110 23244.81965212 0 519.98415004 0 11274.53443378 0 -156.44576943 0 778.48224084 0 7147
0.08150000 0.08149960 22907.53635292 0 395.96127665 0 11038.46939793 0 -139.22446793 0 311.83787516 0 7386
0.08250000 0.08250610 22747.93402884 0 201.72114450 0 11442.78789148 0 73.51023513 0 -488.90439796 0 7227
0.08350000 0.08350160 22133.03807003 0 -57.71625977 0 10185.58962620 0 1026.94723487 0 -834.97303425 0 7798
0.08450000 0.08449610 22194.37238915 0 49.79958521 0 9499.53254777 0 1168.49087209 0 527.89660995 0 7371
0.08550000 0.08548940 22027.78261099 0 382.33795944 0 9349.12482596 0 -197.84477116 0 -2651.48372484 0 8256
0.08650000 0.08650700 21272.69392275 0 533.96349468 0 9905.33726172 0 -191.19892595 0 -997.35592141 0 8037
0.08750000 0.08749060 20859.21410052 0 239.23046345 0 8877.21657821 0 482.01676465 0 -1884.03944320 0 8155
0.08850000 0.08849210 20430.20660256 0 195.53891132 0 9094.99223028 0 447.20704303 0 602.86977396 0 8718
0.08950000 0.08949900 20201.72794543 0 379.35775482 0 7961.34989901 0 877.55657582 0 -533.80045408 0 8571
0.09050000 0.09049190 19853.68618520 0 380.49349339 0 9140.66577932 0 392.18694233 0 169.40250571 0 8932
0.09150000 0.09150830 19436.98991585 0 188.66015097 0 7814.53572501 0 806.56847887 0 914.10650624 0 9285
0.09250000 0.09250820 18713.40022695 0 380.16408484 0 9119.71450828 0 -223.36117886 0 483.65937092 0 9204
0.09350000 0.09350330 18634.09816877 0 93.40318416 0 7342.88257478 0 618.53387141 0 1251.55284603 0 9349
0.09450000 0.09448040 18261.65577525 0 -52.39026699 0 7146.52402401 0 652.30767524 0 -462.01822743 0 9564
0.09550000 0.09549270 18482.14877058 0 103.06905138 0 7096.44726979 0 463.76730919 0 1485.51055446 0 10155
0.09650000 0.09649430 18283.28360930 0 -121.66155756 0 5586.01479579 0 1427.71432716 0 -421.48655731 0 9913
0.09750000 0.09749140 18401.29394483 0 104.03187819 0 5936.75171688 0 398.44681389 0 2141.99850182 0 10476
0.09850000 0.09850240 17840.30120319 0 541.43896142 0 5092.70053793 0 68.51254179 0 1299.62209360 0 10575
0.09950000 0.09950330 17465.52965831 0 451.39175164 0 5051.77402119 0 73.46110113 0 2603.59193641 0 10882
0.10050000 0.10051200 16770.77708147 0 448.65888071 0 5960.14305125 0 -231.71395928 0 2495.06457428 0 10875
0.10150000 0.10150300 16076.35724054 0 263.90394019 0 5965.55555536 0 496.23013354 0 3154.05913215 0 11118
0.10250000 0.10250800 16172.51791808 0 78.13027322 0 5691.12606927 0 1202.94012981 0 3662.60160342 0 11575
0.10350000 0.10349800 16157.43389023 0 -198.67328357 0 4969.27769829 0 451.74999730 0 3498.70698612 0 11364
0.10450000 0.10450100 16295.40838027 0 -125.23181386 0 4915.84031139 0 731.36572708 0 3912.22008194 0 12093
0.10550000 0.10551000 16142.12803844 0 164.02992991 0 5052.22876026 0 -68.98169942 0 3572.00870675 0 12067
0.10650000 0.10649700 15788.42976776 0 461.73872927 0 4485.73478494 0 -813.39732883 0 3808.40647851 0 12054
0.10750000 0.10749900 15409.99812789 0 425.70010303 0 5528.38493645 0 -509.90114290 0 1748.63811086 0 12807
0.10850000 0.10850100 14900.46854009 0 321.03358655 0 5503.10809860 0 -453.60111807 0 2484.01774211 0 12736
0.10950000 0.10950300 14593.24238462 0 125.24955978 0 6018.69347994 0 375.91726553 0 2071.30321247 0 12933
0.11050000 0.11050200 14472.01560198 0 7.91640837 0 5205.17636618 0 596.00875953 0 700.89377259 0 13428
0.11150000 0.11150900 14617.53210594 0 10.96333763 0 4965.77288005 0 259.33103968 0 1749.74723055 0 13453
0.11250000 0.11250000 14231.33662820 0 -9.80476229 0 4329.26017839 0 745.91294100 0 1339.90532092 0 13668
0.11350000 0.11349100 14480.22308772 0 288.38886657 0 4922.66139751 0 62.95174837 0 2303.24232306 0 13791
0.11450000 0.11448600 14004.74347455 0 111.51976707 0 3818.07800224 0 185.79973128 0 1659.69780253 0 14205
0.11550000 0.11549300 13671.89665414 0 354.01769715 0 4518.02125925 0 -22.00815119 0 2178.65490774 0 14776
0.11650000 0.11649800 13742.10393082 0 -167.17761160 0 3910.00184255 0 645.71506777 0 2564.45110238 0 14553
0.11750000 0.11747300 13942.18912376 0 -462.29218000 0 3589.61043631 0 1361.07841590 0 3322.65641696 0 14568
0.11850000 0.11849100 14332.04469649 0 -204.33533962 0 2600.08711818 0 623.72122422 0 2335.70625652 0 16015
0.11950000 0.11950300 14384.50605806 0 167.05671755 0 2209.33315850 0 -360.51602944 0 2606.06527333 0 15270
0.12050000 0.12050700 14135.84142248 0 430.46709948 0 2614.98259568 0 -737.06992967 0 2191.26559867 0 15999
0.12150000 0.12150000 13877.08379768 0 110.70023853 0 3081.96635199 0 -266.59466457 0 1712.13698170 0 15670
0.12250000 0.12250700 13595.25648322 0 65.05109013 0 3348.84273296 0 -317.87370454 0 1370.30629176 0 16887
0.12350000 0.12352200 13728.23993463 0 76.81674277 0 2745.37070700 0 -43.80224228 0 303.80452121 0 16407
0.12450000 0.12449800 13712.04678709 0 -81.95008145 0 3474.28417044 0 182.11745389 0 961.88627357 0 16306
0.12550000 0.12549900 13826.39702762 0 -76.40625757 0 2817.04202168 0 2.84546876 0 -111.91461369 0 17523
0.12650000 0.12650100 13755.52427912 0 200.32143544 0 3229.93401047 0 -311.20678605 0 -311.36095369 0 17154
0.12750000 0.12750600 13444.97076457 0 428.47955698 0 3596.85298791 0 -873.52714397 0 -380.56336793 0 18007
0.12850000 0.12850300 13065.76274091 0 293.30559418 0 4232.55603220 0 -318.67448896 0 -633.72215651 0 17496
0.12950000 0.12949900 12976.47860548 0 145.80487508 0 4519.75148598 0 -38.71349021 0 -435.16533050 0 18405
0.13050000 0.13049000 12796.57939098 0 4.82574652 0 4308.76364643 0 228.20137721 0 -1402.40421572 0 18100
0.13150000 0.13148800 12772.62240557 0 347.50716454 0 4628.10138896 0 -218.86591674 0 -693.10109761 0 19059
0.13250000 0.13249300 12097.27942340 0 298.89112096 0 4988.47656021 0 -140.35577002 0 -449.50735728 0 18957
0.13350000 0.13349100 12191.66550943 0 -32.05588833 0 4678.44433191 0 687.23385443 0 -250.16083805 0 19468
0.13450000 0.13450700 12139.20414786 0 -196.74452443 0 4273.81528485 0 1010.06754224 0 -260.71854842 0 19953
0.13550000 0.13551000 12123.67647213 0 159.80862035 0 3631.02496571 0 162.94299261 0 73.55981278 0 19956
0.13650000 0.13649900 11842.51462950 0 336.42927703 0 3810.49162353 0 -175.79325339 0 733.82686369 0 19723
0.13750000 0.13749600 11475.50692248 0 334.27980306 0 3979.94293051 0 -136.15664286 0 470.59837739 0 20946
0.13850000 0.13851100 11028.80896539 0 149.56811821 0 4200.66884097 0 37.92313152 0 579.00151813 0 20955
0.13950000 0.13949800 11018.29451068 0 77.09923555 0 3904.65588562 0 32.23124016 0 771.01453793 0 20506
0.14050000 0.14048300 10933.32485086 0 6.63484274 0 3894.70708196 0 231.96462033 0 88.84769683 0 21447
0.14150000 0.14148400 10880.34220304 0 70.07506961 0 4107.60260738 0 -135.16841721 0 -24.80890025 0 21771
0.14250000 0.14249400 10684.51602972 0 277.64482409 0 3906.31956516 0 -149.73337704 0 -150.39330326 0 22470
0.14350000 0.14350900 10335.30969381 0 158.83259502 0 4010.72100204 0 -132.67400701 0 -143.74745805 0 22519
0.14450000 0.14449900 10217.97592129 0 219.02562997 0 4223.60543626 0 27.61086933 0 -509.24454404 0 22218
0.14550000 0.14550500 10029.91358584 0 28.47786820 0 3916.06872728 0 315.05543139 0 -207.59282416 0 23559
0.14650000 0.14650700 9948.45983545 0 -53.78520683 0 3347.30105658 0 652.20341798 0 -440.83182302 0 23044
0.14750000 0.14750500 10167.48879278 0 -85.91074788 0 2872.20963530 0 301.51529816 0 -60.21055905 0 23649
0.14850000 0.14849900 10067.90093539 0 -5.58629208 0 2481.06748373 0 528.69406701 0 -421.12165693 0 23640
0.14950000 0.14949500 10069.27624381 0 -41.61173089 0 1956.38732089 0 194.91558605 0 53.05119142 0 24457
0.15050000 0.15050000 10012.00130277 0 17.79804374 0 1957.65171735 0 488.68922874 0 206.72771080 0 24591
0.15150000 0.15149900 9964.63080060 0 79.27455201 0 1494.89370708 0 195.90824818 0 42.88433482 0 25020
0.15250000 0.15250500 9853.21972726 0 102.26848879 0 1335.34683898 0 -6.40719593 0 284.37939887 0 25297
0.15350000 0.15350100 9795.25713200 0 118.88099449 0 1402.01602383 0 -2.96224797 0 147.26004012 0 25452
0.15450000 0.15450400 9576.76055212 0 51.09392789 0 1771.23087904 0 72.76102478 0 575.68635936 0 26061
0.15550000 0.15549900 9572.21316138 0 31.70307736 0 1299.47790804 0 110.86128271 0 226.71515682 0 26128
0.15650000 0.15649500 9637.07448113 0 52.39270706 0 1694.70162010 0 7.72095930 0 253.11442379 0 26331
0.15750000 0.15749700 9452.45041673 0 237.75200690 0 1566.38756260 0 -386.64467121 0 19.57829176 0 27345
0.15850000 0.15849900 9230.80393692 0 272.51514550 0 2044.09650636 0 -378.56695248 0 192.88811525 0 26980
0.15950000 0.15949700 9001.31598086 0 245.68775832 0 2504.21481176 0 -202.64060472 0 99.10539033 0 27777
0.16050000 0.16050000 8650.94506927 0 99.35472044 0 2425.57822539 0 -12.09927584 0 253.80096889 0 28224
0.16150000 0.16150500 8529.78483380 0 81.37289556 0 2578.60346969 0 145.77381973 0 97.88802055 0 28075
0.16250000 0.16249700 8670.19938717 0 -14.84800718 0 2336.62682587 0 306.92225667 0 531.87391317 0 28590
0.16350000 0.16349900 8562.04912573 0 -72.23097648 0 2259.34336553 0 491.71379814 0 892.67387726 0 29163
0.16450000 0.16449100 8711.31445425 0 15.05408162 0 2064.06066087 0 276.05434644 0 1033.29250865 0 28996
0.16550000 0.16550500 8573.98325364 0 111.98892471 0 1825.91048000 0 -134.75582468 0 817.71069532 0 30777
0.16650000 0.16650700 8446.74504225 0 233.70150178 0 2342.54952504 0 -309.29466370 0 694.32223840 0 29211
0.16750000 0.16749900 8325.77335714 0 118.80668347 0 2472.68253883 0 -352.95294224 0 1121.26455548 0 30922
0.16850000 0.16850800 8239.69457762 0 35.49271753 0 2449.82358192 0 79.91983785 0 489.57652449 0 30867
0.16950000 0.16949900 8194.71977400 0 26.42477673 0 2556.22143425 0 -22.85052760 0 532.01255314 0 30852
0.17050000 0.17049200 8272.54670298 0 56.07931001 0 2582.56302700 0 -15.95779235 0 293.21464636 0 31257
0.17150000 0.17149500 8178.62644723 0 29.01812040 0 2644.68482111 0 72.44869667 0 382.76940700 0 32608
0.17250000 0.17250900 8139.36361003 0 7.99783994 0 2552.90516636 0 92.64166257 0 512.97007709 0 32361
0.17350000 0.17350400 8199.50007988 0 26.82062155 0 2310.81761057 0 77.42542766 0 378.97732676 0 32508
0.17450000 0.17449800 8180.76704824 0 111.69278975 0 2420.03262692 0 234.37917391 0 636.58479444 0 32791
0.17550000 0.17549800 8006.95690086 0 96.87117962 0 2488.80913920 0 -62.40273413 0 615.73001682 0 33633
0.17650000 0.17650100 7834.67733866 0 202.50196476 0 2582.23029109 0 60.34110244 0 871.46307221 0 33984
0.17750000 0.17750300 7756.78386250 0 119.63075940 0 2751.09376463 0 -100.65926702 0 984.03095740 0 34069
0.17850000 0.17849800 7500.59939539 0 12.66625783 0 2547.22647352 0 179.76501102 0 1108.25569058 0 34536
