### header ###
fiducial parameters:
Omega_m = 0.31
Omega_nu = 0
Omega_de = 0.69
Omega_k = 0
H_0 = 100
w_de = -1
zeff = 0
beta = 0
fgrowth = 0
b_1 = 2
gamma = 0.55
Lx = 3500 Ly = 3500 Lz = 3500
nx = 700 ny = 700 nz = 700
xoffset = 1379.75464 yoffset = 22.6059522 zoffset = 368.141391
bins = 400 dk = 0.001
kx_ny = 0.628318531 ky_ny = 0.628318531 kz_ny = 0.628318531
############################
A(data) = 3.30894328 (not used)
A(ran) = 3.31350835 (used)
Ngal = 186193
weighted Ngal = 0
Nran = 9399747
weighted Nran = 0
SN(data) = 6595.85501
SN(ran) = 131.796063
SN(data+ran) = 6727.65107
############################
13 columns: k_central k_mean P_0(k) sigma^{lin}_{P_0(k)} P^img_1(k) sigma^{lin}_{P_1(k)} P_2(k) sigma^{lin}_{P_2(k)} P^img_3(k) sigma^{lin}_{P_3(k)} P_4(k) sigma^{lin}_{P_4(k)} N_modes
### header ###
0.00050000 0 0 0 0 0 0 0 0 0 0 0 0
0.00150000 0.00179520 33442.06612631 0 -42083.10675670 0 -69974.02881043 0 81641.63526405 0 28405.88632803 0 3
0.00250000 0.00253879 55443.67351250 0 -41483.18391377 0 -17469.63340118 0 -67264.89304386 0 -48200.23460956 0 6
0.00350000 0.00331552 75264.52975473 0 -8178.95918313 0 -43573.87453851 0 -32630.41233364 0 16353.30442834 0 7
0.00450000 0.00420575 83969.78841545 0 12473.04917600 0 -16174.62524550 0 -63688.09294002 0 522.73698513 0 24
0.00550000 0.00557378 53250.50022796 0 6540.11283087 0 5129.42349102 0 -6991.02544280 0 20429.65204272 0 45
0.00650000 0.00659388 52917.87523148 0 -5653.48254683 0 -2884.25467519 0 47798.40054412 0 -26168.01551979 0 40
0.00750000 0.00754703 52867.85393325 0 -10224.84137220 0 -3959.43530735 0 -15482.64546790 0 -3849.97628467 0 57
0.00850000 0.00846663 58783.34382558 0 6630.91646028 0 -23148.99171048 0 3194.63073059 0 -7908.15651845 0 75
0.00950000 0.00948925 53192.38235595 0 6092.10611254 0 -165.72133744 0 -10652.73975047 0 10959.71080840 0 112
0.01050000 0.01054430 50984.34686750 0 -4224.04908414 0 -26142.06211893 0 6052.22216831 0 12013.98453431 0 105
0.01150000 0.01145670 55825.87615934 0 -6015.72103916 0 -10793.25412460 0 4896.75236144 0 -13827.17341141 0 144
0.01250000 0.01249090 60211.44634463 0 -1764.06596581 0 -25434.66557757 0 -14477.00664061 0 -13215.27207578 0 169
0.01350000 0.01339930 56653.72309955 0 -311.45301062 0 -20190.41492454 0 -10017.75763398 0 -8073.67045050 0 180
0.01450000 0.01448870 66213.89122104 0 -6265.82753034 0 -22663.41910809 0 2047.25749749 0 -9311.71421865 0 267
0.01550000 0.01550050 76919.89089925 0 -22082.24038800 0 -28230.86724019 0 10786.77686558 0 -41555.27669394 0 238
0.01650000 0.01653350 101617.10279174 0 -10689.55143314 0 -42847.29022643 0 -3752.25174836 0 -41889.45445799 0 315
0.01750000 0.01747870 108277.03382324 0 7065.62483347 0 -39030.47662064 0 -41807.71233648 0 -62642.30397977 0 297
0.01850000 0.01844180 90471.55897847 0 12939.43400767 0 -8678.51778488 0 -36917.49269004 0 -32952.72251696 0 388
0.01950000 0.01947590 83483.66125321 0 6518.61809118 0 10360.88599397 0 -16807.71076731 0 -42053.38234888 0 399
0.02050000 0.02045430 82826.50783403 0 -3080.14739569 0 7982.63390595 0 14041.67716039 0 -42461.64930854 0 462
0.02150000 0.02154770 83570.28350138 0 -698.18086581 0 19208.51125872 0 3458.70103873 0 -38895.49675378 0 571
0.02250000 0.02255340 80777.29828587 0 5135.52364934 0 1717.15020272 0 -7899.62738799 0 -33117.98135148 0 510
0.02350000 0.02348930 77336.80899254 0 3963.30613508 0 19027.50292452 0 -5723.10199007 0 -12966.60744020 0 555
0.02450000 0.02439640 70561.52951278 0 5818.39755425 0 14968.45757738 0 -7051.81629327 0 -31347.93723052 0 592
0.02550000 0.02547300 67577.11023795 0 2107.47160572 0 23362.71907568 0 5508.54278511 0 -14748.07549402 0 837
0.02650000 0.02652900 65068.28148826 0 1328.19301694 0 19379.09386778 0 7365.87462606 0 -10820.97102578 0 723
0.02750000 0.02749970 60291.41387463 0 -13.72469075 0 13752.64056792 0 5860.69937941 0 3180.24544815 0 826
0.02850000 0.02848090 60830.11331040 0 2822.17724587 0 17728.16920204 0 5434.34267752 0 3180.32308652 0 831
0.02950000 0.02946900 57369.43803862 0 2617.41156781 0 15594.22290920 0 242.82068391 0 8077.75201098 0 996
0.03050000 0.03053250 53664.75643398 0 3257.62872925 0 14594.90606417 0 4827.47674530 0 17191.02253384 0 1041
0.03150000 0.03150510 51695.29259188 0 -1863.33217850 0 17259.01157113 0 5064.49562409 0 17877.78944887 0 1036
0.03250000 0.03246190 54067.58870713 0 -2898.21849215 0 8268.60932807 0 12580.41196246 0 22263.13781023 0 1059
0.03350000 0.03345080 55566.67488666 0 -1413.36231831 0 2833.93391463 0 6411.00020719 0 13541.24235408 0 1302
0.03450000 0.03451200 57099.25648096 0 328.37706805 0 -33.57682417 0 -2754.50985329 0 20676.87482269 0 1339
0.03550000 0.03553350 53499.83033535 0 4663.10520653 0 2787.97199448 0 -6863.72068423 0 8960.57801447 0 1365
0.03650000 0.03647120 51050.11766540 0 3342.70930104 0 5064.71744803 0 -6346.67126489 0 14535.56816049 0 1308
0.03750000 0.03744890 43503.00179001 0 2376.36658454 0 10560.32789749 0 -132.10724685 0 5699.43337578 0 1579
0.03850000 0.03847530 43826.97565287 0 485.32859606 0 10991.13216936 0 2711.52037392 0 5391.24228618 0 1662
0.03950000 0.03950240 42252.35842213 0 684.95128609 0 9139.46793005 0 1915.78244887 0 3015.71863262 0 1683
0.04050000 0.04050350 40813.60835401 0 1034.82974854 0 7270.86743300 0 -958.09086598 0 1883.27415061 0 1822
0.04150000 0.04152450 39379.29476466 0 138.69209048 0 9020.99176425 0 1484.25724920 0 5447.03100683 0 1887
0.04250000 0.04250150 40697.15078605 0 -788.34675140 0 5194.28481078 0 -484.15847478 0 -1278.19390110 0 1920
0.04350000 0.04349210 40690.60697985 0 317.94579732 0 8230.89925844 0 981.86041016 0 1278.03862434 0 2005
0.04450000 0.04448520 39922.43067922 0 1078.91836553 0 6305.56728900 0 -2595.12935314 0 -2749.67409142 0 2151
0.04550000 0.04548030 38251.43094700 0 924.49673954 0 10131.23166996 0 -986.85810350 0 1189.57523748 0 2274
0.04650000 0.04648670 38665.24350514 0 36.75955405 0 9428.24942499 0 435.18529466 0 1974.56579269 0 2311
0.04750000 0.04749250 38507.74850847 0 -513.29283093 0 10569.53359096 0 2365.02029006 0 346.35035270 0 2568
0.04850000 0.04851840 40027.46431432 0 -637.44547132 0 8584.87480904 0 329.06361314 0 2744.53886723 0 2493
0.04950000 0.04949480 39491.31585384 0 443.31403290 0 10904.52101239 0 1.97520908 0 -2083.01551645 0 2644
0.05050000 0.05050630 39461.81326996 0 1305.74443432 0 8753.49427625 0 -3629.67183968 0 2129.74272919 0 2829
0.05150000 0.05149060 37297.03344960 0 860.87430649 0 11946.88279278 0 -1650.91357455 0 -1573.34174309 0 2784
0.05250000 0.05249300 38225.25572220 0 1007.27699708 0 15679.62512570 0 9.18458692 0 555.18095444 0 3055
0.05350000 0.05348950 37221.16966248 0 -103.20658223 0 11362.37671361 0 2561.95558307 0 -5385.53031975 0 3009
0.05450000 0.05448610 35538.30234953 0 1045.60817374 0 15840.44748145 0 -764.34207385 0 114.88594535 0 3336
0.05550000 0.05550870 34840.77697345 0 1076.91862272 0 12803.23410915 0 -913.45988946 0 -3149.71138295 0 3349
0.05650000 0.05647670 33776.79845021 0 498.56372138 0 14247.75159969 0 2244.27042888 0 430.35507839 0 3324
0.05750000 0.05747970 33412.45263046 0 -665.61045686 0 13358.34851641 0 2585.67965334 0 1145.44336483 0 3639
0.05850000 0.05849280 33654.68437181 0 444.58730231 0 10054.01475681 0 590.30788429 0 -565.54678711 0 3846
0.05950000 0.05951020 33458.37018583 0 1315.68214679 0 13388.29474817 0 -1057.84509133 0 384.50628844 0 3787
0.06050000 0.06049470 31196.54239217 0 1488.72700157 0 12775.50611678 0 -1733.32116787 0 -1367.66658688 0 3930
0.06150000 0.06148310 29834.54340693 0 967.38750726 0 15915.75670873 0 -966.33717091 0 1553.45522696 0 4083
0.06250000 0.06249100 29285.86189390 0 -565.60224309 0 13358.12669247 0 2569.49759699 0 -276.98378875 0 4303
0.06350000 0.06350600 30128.01647818 0 -990.50710730 0 13119.99869399 0 4095.14719321 0 2015.48121823 0 4470
0.06450000 0.06451750 31639.96844616 0 -260.25049991 0 10753.74728107 0 1913.45329751 0 1545.30319721 0 4479
0.06550000 0.06550280 30388.43778253 0 916.82384949 0 10624.03573276 0 -36.13212503 0 2731.66198757 0 4636
0.06650000 0.06648880 29875.35901170 0 966.59448668 0 10248.60980726 0 -814.17814910 0 3689.24265849 0 4653
0.06750000 0.06749660 28974.31017163 0 -90.44560558 0 11344.85262243 0 900.14158016 0 3343.51895842 0 5220
0.06850000 0.06852730 28785.53799957 0 259.10477927 0 9608.14863949 0 152.55054107 0 1850.11147174 0 5029
0.06950000 0.06949320 28460.01136914 0 259.74474133 0 10852.48111631 0 172.21301502 0 1928.54841655 0 5040
0.07050000 0.07048030 27960.02021071 0 701.97960077 0 10927.75706999 0 -444.95220269 0 1585.14277664 0 5475
0.07150000 0.07148790 27920.86828549 0 688.21431624 0 10862.62956151 0 -815.45585498 0 -1051.53863675 0 5509
0.07250000 0.07249820 26217.03861030 0 704.44184649 0 11343.96532667 0 -550.92969865 0 73.38623555 0 5916
0.07350000 0.07351270 26029.37555794 0 297.62339715 0 12941.31951116 0 593.81381165 0 1028.96694184 0 5721
0.07450000 0.07449140 25248.00073293 0 79.15565438 0 10973.79662853 0 1380.06654507 0 -509.88339698 0 6028
0.07550000 0.07549160 25534.15361420 0 277.72468070 0 11982.92918286 0 1325.46458249 0 1751.47745728 0 6183
0.07650000 0.07648840 24496.79396363 0 513.12313561 0 10302.86794273 0 414.52794034 0 864.02309730 0 6330
0.07750000 0.07749960 24766.53187341 0 572.41778362 0 11336.64513669 0 1056.10155517 0 3582.09060478 0 6583
0.07850000 0.07848650 23652.08840405 0 288.97891825 0 10141.54648312 0 378.62351758 0 4316.19474839 0 6549
0.07950000 0.07947320 23316.35787243 0 385.29930902 0 10374.42834544 0 1382.26260207 0 6504.77627739 0 6828
0.08050000 0.08048110 22302.95520727 0 488.67813754 0 10355.19620994 0 785.08926686 0 5177.31527945 0 7147
0.08150000 0.08149960 22728.08078630 0 81.39574343 0 10546.55263088 0 539.53238467 0 7857.60284276 0 7386
0.08250000 0.08250610 22238.40444103 0 -283.73278209 0 8382.00572566 0 2336.68228185 0 6868.40116934 0 7227
0.08350000 0.08350160 22708.67119164 0 -614.25710587 0 9294.66704894 0 1026.67439143 0 8061.43686027 0 7798
0.08450000 0.08449610 23328.22545317 0 -558.96305260 0 6598.47470921 0 1563.71458414 0 7114.91411271 0 7371
0.08550000 0.08548940 23660.18497783 0 338.56433244 0 5882.94832049 0 -7.09494996 0 5144.75152521 0 8256
0.08650000 0.08650700 22987.50388292 0 779.92964204 0 7058.45992024 0 -1854.92505121 0 4852.02156415 0 8037
0.08750000 0.08749060 22323.58483360 0 735.96302822 0 6696.74271417 0 -1132.44448200 0 3314.10510411 0 8155
0.08850000 0.08849210 21178.86239657 0 369.88365439 0 7818.70601506 0 -73.66883925 0 2961.08339645 0 8718
0.08950000 0.08949900 21085.03087039 0 -76.73666433 0 6156.24650449 0 1146.56357572 0 1042.14882941 0 8571
0.09050000 0.09049190 20786.45584854 0 -37.99356062 0 5618.32345250 0 1137.56861499 0 1255.90059524 0 8932
0.09150000 0.09150830 20494.53554486 0 472.92420139 0 4633.12570118 0 -125.15306636 0 363.31433843 0 9285
0.09250000 0.09250820 19563.98412091 0 752.06855531 0 5131.10935296 0 -282.92201559 0 -1176.62071945 0 9204
0.09350000 0.09350330 18866.01509696 0 633.59238951 0 5530.78063499 0 -1226.63092649 0 -467.77012217 0 9349
0.09450000 0.09448040 18151.74201349 0 208.17511200 0 5251.52647823 0 379.48863094 0 -553.99308725 0 9564
0.09550000 0.09549270 18293.37659852 0 28.31937499 0 4664.01468468 0 964.65463633 0 -432.38365831 0 10155
0.09650000 0.09649430 18028.51881540 0 -103.24562324 0 4074.51756688 0 568.94291161 0 -2140.05754236 0 9913
0.09750000 0.09749140 17787.28528177 0 344.62567158 0 4495.28430551 0 -71.61031310 0 -223.68282357 0 10476
0.09850000 0.09850240 17476.39903131 0 441.27990738 0 4348.90268819 0 -639.08142287 0 -915.79236818 0 10575
0.09950000 0.09950330 16788.19026068 0 362.02997783 0 5140.69214712 0 -453.34712966 0 -399.41951186 0 10882
0.10050000 0.10051200 16533.75820268 0 298.61716839 0 5413.20285614 0 -26.14594404 0 -949.41089525 0 10875
0.10150000 0.10150300 16227.30843101 0 222.96522313 0 5353.37693980 0 247.37472937 0 -1082.76590175 0 11118
0.10250000 0.10250800 16096.87595489 0 -78.64024646 0 5639.82928338 0 208.06420003 0 -638.90396372 0 11575
0.10350000 0.10349800 16397.33648022 0 25.64007455 0 5057.45271403 0 198.91396255 0 -1238.83124313 0 11364
0.10450000 0.10450100 16018.01754459 0 63.91368789 0 4944.62196747 0 -95.69196356 0 -1061.46193066 0 12093
0.10550000 0.10551000 16202.02050196 0 31.71461220 0 4859.43048371 0 -26.20395100 0 -1658.21158214 0 12067
0.10650000 0.10649700 16132.92234498 0 44.10946844 0 4765.09985367 0 247.34700138 0 -1426.01737403 0 12054
0.10750000 0.10749900 15819.37420725 0 273.24827361 0 5020.70757854 0 8.42366426 0 -1208.72973461 0 12807
0.10850000 0.10850100 15808.94848212 0 99.95819246 0 4376.94123407 0 394.78893713 0 -1267.53526083 0 12736
0.10950000 0.10950300 15568.60224425 0 64.71203224 0 4748.35214628 0 710.73499164 0 -659.46926110 0 12933
0.11050000 0.11050200 15428.63133876 0 -1.76183664 0 3931.36348787 0 345.69929944 0 -263.44032815 0 13428
0.11150000 0.11150900 15144.03122507 0 374.55748478 0 4345.98570339 0 516.46380413 0 500.83630763 0 13453
0.11250000 0.11250000 14951.93169393 0 269.10682067 0 3607.42289861 0 178.00594718 0 1096.22617837 0 13668
0.11350000 0.11349100 14579.60021238 0 42.26189685 0 3727.58492634 0 415.96203211 0 1325.37585292 0 13791
0.11450000 0.11448600 14229.67294866 0 291.11730102 0 3761.05815873 0 348.90465536 0 1275.39891947 0 14205
0.11550000 0.11549300 14001.63793941 0 211.83742523 0 3388.20539092 0 145.17822245 0 2166.63205024 0 14776
0.11650000 0.11649800 13707.83213225 0 130.38034749 0 3613.76706326 0 220.84569539 0 1605.12911354 0 14553
0.11750000 0.11747300 13672.22939004 0 62.52939559 0 3244.24165454 0 -33.52824473 0 1119.90033826 0 14568
0.11850000 0.11849100 13900.37531127 0 -205.05515830 0 3198.26864319 0 249.36559923 0 1964.89426895 0 16015
0.11950000 0.11950300 13676.66586882 0 70.99763538 0 2570.10761283 0 -214.07673790 0 296.18819626 0 15270
0.12050000 0.12050700 14114.87906025 0 106.08474783 0 3205.71083634 0 -289.14195884 0 897.34105293 0 15999
0.12150000 0.12150000 13704.17203725 0 42.41451172 0 3200.53124736 0 -263.92057698 0 -365.51039543 0 15670
0.12250000 0.12250700 14016.50014332 0 16.70323169 0 3421.03533389 0 -142.27121973 0 421.94684198 0 16887
0.12350000 0.12352200 13716.81600178 0 142.28785653 0 3454.51965748 0 329.90654411 0 -158.38007418 0 16407
0.12450000 0.12449800 13932.31795848 0 80.23316416 0 3359.32391407 0 -79.66584944 0 -273.74405012 0 16306
0.12550000 0.12549900 13449.85089123 0 179.80050285 0 3543.78161052 0 -33.26272147 0 318.76543677 0 17523
0.12650000 0.12650100 13242.44550830 0 189.63839454 0 3523.70654404 0 435.82636584 0 15.35287846 0 17154
0.12750000 0.12750600 13296.01598956 0 75.30900545 0 3290.72486095 0 225.84893434 0 320.56110156 0 18007
0.12850000 0.12850300 13025.27987205 0 29.58709880 0 3203.64787371 0 -112.56455783 0 -493.69468592 0 17496
0.12950000 0.12949900 13061.54808607 0 226.68742883 0 3477.75571508 0 -76.29357101 0 -6.23410671 0 18405
0.13050000 0.13049000 12659.93584458 0 207.99210725 0 2851.38036743 0 -424.71409562 0 -357.20530715 0 18100
0.13150000 0.13148800 12302.46656694 0 203.49351777 0 3367.23193750 0 111.11382927 0 87.42314350 0 19059
0.13250000 0.13249300 12141.75512316 0 89.38495441 0 3421.51225536 0 175.04681584 0 -877.16062009 0 18957
0.13350000 0.13349100 12093.17568053 0 170.19885365 0 3853.33691734 0 37.73679941 0 -757.70842895 0 19468
0.13450000 0.13450700 11832.31072830 0 338.74400983 0 3831.91981604 0 -411.66197505 0 -556.89121701 0 19953
0.13550000 0.13551000 11466.96670083 0 120.93397504 0 3831.67580970 0 -182.17290987 0 -253.16544330 0 19956
0.13650000 0.13649900 11449.33169768 0 23.88467080 0 4020.91381203 0 234.98364414 0 -294.83839759 0 19723
0.13750000 0.13749600 11440.45874012 0 -3.86064602 0 3744.17735698 0 343.85594251 0 -597.14782545 0 20946
0.13850000 0.13851100 11593.29543407 0 -22.83278169 0 3276.01793379 0 494.89253519 0 -523.71079222 0 20955
0.13950000 0.13949800 11439.57144437 0 -66.56692402 0 2616.33572171 0 559.62519706 0 -35.18138763 0 20506
0.14050000 0.14048300 11520.53718209 0 -102.72278422 0 2360.27325776 0 224.09430698 0 -89.43974493 0 21447
0.14150000 0.14148400 11518.09711876 0 118.49391172 0 1959.14902893 0 495.06333962 0 -426.20475249 0 21771
0.14250000 0.14249400 11281.85462376 0 208.56441301 0 1739.27714063 0 28.41908485 0 -18.92091652 0 22470
0.14350000 0.14350900 10956.48327009 0 175.80434459 0 1381.77458940 0 169.70418627 0 -106.62732919 0 22519
0.14450000 0.14449900 10796.02692384 0 195.55554811 0 1520.43673365 0 264.86554696 0 382.04626096 0 22218
0.14550000 0.14550500 10383.75604208 0 124.05392875 0 1164.98605385 0 120.76649797 0 249.04284540 0 23559
0.14650000 0.14650700 10205.98633739 0 245.66779416 0 1368.75352418 0 214.89194087 0 327.32894993 0 23044
0.14750000 0.14750500 9930.42554921 0 189.67610461 0 1566.95321365 0 -285.76801673 0 473.60741913 0 23649
0.14850000 0.14849900 9896.63067211 0 55.64531147 0 1310.95729689 0 0.52149588 0 460.66177405 0 23640
0.14950000 0.14949500 9876.20068733 0 -77.40867995 0 1357.77323920 0 298.74582628 0 286.33366777 0 24457
0.15050000 0.15050000 9857.10164619 0 -13.45639470 0 1367.53349252 0 -54.20256857 0 191.21112627 0 24591
0.15150000 0.15149900 9884.45253786 0 158.89359660 0 1343.93142541 0 -276.32940813 0 32.04579534 0 25020
0.15250000 0.15250500 9810.00842395 0 208.55221270 0 1629.01955177 0 -404.75437759 0 -63.50309177 0 25297
0.15350000 0.15350100 9379.71434714 0 189.20140138 0 1789.99718428 0 -279.99726696 0 -481.45665921 0 25452
0.15450000 0.15450400 9517.48919563 0 -6.63393327 0 2135.45469562 0 39.98664871 0 -1.25612242 0 26061
0.15550000 0.15549900 9393.13469545 0 -8.66885735 0 2080.98582741 0 106.88741776 0 -355.09354325 0 26128
0.15650000 0.15649500 9569.73982446 0 -5.50599181 0 1989.27271985 0 418.95554616 0 152.86885842 0 26331
0.15750000 0.15749700 9529.85588023 0 -158.93907051 0 1472.65585719 0 577.64950122 0 352.30965282 0 27345
0.15850000 0.15849900 9698.35334427 0 16.32136178 0 1374.97568567 0 332.81687418 0 739.60426818 0 26980
0.15950000 0.15949700 9740.64407823 0 88.84015482 0 1391.19101561 0 56.04359636 0 1019.61706281 0 27777
0.16050000 0.16050000 9407.38688353 0 203.66986780 0 1709.94092470 0 -78.06550063 0 911.56329478 0 28224
0.16150000 0.16150500 9245.39995210 0 210.94569300 0 1681.38109256 0 -213.17613270 0 1209.35084164 0 28075
0.16250000 0.16249700 9072.18872936 0 202.05498952 0 1827.00850849 0 -199.18458775 0 1070.83399208 0 28590
0.16350000 0.16349900 8772.13857832 0 230.10795397 0 2320.71095825 0 -244.20153793 0 1487.48478751 0 29163
0.16450000 0.16449100 8677.08702047 0 92.47507280 0 2220.11380193 0 66.41286729 0 1258.92849200 0 28996
0.16550000 0.16550500 8439.83522655 0 144.12234050 0 2561.37884083 0 -271.33947862 0 1042.68897070 0 30777
0.16650000 0.16650700 8398.43178835 0 175.25200298 0 2593.21057607 0 -234.36808271 0 883.38499981 0 29211
0.16750000 0.16749900 8352.59187136 0 38.63995558 0 2873.66258210 0 -36.35605630 0 859.92046355 0 30922
0.16850000 0.16850800 8351.20547174 0 -45.17743979 0 2686.90900789 0 -49.46562927 0 442.38680884 0 30867
0.16950000 0.16949900 8352.31459143 0 -33.41655637 0 2808.18015532 0 187.28484255 0 888.70544699 0 30852
0.17050000 0.17049200 8444.24952294 0 -22.86827352 0 2500.22198086 0 363.15462520 0 270.97790560 0 31257
0.17150000 0.17149500 8355.59758573 0 89.41035325 0 2431.78929569 0 23.09996862 0 605.64035496 0 32608
0.17250000 0.17250900 8304.50044139 0 159.39824606 0 2411.59222604 0 57.57850710 0 919.99149534 0 32361
0.17350000 0.17350400 8135.68133264 0 100.74600018 0 2347.51838127 0 139.53945793 0 733.39874348 0 32508
0.17450000 0.17449800 7947.15316692 0 43.47893389 0 2198.87415977 0 252.17721765 0 1034.08996571 0 32791
0.17550000 0.17549800 7929.65125813 0 24.37523445 0 1873.55826208 0 205.93912670 0 712.75802596 0 33633
0.17650000 0.17650100 7932.14677745 0 -39.29433620 0 1578.00004581 0 241.08712982 0 685.06108894 0 33984
0.17750000 0.17750300 7988.01313647 0 29.58964978 0 1463.15070141 0 84.30097156 0 435.04332734 0 34069
0.17850000 0.17849800 7754.35489037 0 138.76307414 0 1408.69292439 0 -382.26475754 0 134.70147782 0 34536
