### header ###
fiducial parameters:
Omega_m = 0.31
Omega_nu = 0
Omega_de = 0.69
Omega_k = 0
H_0 = 100
w_de = -1
zeff = 0
beta = 0
fgrowth = 0
b_1 = 2
gamma = 0.55
Lx = 3500 Ly = 3500 Lz = 3500
nx = 700 ny = 700 nz = 700
xoffset = 1379.75464 yoffset = 22.6059522 zoffset = 368.141391
bins = 400 dk = 0.001
kx_ny = 0.628318531 ky_ny = 0.628318531 kz_ny = 0.628318531
############################
A(data) = 3.36181635 (not used)
A(ran) = 3.36911062 (used)
Ngal = 189188
weighted Ngal = 0
Nran = 9399747
weighted Nran = 0
SN(data) = 6579.77012
SN(ran) = 134.007665
SN(data+ran) = 6713.77778
############################
13 columns: k_central k_mean P_0(k) sigma^{lin}_{P_0(k)} P^img_1(k) sigma^{lin}_{P_1(k)} P_2(k) sigma^{lin}_{P_2(k)} P^img_3(k) sigma^{lin}_{P_3(k)} P_4(k) sigma^{lin}_{P_4(k)} N_modes
### header ###
0.00050000 0 0 0 0 0 0 0 0 0 0 0 0
0.00150000 0.00179520 73149.66032064 0 -45582.60121781 0 -39077.50329570 0 82090.60691651 0 184544.20778209 0 3
0.00250000 0.00253879 86804.14379557 0 -28453.80029885 0 10195.50515627 0 -81954.73975390 0 -101998.19631888 0 6
0.00350000 0.00331552 112593.39493958 0 -7433.46438026 0 -29954.55015791 0 16132.81143301 0 105376.02034946 0 7
0.00450000 0.00420575 108157.69254407 0 11588.41530741 0 14850.00359398 0 -34712.56273673 0 -8882.42944077 0 24
0.00550000 0.00557378 88127.87815134 0 23662.51412919 0 45424.21892538 0 -9041.52156980 0 38749.64751391 0 45
0.00650000 0.00659388 73808.25559543 0 -961.58237478 0 19485.68027045 0 51936.74794944 0 -15737.52117377 0 40
0.00750000 0.00754703 67408.85678024 0 810.78313371 0 52884.49072867 0 18123.12672537 0 29866.59696611 0 57
0.00850000 0.00846663 80872.23893175 0 -14955.92452483 0 -13713.71046663 0 37850.04052944 0 3372.18970253 0 75
0.00950000 0.00948925 94322.08982298 0 -9096.07916759 0 -3293.09837709 0 13091.16158193 0 5018.63352471 0 112
0.01050000 0.01054430 88049.46338892 0 1039.47696006 0 -10851.66036773 0 -17180.04224886 0 -12690.88028406 0 105
0.01150000 0.01145670 92919.27523297 0 7388.68921818 0 -3537.07143636 0 -29678.15752996 0 -22680.61046336 0 144
0.01250000 0.01249090 80951.09734205 0 7967.38351015 0 4554.55566200 0 -21784.21992600 0 -30842.17864968 0 169
0.01350000 0.01339930 72141.58143002 0 8786.52386076 0 10064.49593792 0 -21076.15791283 0 -28549.18459260 0 180
0.01450000 0.01448870 66994.04601438 0 7557.07577025 0 34040.87984955 0 -8895.49487078 0 -41380.81216594 0 267
0.01550000 0.01550050 56615.34755811 0 -46.67386409 0 19195.53455829 0 -0.24934564 0 -48592.08659774 0 238
0.01650000 0.01653350 66283.10029000 0 -3638.34515570 0 30573.77168353 0 12335.96198172 0 -29633.12727035 0 315
0.01750000 0.01747870 59907.43663628 0 -2692.26605601 0 12340.50937247 0 4386.25783951 0 -36767.20697139 0 297
0.01850000 0.01844180 68530.84226353 0 -300.10227967 0 18817.65747826 0 5547.70580153 0 -21337.02286505 0 388
0.01950000 0.01947590 69001.99630989 0 1387.38673506 0 8441.36581173 0 -7933.69954502 0 -26597.57757759 0 399
0.02050000 0.02045430 65686.28298221 0 1066.94763667 0 9506.14290116 0 -1513.71546830 0 -19505.20077708 0 462
0.02150000 0.02154770 66071.81298813 0 1614.88936686 0 22027.67169902 0 -4907.48864009 0 -28063.05743036 0 571
0.02250000 0.02255340 62613.35595574 0 727.39840593 0 8587.95816180 0 -1399.52050452 0 -20263.83864834 0 510
0.02350000 0.02348930 62213.85104166 0 116.65942774 0 20099.79984548 0 -21.14414695 0 -16143.79171799 0 555
0.02450000 0.02439640 64650.03245134 0 -1945.83959260 0 -753.98400502 0 13121.32963763 0 -19941.97211290 0 592
0.02550000 0.02547300 66820.69060608 0 -3888.86202117 0 3972.30109581 0 8251.97253264 0 -15325.48320715 0 837
0.02650000 0.02652900 69927.66760718 0 1791.86050536 0 3123.80234688 0 -6740.84131324 0 -12613.02008149 0 723
0.02750000 0.02749970 64350.12648586 0 4738.63625775 0 9754.76317195 0 -12748.11086032 0 -13669.67841475 0 826
0.02850000 0.02848090 61630.12134628 0 5545.80920685 0 20676.76391072 0 -13844.03203077 0 -15102.66106046 0 831
0.02950000 0.02946900 56733.24698167 0 3435.62025788 0 25586.94771167 0 -2142.08723140 0 -16524.66342119 0 996
0.03050000 0.03053250 55738.25570345 0 2061.79805669 0 35940.35823890 0 -2346.07652567 0 -8903.24761744 0 1041
0.03150000 0.03150510 51845.91104644 0 711.00228949 0 34002.06066023 0 6591.55380231 0 -10787.07632790 0 1036
0.03250000 0.03246190 53696.14452134 0 1063.91973990 0 37647.95892105 0 4501.61737897 0 -2924.73754405 0 1059
0.03350000 0.03345080 51072.30005930 0 275.98669014 0 31304.12700257 0 5513.76673887 0 42.90662813 0 1302
0.03450000 0.03451200 49861.91773634 0 946.93644921 0 32376.86757140 0 5934.26728877 0 6487.75129008 0 1339
0.03550000 0.03553350 51902.91979875 0 -213.34804626 0 26774.59308089 0 2068.87424034 0 3640.01992644 0 1365
0.03650000 0.03647120 48257.24336187 0 335.16377146 0 26181.10313219 0 1954.29108467 0 381.34529731 0 1308
0.03750000 0.03744890 48392.88870055 0 1793.39109054 0 21170.21126295 0 1219.05563897 0 -3703.99395043 0 1579
0.03850000 0.03847530 46883.70953180 0 205.69179300 0 18559.67623725 0 15.01914435 0 -5487.59151407 0 1662
0.03950000 0.03950240 44200.08351821 0 607.63677041 0 18026.07875207 0 979.98488875 0 -11668.49374938 0 1683
0.04050000 0.04050350 43048.70636301 0 1876.57506765 0 16926.83022253 0 -3324.75265318 0 -15228.65705779 0 1822
0.04150000 0.04152450 42011.67944836 0 1366.66837916 0 15930.06435279 0 -442.66297964 0 -16175.62345323 0 1887
0.04250000 0.04250150 40441.83143230 0 309.42110334 0 15306.73908430 0 1699.96993865 0 -18457.74813729 0 1920
0.04350000 0.04349210 40369.51682820 0 -162.95852028 0 14288.01264461 0 80.67359559 0 -15911.32022995 0 2005
0.04450000 0.04448520 38433.88113680 0 1860.35973772 0 16132.70052104 0 -667.88858871 0 -16539.52562510 0 2151
0.04550000 0.04548030 38176.12171972 0 1143.41367579 0 15033.23016756 0 1199.18021404 0 -11930.68964523 0 2274
0.04650000 0.04648670 37435.11885161 0 -677.39596273 0 16027.00141412 0 2109.73420990 0 -8411.96304862 0 2311
0.04750000 0.04749250 37556.90019410 0 -447.51870566 0 15593.22470148 0 4940.90641649 0 -3462.07276260 0 2568
0.04850000 0.04851840 38646.05573442 0 121.07926972 0 12525.28871363 0 1917.96741467 0 -1439.64845508 0 2493
0.04950000 0.04949480 37716.16978228 0 934.06289691 0 15434.73149709 0 -546.52316610 0 493.60041074 0 2644
0.05050000 0.05050630 36479.27949861 0 1534.53364497 0 15176.63934410 0 392.98107203 0 4299.21412586 0 2829
0.05150000 0.05149060 36293.28012579 0 261.35961961 0 17086.54345858 0 700.62869298 0 6302.08465316 0 2784
0.05250000 0.05249300 35277.54830927 0 -378.22423449 0 15469.66876747 0 3499.16172519 0 5266.73250924 0 3055
0.05350000 0.05348950 35357.73766321 0 641.09225688 0 12104.48870141 0 1707.35667582 0 2909.22095952 0 3009
0.05450000 0.05448610 34406.22387702 0 343.86925194 0 11407.07423731 0 -1495.69227326 0 4765.05548888 0 3336
0.05550000 0.05550870 33880.39022971 0 284.48920172 0 12673.02345698 0 251.32097725 0 2877.76632497 0 3349
0.05650000 0.05647670 33716.01869093 0 1114.52110774 0 12231.03925859 0 1536.39696606 0 3507.10302221 0 3324
0.05750000 0.05747970 32319.63699515 0 -712.34654256 0 7896.03384018 0 1360.05802578 0 -2553.27117586 0 3639
0.05850000 0.05849280 32947.06600651 0 411.68637568 0 9607.74935640 0 1166.53882142 0 -965.65617142 0 3846
0.05950000 0.05951020 31514.85974459 0 924.37806373 0 7162.59516839 0 -504.37994506 0 -130.23394369 0 3787
0.06050000 0.06049470 31170.47807935 0 -138.77971093 0 8017.10534607 0 672.63229364 0 -849.61008687 0 3930
0.06150000 0.06148310 31002.22462164 0 -331.39498274 0 7002.89302353 0 1288.85254137 0 -2901.56803362 0 4083
0.06250000 0.06249100 31688.88062471 0 -77.71512972 0 4310.52714675 0 79.84574865 0 -4931.43453430 0 4303
0.06350000 0.06350600 31067.77359561 0 182.51008226 0 5537.98991300 0 -253.18097098 0 -2561.83357990 0 4470
0.06450000 0.06451750 31188.00217052 0 282.05912047 0 3954.79918702 0 -617.04986926 0 -3614.25507593 0 4479
0.06550000 0.06550280 30643.53531234 0 446.37520326 0 5878.31220016 0 -245.96947472 0 -3924.33166901 0 4636
0.06650000 0.06648880 30169.71937871 0 744.51988666 0 6192.40380654 0 -1074.97100854 0 -6307.60806924 0 4653
0.06750000 0.06749660 28682.38986795 0 1045.55826335 0 6721.87536646 0 -1705.84827303 0 -5088.79643660 0 5220
0.06850000 0.06852730 28692.59376914 0 -22.53831041 0 8505.82784839 0 835.26029626 0 -2831.09456822 0 5029
0.06950000 0.06949320 27977.76612583 0 -171.06951261 0 6366.11413314 0 584.56375340 0 -5744.84073609 0 5040
0.07050000 0.07048030 29293.95846768 0 -173.96320589 0 7037.38664604 0 1819.25576183 0 -1899.76676047 0 5475
0.07150000 0.07148790 28777.88507368 0 -438.00245868 0 4751.21367509 0 2157.62599832 0 -3002.39810508 0 5509
0.07250000 0.07249820 29072.13452871 0 206.91293379 0 3988.43878737 0 831.11218860 0 -1180.84646549 0 5916
0.07350000 0.07351270 28487.85027348 0 489.96804374 0 3763.66459002 0 435.86074855 0 -1174.43575365 0 5721
0.07450000 0.07449140 27485.53880527 0 808.22883105 0 3466.99725404 0 -1139.37648010 0 -2676.22818523 0 6028
0.07550000 0.07549160 26898.25992686 0 256.32865267 0 3435.55371070 0 -832.12925136 0 -1109.50788672 0 6183
0.07650000 0.07648840 26099.13918674 0 471.03980703 0 5073.39076404 0 -506.62147596 0 -3358.94681338 0 6330
0.07750000 0.07749960 25897.94487410 0 804.30032909 0 4866.59539694 0 -856.78609129 0 -2702.51432199 0 6583
0.07850000 0.07848650 25171.47147399 0 375.87068250 0 5307.10446613 0 -34.83689505 0 -4280.49218541 0 6549
0.07950000 0.07947320 24436.34694026 0 228.03390014 0 6662.98111066 0 -768.92717467 0 -2717.87562977 0 6828
0.08050000 0.08048110 23998.46648475 0 636.66354194 0 6578.63255787 0 324.60273372 0 -3153.82621701 0 7147
0.08150000 0.08149960 24366.02875161 0 -67.03341976 0 7160.05528429 0 -251.14351810 0 -2635.81186355 0 7386
0.08250000 0.08250610 23850.17718155 0 -117.82178518 0 6136.35998836 0 64.72633989 0 -4374.42353236 0 7227
0.08350000 0.08350160 24427.14124680 0 307.03095040 0 8194.15412295 0 -492.82957256 0 -3974.65242956 0 7798
0.08450000 0.08449610 23527.09061445 0 496.10147566 0 7273.18549316 0 -635.51893041 0 -2768.56239982 0 7371
0.08550000 0.08548940 23363.38454749 0 564.67169167 0 8203.39309001 0 257.77272651 0 -4481.59776847 0 8256
0.08650000 0.08650700 22434.27497914 0 278.87372871 0 7566.95802673 0 -57.99076689 0 -3895.19509462 0 8037
0.08750000 0.08749060 22208.90185715 0 388.46584575 0 7719.80581187 0 1258.73994165 0 -3707.76495740 0 8155
0.08850000 0.08849210 21500.83984398 0 283.99009786 0 7188.28238052 0 494.68069333 0 -1692.13955360 0 8718
0.08950000 0.08949900 21004.17604464 0 382.80600795 0 6660.62977691 0 1769.83338822 0 -2241.74163598 0 8571
0.09050000 0.09049190 20487.10444291 0 305.03120759 0 6055.10587952 0 292.79429000 0 -444.46862650 0 8932
0.09150000 0.09150830 19470.37441867 0 493.95421993 0 5278.05662133 0 407.13787581 0 -1309.02742862 0 9285
0.09250000 0.09250820 19317.42681275 0 298.43970924 0 6013.30315822 0 249.64066091 0 175.47604516 0 9204
0.09350000 0.09350330 18672.36279824 0 495.43045824 0 5243.23026291 0 -593.80715693 0 -901.78640467 0 9349
0.09450000 0.09448040 18125.89952460 0 717.02148207 0 6434.69100387 0 57.01230150 0 -591.67542888 0 9564
0.09550000 0.09549270 17355.39407261 0 242.53674927 0 6356.77534531 0 -675.87535963 0 -300.03129601 0 10155
0.09650000 0.09649430 17056.26449092 0 123.61028087 0 6744.74541456 0 492.14635482 0 -1197.77163203 0 9913
0.09750000 0.09749140 17272.54283141 0 -164.91722566 0 5912.53963395 0 947.33573230 0 -237.92724781 0 10476
0.09850000 0.09850240 17473.07167223 0 -525.82588348 0 4825.33614429 0 1787.64585052 0 360.50493825 0 10575
0.09950000 0.09950330 17621.91553528 0 -57.67810605 0 4265.92944382 0 1048.28669780 0 449.64266988 0 10882
0.10050000 0.10051200 17837.30658001 0 335.99450211 0 3614.45471747 0 -138.38819168 0 1200.06750980 0 10875
0.10150000 0.10150300 17008.90507995 0 411.88047163 0 3742.15875913 0 -317.06182892 0 613.80680327 0 11118
0.10250000 0.10250800 16688.36948814 0 424.45899809 0 4038.03862012 0 -742.62551022 0 773.46569246 0 11575
0.10350000 0.10349800 15856.52971703 0 680.75881365 0 4805.29435141 0 -1235.48170165 0 -1373.19000296 0 11364
0.10450000 0.10450100 15309.62279551 0 494.56645400 0 5435.28542926 0 -789.78971613 0 -258.41379770 0 12093
0.10550000 0.10551000 15013.70966093 0 195.24610372 0 5792.32215022 0 -448.27623442 0 -2240.48833072 0 12067
0.10650000 0.10649700 15207.02922374 0 -351.78393009 0 5944.79283467 0 660.57394432 0 -1403.01423156 0 12054
0.10750000 0.10749900 15599.10303586 0 -312.19168434 0 5715.85943846 0 603.95782038 0 -2427.50809366 0 12807
0.10850000 0.10850100 16077.02271236 0 -190.89724539 0 5142.46673863 0 157.46948691 0 -993.99085226 0 12736
0.10950000 0.10950300 15968.32898226 0 40.68084673 0 5945.63576564 0 -152.67032599 0 -1682.33493550 0 12933
0.11050000 0.11050200 16259.47290216 0 386.79883885 0 5644.42103892 0 -457.56622098 0 -1548.10927003 0 13428
0.11150000 0.11150900 15847.43493553 0 116.49084155 0 6443.96324452 0 -9.52897968 0 -852.50821663 0 13453
0.11250000 0.11250000 15617.07077491 0 290.25662413 0 6868.15716301 0 213.97580800 0 -830.28256707 0 13668
0.11350000 0.11349100 15363.08236480 0 194.75809105 0 6731.79089653 0 653.22491722 0 365.92631531 0 13791
0.11450000 0.11448600 14893.59199798 0 88.61877453 0 5682.68566839 0 910.72923677 0 170.66690216 0 14205
0.11550000 0.11549300 15063.06548735 0 -73.46575943 0 5424.28296189 0 1041.77616519 0 1902.71701886 0 14776
0.11650000 0.11649800 14813.62446799 0 -66.69913109 0 4875.72345203 0 560.73098939 0 1175.48941736 0 14553
0.11750000 0.11747300 14705.15256183 0 385.20725209 0 4164.57808610 0 -9.14351622 0 656.01546238 0 14568
0.11850000 0.11849100 14400.47738166 0 318.85527547 0 4147.80819632 0 -485.12340892 0 650.39222552 0 16015
0.11950000 0.11950300 13849.79945318 0 137.98114475 0 4078.79876891 0 -133.78645407 0 -549.78286889 0 15270
0.12050000 0.12050700 13739.99660340 0 198.83632417 0 4214.44410758 0 -102.16678251 0 -399.25758038 0 15999
0.12150000 0.12150000 13450.84909896 0 300.28195706 0 3902.59292299 0 -48.75523810 0 -2222.95314835 0 15670
0.12250000 0.12250700 13081.95588846 0 120.49587277 0 3874.14400282 0 165.95647082 0 -734.49233550 0 16887
0.12350000 0.12352200 12909.37686394 0 -103.16543389 0 3295.23897810 0 681.15920586 0 -1404.66681990 0 16407
0.12450000 0.12449800 13159.70517907 0 -77.03413023 0 3372.86626555 0 634.50741325 0 -230.53940153 0 16306
0.12550000 0.12549900 13382.08367788 0 -112.97936859 0 2554.30265718 0 383.32951245 0 -515.57096278 0 17523
0.12650000 0.12650100 13388.07292423 0 -56.05424390 0 2405.13714942 0 183.56485509 0 -552.59781467 0 17154
0.12750000 0.12750600 13423.78657840 0 -23.40131644 0 2375.44601519 0 3.14556328 0 -233.97767258 0 18007
0.12850000 0.12850300 13430.88494445 0 175.76552540 0 2550.28764388 0 -751.05371079 0 -1120.45489810 0 17496
0.12950000 0.12949900 13226.91783257 0 406.14521369 0 3596.93062629 0 -248.73783748 0 -479.95380202 0 18405
0.13050000 0.13049000 12703.85698449 0 131.42292000 0 2896.02243515 0 17.38079291 0 -975.88780060 0 18100
0.13150000 0.13148800 12825.52741502 0 61.54372092 0 3667.51500367 0 265.18053695 0 -551.75266546 0 19059
0.13250000 0.13249300 12645.18455264 0 171.19484314 0 3076.72021583 0 147.97542232 0 -827.12712153 0 18957
0.13350000 0.13349100 12181.90525611 0 296.12497644 0 3492.92847251 0 51.73522090 0 -415.65813331 0 19468
0.13450000 0.13450700 11845.84198858 0 462.39310989 0 3281.71880902 0 -313.14109080 0 -344.25744384 0 19953
0.13550000 0.13551000 11642.98399640 0 59.41642935 0 3451.18120720 0 120.71326023 0 -7.28008422 0 19956
0.13650000 0.13649900 11278.41635271 0 -66.24993761 0 3041.15074722 0 510.50894049 0 -175.65794079 0 19723
0.13750000 0.13749600 11622.46528204 0 8.83214195 0 3178.61504219 0 370.72103975 0 -69.95395374 0 20946
0.13850000 0.13851100 11360.71303406 0 43.84217059 0 2719.55040051 0 176.21028240 0 -125.72648125 0 20955
0.13950000 0.13949800 11356.49837922 0 141.07891606 0 2708.83630426 0 -178.28544534 0 -6.03830272 0 20506
0.14050000 0.14048300 11156.41318628 0 139.63484222 0 3000.00240654 0 -228.39658228 0 81.19188723 0 21447
0.14150000 0.14148400 11218.52388919 0 83.66455868 0 3045.90887071 0 66.66397199 0 220.39650192 0 21771
0.14250000 0.14249400 11161.18240097 0 -11.79715163 0 3214.30651397 0 179.50769525 0 -292.11107226 0 22470
0.14350000 0.14350900 11167.83711913 0 65.83856512 0 3082.43218226 0 -219.13321458 0 -556.55404462 0 22519
0.14450000 0.14449900 10986.35186347 0 122.67196561 0 3151.76325438 0 -16.17229609 0 23.17561058 0 22218
0.14550000 0.14550500 10872.05707892 0 137.71939251 0 3150.04411886 0 -93.69754452 0 -486.54530037 0 23559
0.14650000 0.14650700 10692.97861299 0 131.58485147 0 3315.45823014 0 127.08848023 0 -188.33961538 0 23044
0.14750000 0.14750500 10546.50826610 0 39.75129351 0 3173.54636519 0 246.19462602 0 -152.65812568 0 23649
0.14850000 0.14849900 10644.97591260 0 -49.38965457 0 2617.79975970 0 659.53359005 0 -140.50661030 0 23640
0.14950000 0.14949500 10694.53138057 0 -15.87205739 0 2646.04903833 0 384.41534063 0 362.97494781 0 24457
0.15050000 0.15050000 10507.92199191 0 276.70761794 0 2341.61786450 0 -278.37018837 0 124.67614489 0 24591
0.15150000 0.15149900 10169.08592514 0 246.00607567 0 2474.60131591 0 -404.98729273 0 158.34680059 0 25020
0.15250000 0.15250500 9845.56680136 0 199.56390669 0 3040.06380992 0 -357.77983116 0 -196.70459612 0 25297
0.15350000 0.15350100 9777.67758484 0 89.92154652 0 2980.55953829 0 192.76943944 0 -154.57801187 0 25452
0.15450000 0.15450400 9726.92426761 0 38.14473363 0 3044.34501194 0 189.74819739 0 -127.74951557 0 26061
0.15550000 0.15549900 9638.02832407 0 142.73926824 0 2925.65811340 0 -31.71549950 0 11.27664176 0 26128
0.15650000 0.15649500 9553.51340332 0 82.06110433 0 3235.70143289 0 206.19533334 0 424.37692323 0 26331
0.15750000 0.15749700 9385.57049913 0 108.39204954 0 2932.66774987 0 164.16191515 0 56.24279425 0 27345
0.15850000 0.15849900 9285.86063857 0 172.68993648 0 3315.95733400 0 -58.50839305 0 949.00163008 0 26980
0.15950000 0.15949700 9183.76617066 0 29.17971914 0 2901.44603046 0 440.90169756 0 768.86728220 0 27777
0.16050000 0.16050000 8979.23340774 0 9.88437490 0 2950.42475618 0 303.63704413 0 968.47666280 0 28224
0.16150000 0.16150500 9133.92233157 0 33.05221055 0 2309.48666694 0 151.92499756 0 1036.04090725 0 28075
0.16250000 0.16249700 8889.15070612 0 137.02508358 0 2539.41827087 0 -53.15811056 0 281.13078729 0 28590
0.16350000 0.16349900 8679.44944542 0 307.90050024 0 2462.12371934 0 -668.04053811 0 595.65605946 0 29163
0.16450000 0.16449100 8436.56332345 0 140.78499934 0 2845.53530664 0 -47.43183648 0 -91.33744872 0 28996
0.16550000 0.16550500 8232.67384995 0 103.52911423 0 2934.10960547 0 -169.89717309 0 -152.40413727 0 30777
0.16650000 0.16650700 8169.12129144 0 43.58552030 0 2693.91864436 0 21.84810522 0 -619.84817825 0 29211
0.16750000 0.16749900 8182.74128129 0 -95.15093497 0 2875.32626165 0 352.42832863 0 -75.98689941 0 30922
0.16850000 0.16850800 8382.26082319 0 -160.84453814 0 2199.60617877 0 587.05261799 0 -311.46299270 0 30867
0.16950000 0.16949900 8610.50656519 0 -162.89640958 0 1548.75255946 0 528.18498107 0 -116.32336447 0 30852
0.17050000 0.17049200 8711.05935672 0 -81.21473509 0 1630.83850807 0 342.12017018 0 -165.72799216 0 31257
0.17150000 0.17149500 8724.97880889 0 153.81271928 0 1042.17433916 0 -96.58580312 0 -231.09507049 0 32608
0.17250000 0.17250900 8408.15876807 0 241.54297802 0 1355.98755650 0 -307.34594039 0 50.26042444 0 32361
0.17350000 0.17350400 8099.73476333 0 339.07785486 0 1595.29122185 0 -585.02736543 0 -415.48843800 0 32508
0.17450000 0.17449800 7844.67050711 0 245.67888536 0 2224.81646943 0 -481.92914420 0 -688.35073796 0 32791
0.17550000 0.17549800 7500.18902110 0 149.41284145 0 2118.57389387 0 -87.36657839 0 -1280.02394860 0 33633
0.17650000 0.17650100 7384.18619222 0 1.74221631 0 2162.38412181 0 276.94829692 0 -746.40760838 0 33984
0.17750000 0.17750300 7516.18252710 0 -79.61139166 0 2122.87727828 0 312.13511924 0 -981.24484873 0 34069
