### header ###
fiducial parameters:
Omega_m = 0.31
Omega_nu = 0
Omega_de = 0.69
Omega_k = 0
H_0 = 100
w_de = -1
zeff = 0
beta = 0
fgrowth = 0
b_1 = 2
gamma = 0.55
Lx = 3500 Ly = 3500 Lz = 3500
nx = 700 ny = 700 nz = 700
xoffset = 1379.75464 yoffset = 22.6059522 zoffset = 368.141391
bins = 400 dk = 0.001
kx_ny = 0.628318531 ky_ny = 0.628318531 kz_ny = 0.628318531
############################
A(data) = 3.345137 (not used)
A(ran) = 3.34845779 (used)
Ngal = 188122
weighted Ngal = 0
Nran = 9399747
weighted Nran = 0
SN(data) = 6628.06433
SN(ran) = 133.186191
SN(data+ran) = 6761.25052
############################
13 columns: k_central k_mean P_0(k) sigma^{lin}_{P_0(k)} P^img_1(k) sigma^{lin}_{P_1(k)} P_2(k) sigma^{lin}_{P_2(k)} P^img_3(k) sigma^{lin}_{P_3(k)} P_4(k) sigma^{lin}_{P_4(k)} N_modes
### header ###
0.00050000 0 0 0 0 0 0 0 0 0 0 0 0
0.00150000 0.00179520 6401.61705458 0 -3507.72412924 0 6276.53053539 0 -1449.84126507 0 26744.53593716 0 3
0.00250000 0.00253879 26640.50050978 0 -21845.99789301 0 -23503.91001283 0 8358.53675292 0 29825.00497756 0 6
0.00350000 0.00331552 33688.29069856 0 -18677.13201293 0 -7058.49319383 0 -35867.37816298 0 -43083.31089749 0 7
0.00450000 0.00420575 61857.71270766 0 -18633.09996104 0 -33654.68437181 0 -8588.87873114 0 -5612.15674700 0 24
0.00550000 0.00557378 79571.79608957 0 -12327.19993613 0 -26409.91452523 0 -26118.32695746 0 -3289.58246766 0 45
0.00650000 0.00659388 102203.82711030 0 3865.51505159 0 9146.03391864 0 -56049.58560178 0 -43164.49845915 0 40
0.00750000 0.00754703 97209.01747664 0 4223.61652746 0 14734.87696965 0 -9223.66120608 0 447.39670250 0 57
0.00850000 0.00846663 86436.35970477 0 9472.08183533 0 37614.24168232 0 -25985.12168211 0 -28157.33260442 0 75
0.00950000 0.00948925 89359.22283653 0 5900.08421977 0 44796.45717812 0 -454.74462048 0 4618.61841557 0 112
0.01050000 0.01054430 81398.73805088 0 6318.63271901 0 59494.06772602 0 24082.98140549 0 -4165.79811777 0 105
0.01150000 0.01145670 79830.22097847 0 1207.68716210 0 47358.52367315 0 10146.70388970 0 8901.72812346 0 144
0.01250000 0.01249090 75813.76582761 0 4105.28454722 0 51044.57206693 0 21232.43287783 0 12124.34194395 0 169
0.01350000 0.01339930 66170.19190507 0 3572.77399934 0 53875.71099993 0 9300.32355939 0 21185.07346686 0 180
0.01450000 0.01448870 71619.96243754 0 2094.91637078 0 38098.81607699 0 10216.13478260 0 15468.78147172 0 267
0.01550000 0.01550050 68007.00503166 0 1499.88474570 0 36874.45884588 0 8289.12804242 0 8756.99909448 0 238
0.01650000 0.01653350 64811.96392679 0 3949.89687797 0 34759.14576391 0 -502.97136305 0 5259.20158651 0 315
0.01750000 0.01747870 61419.94316411 0 -1468.82939425 0 33784.67320004 0 7501.26486720 0 1674.82619517 0 297
0.01850000 0.01844180 61137.00672996 0 -209.62805880 0 24386.88020187 0 2127.64649297 0 -1025.17929808 0 388
0.01950000 0.01947590 62238.47349889 0 -1292.19099165 0 15071.38388506 0 10688.75286696 0 -5144.40769810 0 399
0.02050000 0.02045430 65840.56153176 0 -3506.55955356 0 17266.99723293 0 5369.21516904 0 506.53940110 0 462
0.02150000 0.02154770 66388.46666101 0 1152.60827806 0 2567.03535127 0 -2426.59861551 0 -5144.40769810 0 571
0.02250000 0.02255340 65031.68053833 0 686.29775740 0 10851.83782688 0 4624.27492602 0 -10477.34356193 0 510
0.02350000 0.02348930 64395.82221729 0 2771.41283744 0 8413.53799859 0 151.36711035 0 4745.60152943 0 555
0.02450000 0.02439640 60372.04687644 0 3119.25495613 0 4102.36756242 0 1909.59356097 0 -10066.18179986 0 592
0.02550000 0.02547300 54942.57323438 0 4940.42949503 0 16706.66996311 0 -6651.93427850 0 6967.00191021 0 837
0.02650000 0.02652900 50925.78534761 0 2106.01865892 0 15281.34024329 0 -399.79328520 0 3168.58860015 0 723
0.02750000 0.02749970 49331.86943418 0 -1732.51151049 0 16890.45109654 0 7748.06618170 0 10945.39207314 0 826
0.02850000 0.02848090 54119.05186097 0 -2216.63116609 0 16976.62969683 0 1285.55845587 0 4290.37444189 0 831
0.02950000 0.02946900 55081.10228426 0 1793.12490182 0 17746.69150094 0 -7283.46703273 0 -5192.99823193 0 996
0.03050000 0.03053250 52680.52361679 0 4372.17201938 0 29234.39874006 0 -11122.47412362 0 1552.23519530 0 1041
0.03150000 0.03150510 47200.25229270 0 2359.91833946 0 31531.82927592 0 -5873.89790378 0 -4913.91044312 0 1036
0.03250000 0.03246190 52133.94943118 0 -908.91138959 0 42785.29043549 0 7110.45545154 0 12196.32381214 0 1059
0.03350000 0.03345080 48908.18571076 0 -2373.62705889 0 32079.84531713 0 11612.92685267 0 -12498.33710504 0 1302
0.03450000 0.03451200 55433.80234722 0 -647.84901406 0 32913.79241567 0 5371.62195878 0 7918.41587562 0 1339
0.03550000 0.03553350 53111.74935414 0 2296.16613940 0 32281.03962977 0 -600.32988986 0 121.68595820 0 1365
0.03650000 0.03647120 50105.03677344 0 3655.35905182 0 33355.11114224 0 -3846.82638473 0 11484.37988004 0 1308
0.03750000 0.03744890 47104.31343910 0 1653.71964737 0 34562.27701808 0 -707.93557353 0 2317.67197029 0 1579
0.03850000 0.03847530 45298.88839987 0 786.41022842 0 31864.01062452 0 5150.18621171 0 4531.82979945 0 1662
0.03950000 0.03950240 45025.26857116 0 -29.14267454 0 31951.96381632 0 3831.76453928 0 312.11293684 0 1683
0.04050000 0.04050350 45370.87026806 0 -339.70450749 0 22896.55606794 0 3566.71820581 0 -122.99028296 0 1822
0.04150000 0.04152450 44594.15374578 0 -626.38089325 0 23687.69114626 0 4680.44074736 0 902.73692025 0 1887
0.04250000 0.04250150 43988.46348044 0 767.48975554 0 15058.62900857 0 79.47186441 0 -7328.18673883 0 1920
0.04350000 0.04349210 43333.30647671 0 1304.50222026 0 18662.04798508 0 -748.18774549 0 -3138.30963248 0 2005
0.04450000 0.04448520 40464.34656211 0 1771.46379418 0 16131.48048937 0 -1826.73122857 0 -7196.66732541 0 2151
0.04550000 0.04548030 39507.73082532 0 658.90693742 0 17114.71509883 0 733.02718839 0 -7990.74157092 0 2274
0.04650000 0.04648670 38529.04360661 0 -871.22904796 0 14305.53673579 0 5306.56099748 0 -7046.52579233 0 2311
0.04750000 0.04749250 39563.96319385 0 -613.63156236 0 11579.65326182 0 425.32632969 0 -8406.12907903 0 2568
0.04850000 0.04851840 40076.37649286 0 1105.09691769 0 11921.37303980 0 -500.96607464 0 -8873.34575047 0 2493
0.04950000 0.04949480 39408.57552461 0 1368.58715623 0 14887.60275163 0 -1940.27181173 0 -9297.59512494 0 2644
0.05050000 0.05050630 36199.11586370 0 940.71983332 0 12130.44210227 0 -1927.08437856 0 -7834.77715944 0 2829
0.05150000 0.05149060 37312.00656549 0 768.26613933 0 17639.10689054 0 -800.81436589 0 -10097.43679286 0 2784
0.05250000 0.05249300 34583.12846834 0 463.83163814 0 14790.44386636 0 1928.29331902 0 -6225.40011746 0 3055
0.05350000 0.05348950 34872.05414885 0 918.17697552 0 15737.29934983 0 1679.71741302 0 -6831.30111555 0 3009
0.05450000 0.05448610 34646.01555504 0 133.96945882 0 15207.91651949 0 2551.35239879 0 -2162.93868166 0 3336
0.05550000 0.05550870 32817.18809025 0 1245.58578207 0 16382.80701222 0 -921.82708844 0 -3834.74807126 0 3349
0.05650000 0.05647670 31733.91088432 0 1326.71788775 0 17116.37877838 0 -957.48085015 0 -174.15730184 0 3324
0.05750000 0.05747970 30793.04464720 0 659.55355420 0 19311.54847837 0 -220.23235220 0 1721.17630721 0 3639
0.05850000 0.05849280 30735.37042307 0 412.29639152 0 17609.38248272 0 2473.28146347 0 484.06641785 0 3846
0.05950000 0.05951020 29930.92590841 0 -312.17393842 0 18120.90848598 0 2997.18524252 0 4167.35088534 0 3787
0.06050000 0.06049470 31153.95219589 0 -448.36718223 0 16908.30792363 0 2209.39970568 0 4519.91785393 0 3930
0.06150000 0.06148310 30738.80869412 0 83.93218926 0 14695.94686836 0 1132.12283729 0 5357.39195310 0 4083
0.06250000 0.06249100 31003.99921315 0 745.15541225 0 17344.74652354 0 -373.32858016 0 6267.91267536 0 4303
0.06350000 0.06350600 29749.58483831 0 680.79541460 0 15277.34741239 0 22.39734129 0 4832.46778393 0 4470
0.06450000 0.06451750 29351.07813196 0 -114.90480038 0 15898.23261755 0 2305.42728885 0 5822.02437565 0 4479
0.06550000 0.06550280 29555.04524384 0 -315.12086945 0 14691.95403746 0 1644.91323700 0 4151.78993602 0 4636
0.06650000 0.06648880 29870.47888504 0 -116.62615415 0 12507.54279851 0 2215.61077597 0 3897.46879000 0 4653
0.06750000 0.06749660 29416.07254608 0 -229.84065612 0 11118.48129272 0 2389.12146103 0 6091.48500551 0 5220
0.06850000 0.06852730 30441.67552788 0 -440.06431219 0 8086.60278615 0 1679.98360175 0 5116.30260503 0 5029
0.06950000 0.06949320 30250.90694037 0 -226.84936030 0 7470.58661644 0 874.28134536 0 5228.88934525 0 5040
0.07050000 0.07048030 29939.79886597 0 537.19879683 0 6943.12256318 0 -179.39123768 0 4245.67691819 0 5475
0.07150000 0.07148790 29379.13886024 0 722.17999777 0 6178.17380086 0 -1496.66829859 0 3789.49598771 0 5509
0.07250000 0.07249820 28564.71226833 0 488.46740480 0 8550.20372738 0 -297.19638607 0 3554.56225395 0 5916
0.07350000 0.07351270 27873.61978649 0 698.27403187 0 9120.86799276 0 -936.43863130 0 -169.31044877 0 5721
0.07450000 0.07449140 27315.06710817 0 794.94490447 0 8847.30362004 0 -1248.76895560 0 -134.95768447 0 6028
0.07550000 0.07549160 25924.00918693 0 667.02125711 0 10573.42660109 0 320.54890124 0 503.52592289 0 6183
0.07650000 0.07648840 25902.82500076 0 510.94926101 0 10193.36455526 0 -642.75815466 0 542.96289188 0 6330
0.07750000 0.07749960 24998.67062554 0 129.36106649 0 10387.88196734 0 1766.88312984 0 261.87092379 0 6583
0.07850000 0.07848650 25065.77236707 0 110.97186195 0 9832.06881468 0 953.44032710 0 759.05379114 0 6549
0.07950000 0.07947320 24247.79659214 0 310.14314026 0 9150.67003896 0 148.21721042 0 1182.48796263 0 6828
0.08050000 0.08048110 24247.90750411 0 783.34794894 0 10477.77611861 0 -10.62664216 0 1432.87173374 0 7147
0.08150000 0.08149960 23552.48945546 0 373.67573462 0 9359.52836870 0 -283.62852484 0 1535.46530551 0 7386
0.08250000 0.08250610 22772.22375015 0 169.23391951 0 10769.40805116 0 -266.77766932 0 1350.74142034 0 7227
0.08350000 0.08350160 22960.44136236 0 381.78118135 0 10625.74377709 0 -195.99254127 0 600.20012285 0 7798
0.08450000 0.08449610 22393.12663846 0 21.38038945 0 10377.21223588 0 760.54777537 0 558.84437679 0 7371
0.08550000 0.08548940 22641.56945010 0 63.10447416 0 11268.87792333 0 514.33429432 0 1142.47092405 0 8256
0.08650000 0.08650700 22056.28698714 0 364.72402957 0 9810.92899329 0 462.20455954 0 989.54217316 0 8037
0.08750000 0.08749060 22560.27097647 0 68.66992587 0 10833.81463184 0 938.77665561 0 1294.59778139 0 8155
0.08850000 0.08849210 21736.52777913 0 -127.62640328 0 9525.00902716 0 892.10046238 0 2058.72579514 0 8718
0.08950000 0.08949900 21946.92778523 0 250.72537997 0 9273.18340045 0 471.92266631 0 1689.04510965 0 8571
0.09050000 0.09049190 21742.07337760 0 249.87690341 0 7844.35995360 0 -13.99553778 0 969.14657110 0 8932
0.09150000 0.09150830 20999.40682995 0 212.18568882 0 7580.99948206 0 827.37001875 0 425.16661645 0 9285
0.09250000 0.09250820 21095.34568355 0 214.67233517 0 7552.67256506 0 556.23129079 0 489.87044121 0 9204
0.09350000 0.09350330 20024.26879426 0 338.31367139 0 6540.45665797 0 146.93617717 0 463.43679152 0 9349
0.09450000 0.09448040 19818.74891481 0 511.14668432 0 5628.31662095 0 584.77781350 0 140.29698668 0 9564
0.09550000 0.09549270 18788.04398241 0 513.87955524 0 5998.95114937 0 -69.94618991 0 518.20068558 0 10155
0.09650000 0.09649430 18278.73621855 0 525.52198468 0 6172.53947281 0 121.87007207 0 -44.52705200 0 9913
0.09750000 0.09749140 18029.18428721 0 282.77006619 0 6744.23521950 0 163.52528045 0 608.93222221 0 10476
0.09850000 0.09850240 17204.66470608 0 104.27876824 0 6166.19530815 0 503.31629927 0 688.95077171 0 10575
0.09950000 0.09950330 17464.30962664 0 80.32865937 0 5902.83483662 0 111.04284561 0 1492.64219409 0 10882
0.10050000 0.10051200 17345.19017142 0 -19.24766318 0 5614.92954623 0 1042.53702130 0 744.66629046 0 10875
0.10150000 0.10150300 17264.00260976 0 124.02730987 0 5840.73522490 0 -266.49040731 0 455.43227469 0 11118
0.10250000 0.10250800 16962.10022883 0 662.03687320 0 6174.65789142 0 -1204.98091005 0 -86.93058344 0 11575
0.10350000 0.10349800 16144.90083768 0 591.33271089 0 5948.19783213 0 -931.51303073 0 -894.43626845 0 11364
0.10450000 0.10450100 15594.11199723 0 508.74765842 0 7496.86166202 0 -1063.99737828 0 -567.25594056 0 12093
0.10550000 0.10551000 15161.55531625 0 161.54772003 0 7164.56940145 0 178.45514066 0 -1888.62010754 0 12067
0.10650000 0.10649700 15055.19073752 0 104.53774768 0 8497.76454821 0 858.00168648 0 -2044.36269509 0 12054
0.10750000 0.10749900 14943.39147228 0 -35.44424900 0 6656.07129496 0 454.23331630 0 -1534.77765130 0 12807
0.10850000 0.10850100 14942.61508849 0 -88.15372064 0 7525.97605400 0 430.67117750 0 -791.68741992 0 12736
0.10950000 0.10950300 15259.71240924 0 -18.85448025 0 6382.92838772 0 737.06216584 0 -425.19989004 0 12933
0.11050000 0.11050200 15140.70386599 0 44.67545222 0 6370.42860876 0 759.81131990 0 -800.20878654 0 13428
0.11150000 0.11150900 15184.07044606 0 142.19358135 0 6483.70300319 0 -261.17106926 0 712.02378872 0 13453
0.11250000 0.11250000 14756.83753961 0 184.12606966 0 6039.62256858 0 147.50626469 0 -16.91862274 0 13668
0.11350000 0.11349100 14605.10996536 0 67.25613100 0 6163.01213463 0 467.28100039 0 297.30286156 0 13791
0.11450000 0.11448600 14550.98492425 0 86.85704881 0 5516.38426135 0 146.35610757 0 576.17548114 0 14205
0.11550000 0.11549300 14555.86505091 0 135.37138611 0 5512.23615369 0 907.86770796 0 405.11151413 0 14776
0.11650000 0.11649800 14188.52460798 0 145.41668319 0 4678.77706782 0 176.14151697 0 269.27873423 0 14553
0.11750000 0.11747300 13707.27757240 0 347.25206701 0 4827.01091503 0 -360.29753286 0 317.28476198 0 14568
0.11850000 0.11849100 13385.74377287 0 332.85347513 0 5247.41164416 0 -118.25545098 0 372.96367978 0 16015
0.11950000 0.11950300 13048.68229761 0 148.66751301 0 4624.86275945 0 37.71384063 0 -213.77949382 0 15270
0.12050000 0.12050700 13066.09547682 0 -229.32602458 0 4572.09084437 0 661.03644723 0 -306.20687447 0 15999
0.12150000 0.12150000 13333.06058737 0 -143.79071372 0 4250.75668639 0 398.60763624 0 -171.48210514 0 15670
0.12250000 0.12250700 13380.97455818 0 121.78356073 0 4302.75221768 0 48.61094163 0 74.15962471 0 16887
0.12350000 0.12352200 13213.60839623 0 163.62621034 0 4319.56647226 0 -7.91453396 0 -295.62032698 0 16407
0.12450000 0.12449800 13037.14745279 0 164.49354194 0 4500.17552336 0 -170.31198386 0 815.86290191 0 16306
0.12550000 0.12549900 12873.21956189 0 271.02892511 0 4839.11141090 0 389.65814942 0 892.80697162 0 17523
0.12650000 0.12650100 12944.53595827 0 -59.88802704 0 4573.23323766 0 455.81381186 0 1673.73925787 0 17154
0.12750000 0.12750600 12650.39741520 0 58.97943619 0 4779.19676499 0 352.59913306 0 1645.53434403 0 18007
0.12850000 0.12850300 12774.84064496 0 105.66416965 0 4211.34966363 0 89.10700902 0 1820.25396955 0 17496
0.12950000 0.12949900 12490.57326718 0 99.81522694 0 4470.36238597 0 239.74509499 0 2028.38028028 0 18405
0.13050000 0.13049000 12540.81638936 0 -10.16716715 0 4268.30295996 0 277.73688102 0 2206.79327439 0 18100
0.13150000 0.13148800 12450.31222226 0 112.24513136 0 4464.56168996 0 30.33098538 0 1870.09780864 0 19059
0.13250000 0.13249300 12188.67088625 0 266.74994132 0 3404.62036241 0 52.09535207 0 1638.45816037 0 18957
0.13350000 0.13349100 11983.26191877 0 278.30696854 0 4539.07235106 0 -381.33753347 0 1878.88203662 0 19468
0.13450000 0.13450700 11625.34899325 0 247.61873571 0 4389.77374894 0 -79.51966746 0 1471.22509279 0 19953
0.13550000 0.13551000 11312.90997522 0 154.86194651 0 4566.14596281 0 177.18076213 0 1387.96347730 0 19956
0.13650000 0.13649900 11196.89605514 0 -17.35073577 0 4124.69414188 0 383.55910022 0 1859.11752366 0 19723
0.13750000 0.13749600 11262.99958895 0 -136.09342303 0 3342.95330738 0 795.85105526 0 1284.21642104 0 20946
0.13850000 0.13851100 11404.30143807 0 51.15736954 0 3499.52773469 0 404.07448722 0 1495.22644298 0 20955
0.13950000 0.13949800 11125.46874679 0 182.15738220 0 3051.43228679 0 -194.85347535 0 1364.93815243 0 20506
0.14050000 0.14048300 10817.92094662 0 168.34440552 0 2998.69364530 0 -142.24792822 0 1042.41169078 0 21447
0.14150000 0.14148400 10823.92128416 0 146.03668110 0 3161.56787248 0 -325.28706058 0 553.14461068 0 21771
0.14250000 0.14249400 10716.17030581 0 23.95498899 0 2877.65541300 0 147.02047027 0 713.46564433 0 22470
0.14350000 0.14350900 10692.39077956 0 -24.47139512 0 3259.52532393 0 179.31470842 0 597.88649917 0 22519
0.14450000 0.14449900 10591.92671760 0 -18.27219241 0 2705.12075328 0 171.61741774 0 -93.34473355 0 22218
0.14550000 0.14550500 10850.79525437 0 109.84532907 0 2815.54471009 0 193.41494710 0 364.48113235 0 23559
0.14650000 0.14650700 10498.93812238 0 176.29790285 0 2893.08326796 0 -120.53136460 0 192.42006674 0 23044
0.14750000 0.14750500 10380.71705411 0 151.95494379 0 2825.13859545 0 5.58988562 0 868.87549597 0 23649
0.14850000 0.14849900 10186.55456034 0 141.33179535 0 3442.25279365 0 -169.90382781 0 612.65220967 0 23640
0.14950000 0.14949500 10034.62734454 0 202.46869117 0 3442.50789118 0 -174.06413579 0 688.63578172 0 24457
0.15050000 0.15050000 9920.76511667 0 110.83111466 0 3602.79786948 0 212.90218014 0 857.33954202 0 24591
0.15150000 0.15149900 9785.10868680 0 82.44108874 0 3453.67672651 0 186.25668859 0 1407.27325118 0 25020
0.15250000 0.15250500 9897.38487350 0 -92.13313119 0 3155.03515748 0 431.72816857 0 964.63134482 0 25297
0.15350000 0.15350100 9843.63693309 0 -47.85308015 0 3063.88770096 0 406.45465808 0 1015.40795357 0 25452
0.15450000 0.15450400 9868.91377094 0 168.52962851 0 2816.25454670 0 -428.83669352 0 1001.72363477 0 26061
0.15550000 0.15549900 9671.51264765 0 175.86756441 0 3031.81195939 0 -311.43526471 0 804.46115145 0 26128
0.15650000 0.15649500 9565.22570730 0 82.53503118 0 3184.44901179 0 147.00494259 0 587.61383256 0 26331
0.15750000 0.15749700 9241.66221873 0 117.85062229 0 2988.31228496 0 29.12481771 0 355.81225282 0 27345
0.15850000 0.15849900 9332.79858405 0 91.70412370 0 2939.07846170 0 400.71052718 0 834.39740113 0 26980
0.15950000 0.15949700 9198.92783689 0 78.39368915 0 2839.16895959 0 198.20190770 0 636.83656461 0 27777
0.16050000 0.16050000 8952.54798788 0 142.82356134 0 2513.02122213 0 118.44511045 0 1021.34728953 0 28224
0.16150000 0.16150500 8747.32757075 0 102.85266213 0 2431.57856294 0 281.82398710 0 915.29548255 0 28075
0.16250000 0.16249700 8684.91740552 0 84.76824368 0 2120.74776847 0 347.37739754 0 1231.01194928 0 28590
0.16350000 0.16349900 8537.49321568 0 36.93967508 0 1863.45418166 0 594.34618910 0 1708.12196840 0 29163
0.16450000 0.16449100 8319.46246607 0 158.88916012 0 1513.92620104 0 132.59525952 0 1028.82164716 0 28996
0.16550000 0.16550500 8067.63683936 0 304.82158397 0 1645.92253592 0 -228.32448950 0 1605.98313571 0 30777
0.16650000 0.16650700 7685.57837809 0 219.21196208 0 1802.99606710 0 -356.74502248 0 924.09856557 0 29211
0.16750000 0.16749900 7657.24036989 0 -95.49942038 0 1730.38200068 0 61.00058501 0 1648.93934149 0 30922
0.16850000 0.16850800 7952.63221821 0 -276.45362953 0 1340.08278007 0 329.45845975 0 266.73330453 0 30867
0.16950000 0.16949900 8261.49987082 0 -186.60051570 0 1376.39535888 0 -23.20134216 0 541.17720917 0 30852
0.17050000 0.17049200 8512.44929297 0 -6.27216060 0 1188.31084103 0 -292.38613395 0 -114.07296061 0 31257
0.17150000 0.17149500 8434.97728229 0 90.52512946 0 1489.49229416 0 -430.28187649 0 -160.14912009 0 32608
0.17250000 0.17250900 8442.57475220 0 170.48389741 0 1802.43041606 0 -160.47631040 0 -386.52377717 0 32361
0.17350000 0.17350400 8297.98990878 0 14.09347305 0 1957.94008847 0 43.48492314 0 -425.52264388 0 32508
0.17450000 0.17449800 8179.05900391 0 143.67092879 0 2101.47126817 0 33.59124273 0 -60.61538774 0 32791
0.17550000 0.17549800 8256.05409312 0 65.49495983 0 2080.20944362 0 169.92711932 0 -84.19593792 0 33633
0.17650000 0.17650100 7896.87677115 0 114.03857790 0 2169.13866075 0 102.23687888 0 355.14345364 0 33984
0.17750000 0.17750300 7944.32491169 0 72.00771068 0 1903.23830512 0 -74.48515135 0 369.83485312 0 34069
0.17850000 0.17849800 7848.82970597 0 88.94640849 0 2164.99055310 0 78.16243769 0 172.03444674 0 34536
