### header ###
fiducial parameters:
Omega_m = 0.31
Omega_nu = 0
Omega_de = 0.69
Omega_k = 0
H_0 = 100
w_de = -1
zeff = 0
beta = 0
fgrowth = 0
b_1 = 2
gamma = 0.55
Lx = 3500 Ly = 3500 Lz = 3500
nx = 700 ny = 700 nz = 700
xoffset = 1379.75464 yoffset = 22.6059522 zoffset = 368.141391
bins = 400 dk = 0.001
kx_ny = 0.628318531 ky_ny = 0.628318531 kz_ny = 0.628318531
############################
A(data) = 3.32998869 (not used)
A(ran) = 3.33574535 (used)
Ngal = 187418
weighted Ngal = 0
Nran = 9399747
weighted Nran = 0
SN(data) = 6669.93978
SN(ran) = 132.680548
SN(data+ran) = 6802.62033
############################
13 columns: k_central k_mean P_0(k) sigma^{lin}_{P_0(k)} P^img_1(k) sigma^{lin}_{P_1(k)} P_2(k) sigma^{lin}_{P_2(k)} P^img_3(k) sigma^{lin}_{P_3(k)} P_4(k) sigma^{lin}_{P_4(k)} N_modes
### header ###
0.00050000 0 0 0 0 0 0 0 0 0 0 0 0
0.00150000 0.00179520 22093.44249692 0 -24835.18638252 0 -24285.17392586 0 -753.60801344 0 -19600.14142296 0 3
0.00250000 0.00253879 41988.38793476 0 -23822.44918918 0 -22577.01868386 0 -21037.44963548 0 16675.06005181 0 6
0.00350000 0.00331552 56088.07205519 0 -15066.28193447 0 -13403.26786405 0 -52450.71401602 0 -3821.90446519 0 7
0.00450000 0.00420575 65438.06199451 0 -2667.97633470 0 -13900.48622324 0 -37671.25043464 0 -5989.04671050 0 24
0.00550000 0.00557378 68216.18500610 0 6514.23706839 0 26435.09154230 0 -27867.29780423 0 15834.68005904 0 45
0.00650000 0.00659388 54683.92652155 0 7445.83106486 0 11121.58682786 0 9823.72823457 0 -23915.83706748 0 40
0.00750000 0.00754703 67355.06447504 0 926.20922035 0 65642.14001836 0 5963.38168076 0 38425.78456303 0 57
0.00850000 0.00846663 61012.78532414 0 -1159.48482016 0 14518.37680522 0 30792.49008735 0 -6419.52933765 0 75
0.00950000 0.00948925 71969.44605338 0 2242.39601660 0 53256.60038628 0 20280.25361983 0 32077.62707774 0 112
0.01050000 0.01054430 62576.64409384 0 2922.76331099 0 35506.58152625 0 3605.70376308 0 24939.99819368 0 105
0.01150000 0.01145670 65835.68140511 0 983.99768381 0 43143.64700889 0 8877.53822292 0 14004.52165061 0 144
0.01250000 0.01249090 61902.63205530 0 3461.40729078 0 49039.17274672 0 -5994.31502905 0 19107.13771861 0 169
0.01350000 0.01339930 59667.75587023 0 6088.09109924 0 38067.42798963 0 2096.64659750 0 -10236.36512583 0 180
0.01450000 0.01448870 58521.48066563 0 2067.49893192 0 63808.76516282 0 8798.33598551 0 20200.72973771 0 267
0.01550000 0.01550050 54455.89151229 0 -407.33197176 0 19231.13730049 0 212.64597349 0 -40343.56342734 0 238
0.01650000 0.01653350 61509.89277136 0 -3184.92593326 0 46223.89422535 0 15565.71853304 0 15217.78768478 0 315
0.01750000 0.01747870 57957.04965294 0 -1241.57076878 0 23691.90580110 0 3762.13400484 0 -16038.42534698 0 297
0.01850000 0.01844180 66233.30081570 0 -4554.37820285 0 15320.71399246 0 18804.01530602 0 24184.79859348 0 388
0.01950000 0.01947590 68921.14148413 0 -872.84281711 0 15348.66380877 0 10518.92445929 0 9376.56444721 0 399
0.02050000 0.02045430 66193.26159472 0 710.72722780 0 4465.67080966 0 6279.61388814 0 17945.00210238 0 462
0.02150000 0.02154770 64864.97984820 0 2352.07686322 0 11487.15267927 0 2428.67266934 0 23477.51296409 0 571
0.02250000 0.02255340 58425.87454794 0 2278.74186900 0 13010.63949208 0 -4101.81300257 0 16347.09335805 0 510
0.02350000 0.02348930 61465.97163145 0 3941.48975069 0 18540.15573062 0 -9580.86429500 0 19057.11642038 0 555
0.02450000 0.02439640 53932.49792831 0 5322.35486194 0 26964.47437264 0 -11655.62796092 0 6381.41998493 0 592
0.02550000 0.02547300 52777.01703024 0 2531.27733231 0 32066.42496882 0 -2253.01029208 0 10645.74120519 0 837
0.02650000 0.02652900 52453.93046314 0 -4121.62188032 0 27021.81586086 0 13358.45942838 0 5485.53964264 0 723
0.02750000 0.02749970 59872.38845393 0 -6762.23623215 0 22023.56795615 0 14420.99609602 0 10751.62886246 0 826
0.02850000 0.02848090 64320.84572592 0 -4216.09669593 0 11190.90680879 0 14212.92524127 0 7136.55303796 0 831
0.02950000 0.02946900 67415.40058644 0 -839.17659790 0 -3948.63248152 0 1626.33548211 0 9846.60937387 0 996
0.03050000 0.03053250 69579.40402301 0 214.99176164 0 2202.41225160 0 -1545.38083558 0 15103.54835621 0 1041
0.03150000 0.03150510 65856.20011946 0 1763.60013554 0 -554.53433766 0 -2035.12372803 0 2832.69170058 0 1036
0.03250000 0.03246190 64496.97393346 0 4281.60130510 0 5743.73161639 0 -8782.29811472 0 2904.21882970 0 1059
0.03350000 0.03345080 59188.28342616 0 3619.04647301 0 9227.09947713 0 -8227.39444021 0 -8067.57029218 0 1302
0.03450000 0.03451200 55598.39570993 0 3060.43833871 0 17549.37910723 0 -1627.27823385 0 -1421.27034173 0 1339
0.03550000 0.03553350 54868.92768664 0 376.26774735 0 21332.80821021 0 -1425.55154376 0 -11500.90576349 0 1365
0.03650000 0.03647120 52706.03336977 0 1699.50410838 0 24555.13365958 0 -2697.01308831 0 -7849.45081300 0 1308
0.03750000 0.03744890 50807.66410011 0 806.93005189 0 20053.21681829 0 2771.66793497 0 -8350.17399042 0 1579
0.03850000 0.03847530 51546.78146474 0 50.86012546 0 20244.65087762 0 3475.02728064 0 -7656.28652695 0 1662
0.03950000 0.03950240 50284.71416400 0 1044.26724803 0 21283.78511970 0 3664.59801887 0 -1637.79268856 0 1683
0.04050000 0.04050350 48234.39549616 0 1618.63819143 0 18928.79127168 0 1553.69923329 0 315.62884627 0 1822
0.04150000 0.04152450 47613.17755509 0 277.28546930 0 17026.09643522 0 3936.02179059 0 1384.44756786 0 1887
0.04250000 0.04250150 45294.11918518 0 -356.76165928 0 18233.81687091 0 3259.50314154 0 2131.61714148 0 1920
0.04350000 0.04349210 45778.02810803 0 2443.19104615 0 12776.06067663 0 -1801.01074285 0 631.62702941 0 2005
0.04450000 0.04448520 44172.46643781 0 356.06956859 0 12082.63904342 0 479.63548467 0 1436.34327839 0 2151
0.04550000 0.04548030 42237.49621822 0 405.98882781 0 15655.44631636 0 1025.23586318 0 856.28144183 0 2274
0.04650000 0.04648670 43055.36108118 0 215.22800414 0 12594.16504668 0 1841.40488213 0 -2559.21605742 0 2311
0.04750000 0.04749250 42798.93260774 0 468.70178272 0 11687.90334404 0 1362.66445706 0 -2956.45836732 0 2568
0.04850000 0.04851840 41280.32592159 0 36.80414066 0 11603.94298314 0 -1767.29350412 0 -1403.87934492 0 2493
0.04950000 0.04949480 40467.78483316 0 1446.64700035 0 11077.47713760 0 849.85963880 0 -4674.38495383 0 2644
0.05050000 0.05050630 38261.85667213 0 1951.93975092 0 15378.38821659 0 -1038.46100642 0 -1203.73869599 0 2829
0.05150000 0.05149060 36619.02858016 0 1181.56739329 0 11920.59665601 0 -576.97737468 0 406.45243984 0 2784
0.05250000 0.05249300 35528.09844833 0 108.98221213 0 14412.23405043 0 4462.24362980 0 422.11986465 0 3055
0.05350000 0.05348950 36017.55296966 0 -1139.50957446 0 11306.80981690 0 2908.98804438 0 673.95103696 0 3009
0.05450000 0.05448610 36417.94517949 0 704.11465618 0 9300.17937383 0 -519.24658545 0 724.98717972 0 3336
0.05550000 0.05550870 35740.27304595 0 595.21906630 0 10167.97680545 0 -1270.61861359 0 -2044.32942150 0 3349
0.05650000 0.05647670 35197.02621943 0 315.86508877 0 9816.10858227 0 -1469.74996359 0 -638.66550299 0 3324
0.05750000 0.05747970 35088.22157737 0 -531.32046245 0 9747.67589710 0 2056.05281667 0 -3209.88112639 0 3639
0.05850000 0.05849280 35072.36116573 0 -47.74361003 0 9914.78696152 0 791.74176679 0 -3536.48360293 0 3846
0.05950000 0.05951020 35004.03939253 0 1094.75548565 0 6541.83196639 0 -746.07487248 0 -4055.60707609 0 3787
0.06050000 0.06049470 33699.93645536 0 482.02341937 0 10473.79437890 0 -198.44147756 0 -1756.33540154 0 3930
0.06150000 0.06148310 33768.59096447 0 -81.08330441 0 6290.11725165 0 1065.33054015 0 -4393.20092880 0 4083
0.06250000 0.06249100 33947.82470715 0 404.61351939 0 8859.49284548 0 59.75826004 0 -4083.02451494 0 4303
0.06350000 0.06350600 32605.01349263 0 823.09990792 0 9275.07999513 0 -1755.38155860 0 -3553.75259657 0 4470
0.06450000 0.06451750 31341.50433629 0 1416.56767423 0 9380.50182213 0 -517.11374827 0 -2920.52288921 0 4479
0.06550000 0.06550280 30755.00184167 0 616.19030149 0 10726.65148693 0 -953.17413837 0 -3802.65014729 0 4636
0.06650000 0.06648880 29120.04849953 0 543.71265680 0 11471.62500355 0 615.94962252 0 -2918.32683221 0 4653
0.06750000 0.06749660 29675.05199482 0 82.62631173 0 12231.48290647 0 693.23862845 0 -777.78238631 0 5220
0.06850000 0.06852730 29268.11597879 0 -47.28044165 0 11779.07298295 0 901.92282639 0 -1505.36379699 0 5029
0.06950000 0.06949320 29738.49364136 0 140.51215590 0 11836.63629511 0 -175.17214636 0 -3255.86522894 0 5040
0.07050000 0.07048030 29016.78945594 0 511.22432270 0 11272.20528242 0 -329.07026786 0 -2505.68994095 0 5475
0.07150000 0.07148790 28392.13324382 0 552.64328858 0 12999.21555923 0 -914.13312511 0 -2909.69788099 0 5509
0.07250000 0.07249820 28256.04425726 0 783.83263425 0 12630.21143676 0 461.86405980 0 -2374.93582013 0 5916
0.07350000 0.07351270 27595.78530293 0 -176.38663243 0 11146.65293296 0 1758.66455290 0 -2573.44606311 0 5721
0.07450000 0.07449140 27022.92498056 0 -105.23017111 0 9604.10035260 0 1711.92624896 0 -3398.94166957 0 6028
0.07550000 0.07549160 27392.04001499 0 517.69049052 0 10447.53042453 0 124.42881120 0 -2205.51778674 0 6183
0.07650000 0.07648840 26107.90123233 0 472.25429310 0 9228.88515984 0 215.79365518 0 -2542.05797574 0 6330
0.07750000 0.07749960 25619.77765464 0 118.07133711 0 8611.80423524 0 1221.56224948 0 -1290.72695365 0 6583
0.07850000 0.07848650 25897.94487410 0 -174.14953800 0 7688.55081887 0 1481.57317954 0 -1293.17810818 0 6549
0.07950000 0.07947320 25718.26748354 0 107.47214566 0 7385.43949747 0 491.52524780 0 -1769.23446359 0 6828
0.08050000 0.08048110 25898.94308183 0 187.85936655 0 6373.41214074 0 930.28967171 0 -1222.76009875 0 7147
0.08150000 0.08149960 24806.90383030 0 675.19103278 0 7317.92738165 0 -852.97515602 0 -873.16002535 0 7386
0.08250000 0.08250610 24256.33681379 0 694.46087836 0 7038.88395763 0 -193.41383798 0 -322.53533461 0 7227
0.08350000 0.08350160 23719.63379347 0 172.32836346 0 7760.57705185 0 195.65093241 0 575.99691287 0 7798
0.08450000 0.08449610 23285.30252098 0 279.46710774 0 7130.02032295 0 1375.67443108 0 761.48498152 0 7371
0.08550000 0.08548940 22720.42786040 0 274.66240123 0 6758.30994843 0 910.89338648 0 -252.67964887 0 8256
0.08650000 0.08650700 22580.45695492 0 511.23874125 0 6426.00659666 0 157.64916430 0 1726.73299688 0 8037
0.08750000 0.08749060 21653.78744989 0 371.59724431 0 6771.47519921 0 553.15126540 0 1850.79912595 0 8155
0.08850000 0.08849210 21256.05712733 0 179.87148651 0 6033.31167752 0 196.85765463 0 2303.08704630 0 8718
0.08950000 0.08949900 20820.83855908 0 156.41471408 0 5559.27391995 0 741.39438736 0 1272.63721143 0 8571
0.09050000 0.09049190 21080.37256767 0 534.19640981 0 5382.10313990 0 24.31157097 0 2896.77663654 0 8932
0.09150000 0.09150830 19854.12983307 0 211.27399243 0 6171.24180276 0 246.70371196 0 1923.87902264 0 9285
0.09250000 0.09250820 19731.35028286 0 327.22247444 0 5258.07028443 0 297.45148360 0 2795.40309644 0 9204
0.09350000 0.09350330 19510.41363965 0 108.23987831 0 6349.75461765 0 50.80821866 0 2153.23388433 0 9349
0.09450000 0.09448040 19057.00550841 0 486.40444216 0 4704.09827045 0 481.39898498 0 2071.53612761 0 9564
0.09550000 0.09549270 18602.04460959 0 132.37343558 0 5981.74870290 0 506.05582492 0 3281.85190339 0 10155
0.09650000 0.09649430 18343.06516085 0 291.43783661 0 5034.63812190 0 20.17100533 0 2486.16943432 0 9913
0.09750000 0.09749140 18021.86409723 0 345.61944282 0 5062.34393188 0 813.85095879 0 2844.33745737 0 10476
0.09850000 0.09850240 17013.34155873 0 359.75850069 0 5118.54302682 0 71.92009023 0 2836.76216986 0 10575
0.09950000 0.09950330 16793.40312324 0 232.51363458 0 3982.03916673 0 248.12671253 0 2827.24592287 0 10882
0.10050000 0.10051200 16836.65879134 0 -22.43638231 0 4624.29710841 0 309.54532475 0 2503.56043114 0 10875
0.10150000 0.10150300 16583.89041289 0 -162.70564099 0 2870.04685190 0 572.48100344 0 1408.06072617 0 11118
0.10250000 0.10250800 16836.43696740 0 -52.44350474 0 3180.48945448 0 204.70134912 0 1628.91973100 0 11575
0.10350000 0.10349800 16863.83222386 0 262.26577040 0 2503.44951917 0 -895.78828536 0 -717.60487903 0 11364
0.10450000 0.10450100 16280.32435242 0 586.75093743 0 3640.56339509 0 -859.85946197 0 -124.42659296 0 12093
0.10550000 0.10551000 15672.08311178 0 395.54202941 0 3132.03201501 0 -287.77552338 0 -1054.36911021 0 12067
0.10650000 0.10649700 15135.60191539 0 330.18715139 0 4077.74510520 0 -34.28000606 0 -29.83764894 0 12054
0.10750000 0.10749900 15003.50575974 0 117.49237663 0 3906.66339227 0 398.11629622 0 -853.22027147 0 12807
0.10850000 0.10850100 15017.81340380 0 39.47168444 0 4242.19428235 0 225.68034814 0 -429.71844368 0 12736
0.10950000 0.10950300 14567.51080770 0 268.32821865 0 4121.97679863 0 -242.91717732 0 -207.65826222 0 12933
0.11050000 0.11050200 14553.75772349 0 264.60490383 0 4445.15209530 0 -604.94382779 0 -696.81221211 0 13428
0.11150000 0.11150900 14229.89477260 0 25.07231617 0 5002.18527963 0 -245.76539670 0 305.67449701 0 13453
0.11250000 0.11250000 14788.44745091 0 -179.34132729 0 4793.31585870 0 427.38263760 0 -836.55242070 0 13668
0.11350000 0.11349100 14730.88413875 0 -155.84462656 0 4299.58013536 0 580.15389349 0 -267.56403518 0 13791
0.11450000 0.11448600 14934.62942669 0 -107.80887440 0 4338.96497572 0 412.90086175 0 284.03557177 0 14205
0.11550000 0.11549300 15254.94319455 0 -92.19102724 0 3970.54868669 0 652.84892565 0 906.96377541 0 14776
0.11650000 0.11649800 15259.37967333 0 -16.34709336 0 4015.29057518 0 172.92950634 0 309.73387510 0 14553
0.11750000 0.11747300 15200.70724148 0 145.73278230 0 3383.56927060 0 -59.27379655 0 398.01425721 0 14568
0.11850000 0.11849100 14917.32715945 0 210.58301086 0 3805.17894019 0 -185.24628055 0 813.18326873 0 16015
0.11950000 0.11950300 14622.85588048 0 579.58713332 0 4362.63359001 0 -341.28389393 0 -31.32619848 0 15270
0.12050000 0.12050700 13986.66482353 0 345.28781603 0 4014.24800267 0 -269.30868046 0 18.90217240 0 15999
0.12150000 0.12150000 13569.63581827 0 130.78406705 0 4564.95920474 0 208.17954848 0 345.39096416 0 15670
0.12250000 0.12250700 13338.16253796 0 166.60752408 0 4056.56091902 0 780.78255509 0 737.17196868 0 16887
0.12350000 0.12352200 13395.72585012 0 10.30707151 0 3807.65227711 0 602.37732481 0 106.33851442 0 16407
0.12450000 0.12449800 13076.85393786 0 58.33426126 0 3052.06448501 0 181.42979968 0 340.58293029 0 16306
0.12550000 0.12549900 12937.65941616 0 238.84670804 0 3087.68940961 0 27.80951267 0 312.98692316 0 17523
0.12650000 0.12650100 12597.15966985 0 96.57404645 0 2983.15487838 0 -403.03413294 0 33.48754003 0 17154
0.12750000 0.12750600 12708.62619918 0 112.06545396 0 3324.51973805 0 -12.23436662 0 -369.20487313 0 18007
0.12850000 0.12850300 12492.68059460 0 -88.75807996 0 2577.21707007 0 -168.01166961 0 -1340.20478324 0 17496
0.12950000 0.12949900 12577.52825125 0 112.25844079 0 3103.52763885 0 -59.97919668 0 -1322.25922658 0 18405
0.13050000 0.13049000 12518.30125955 0 103.43650274 0 2896.99846048 0 -30.48559667 0 -1790.57392652 0 18100
0.13150000 0.13148800 12265.20014519 0 109.96023387 0 2953.96284801 0 20.16623612 0 -941.61711115 0 19059
0.13250000 0.13249300 12310.11949283 0 151.09204867 0 2668.27579702 0 214.15326716 0 -1596.12306162 0 18957
0.13350000 0.13349100 11946.21732096 0 157.19220699 0 3060.09451161 0 -114.04745086 0 -846.18512525 0 19468
0.13450000 0.13450700 11800.36808109 0 130.30270911 0 2905.00630468 0 368.81889948 0 -805.26415411 0 19953
0.13550000 0.13551000 11776.96565553 0 79.88989162 0 3215.50436324 0 230.44845371 0 -349.70654890 0 19956
0.13650000 0.13649900 11620.80160250 0 84.91808575 0 2682.62780587 0 15.93527722 0 -229.67761552 0 19723
0.13750000 0.13749600 11535.73212191 0 242.27277878 0 2954.56177264 0 -57.79034896 0 -583.50121673 0 20946
0.13850000 0.13851100 11064.05678929 0 147.51513765 0 2930.98188793 0 -106.99500237 0 72.96221909 0 20955
0.13950000 0.13949800 11111.38292667 0 192.74725704 0 3471.95501908 0 35.12615347 0 382.99344918 0 20506
0.14050000 0.14048300 10924.95099717 0 93.85881053 0 3163.57537913 0 146.54022144 0 481.83486902 0 21447
0.14150000 0.14148400 10831.92912836 0 35.96187516 0 3520.83392403 0 141.43716172 0 567.80606393 0 21771
0.14250000 0.14249400 10970.83527894 0 35.01579606 0 3570.88849586 0 -67.92515200 0 567.90699382 0 22470
0.14350000 0.14350900 10797.28022909 0 -31.87432544 0 3613.45650975 0 146.08659148 0 670.64918763 0 22519
0.14450000 0.14449900 10923.08767608 0 91.70368005 0 3486.38466631 0 -164.83515081 0 245.48035294 0 22218
0.14550000 0.14550500 10876.62665206 0 212.63044581 0 3780.68957733 0 -365.60577972 0 585.69949196 0 23559
0.14650000 0.14650700 10473.13999828 0 302.46692286 0 3837.35450254 0 56.28804634 0 -51.89493414 0 23044
0.14750000 0.14750500 10189.90410182 0 143.62323664 0 4149.32769030 0 225.04038608 0 753.76329020 0 23649
0.14850000 0.14849900 10075.08803101 0 -31.99699408 0 3292.78782358 0 494.63300118 0 -2.51669241 0 23640
0.14950000 0.14949500 10073.96782012 0 -49.78450118 0 3334.51290650 0 662.05350999 0 659.18865382 0 24457
0.15050000 0.15050000 10075.96423557 0 23.29517369 0 2554.12519802 0 442.40233651 0 680.46711517 0 24591
0.15150000 0.15149900 9881.81283299 0 22.01913148 0 2259.05499441 0 403.44007075 0 1224.53469027 0 25020
0.15250000 0.15250500 9931.07992983 0 65.74107350 0 1764.42088411 0 133.49031911 0 845.84240726 0 25297
0.15350000 0.15350100 9703.03382938 0 81.19321817 0 1566.83121048 0 105.29660738 0 820.95154307 0 25452
0.15450000 0.15450400 9767.28513330 0 54.33865756 0 1524.00809906 0 -18.14076173 0 692.24818457 0 26061
0.15550000 0.15549900 9444.12092782 0 124.78705686 0 1866.34898407 0 -71.65611974 0 465.32673148 0 26128
0.15650000 0.15649500 9345.60891653 0 179.01857346 0 1365.00469961 0 -100.78637214 0 475.18680557 0 26331
0.15750000 0.15749700 9182.72359814 0 112.39597163 0 1879.63623801 0 -160.63602364 0 48.38745401 0 27345
0.15850000 0.15849900 9173.24062475 0 220.15915030 0 2026.29513526 0 -377.00863930 0 146.50362049 0 26980
0.15950000 0.15949700 8878.90244014 0 162.49158089 0 2233.75597418 0 -89.21725552 0 41.61206362 0 27777
0.16050000 0.16050000 8724.63498179 0 169.93044668 0 2572.64749693 0 -166.36351774 0 1.45899150 0 28224
0.16150000 0.16150500 8524.33905610 0 127.99574014 0 2364.25499747 0 123.06015750 0 346.46348291 0 28075
0.16250000 0.16249700 8517.67324674 0 -3.75819663 0 2438.87657054 0 437.19280131 0 50.84459779 0 28590
0.16350000 0.16349900 8668.38043087 0 -95.07817672 0 2228.72057076 0 351.43677562 0 940.77972578 0 29163
0.16450000 0.16449100 8533.48929358 0 -50.87465493 0 1851.28713861 0 485.76669834 0 648.37251856 0 28996
0.16550000 0.16550500 8597.67405032 0 79.40465175 0 1748.42737811 0 -61.71552356 0 924.56328672 0 30777
0.16650000 0.16650700 8566.62979007 0 14.88804640 0 1511.08685462 0 -96.92430645 0 329.26103644 0 29211
0.16750000 0.16749900 8452.10209038 0 89.76105690 0 1942.00203845 0 -18.45142616 0 508.09549604 0 30922
0.16850000 0.16850800 8403.41173578 0 152.31984417 0 1657.81229905 0 -333.07086259 0 273.19947235 0 30867
0.16950000 0.16949900 8035.32818265 0 100.07220997 0 1745.15547502 0 -28.28166492 0 -401.86179343 0 30852
0.17050000 0.17049200 8107.44314521 0 124.25246117 0 1852.04134001 0 -90.82470269 0 -359.37585440 0 31257
0.17150000 0.17149500 7962.17064758 0 121.07372413 0 1619.69185514 0 -167.77653624 0 -737.34942784 0 32608
0.17250000 0.17250900 7927.55502191 0 -24.03839479 0 1924.91050395 0 96.73775252 0 -490.98843386 0 32361
0.17350000 0.17350400 7926.94500608 0 -59.98873511 0 1324.65492512 0 311.97651512 0 -905.56850283 0 32508
0.17450000 0.17449800 7957.70089521 0 5.80588668 0 1343.79833105 0 186.32989049 0 -694.34442079 0 32791
0.17550000 0.17549800 8020.08887805 0 120.50474572 0 1313.94082887 0 -138.03438250 0 -933.63255847 0 33633
0.17650000 0.17650100 7751.29372001 0 149.85648933 0 1393.60889654 0 -113.83339076 0 -778.71848333 0 33984
0.17750000 0.17750300 7788.38268260 0 7.79844240 0 1407.75017265 0 51.43132210 0 -351.05523845 0 34069
0.17850000 0.17849800 7767.06540207 0 -151.44918521 0 1303.70365408 0 533.81043616 0 -519.58708519 0 34536
