### header ###
fiducial parameters:
Omega_m = 0.31
Omega_nu = 0
Omega_de = 0.69
Omega_k = 0
H_0 = 100
w_de = -1
zeff = 0
beta = 0
fgrowth = 0
b_1 = 2
gamma = 0.55
Lx = 3500 Ly = 3500 Lz = 3500
nx = 700 ny = 700 nz = 700
xoffset = 1379.75464 yoffset = 22.6059522 zoffset = 368.141391
bins = 400 dk = 0.001
kx_ny = 0.628318531 ky_ny = 0.628318531 kz_ny = 0.628318531
############################
A(data) = 3.31292691 (not used)
A(ran) = 3.31331277 (used)
Ngal = 186717
weighted Ngal = 0
Nran = 9399747
weighted Nran = 0
SN(data) = 6681.58054
SN(ran) = 131.788284
SN(data+ran) = 6813.36882
############################
13 columns: k_central k_mean P_0(k) sigma^{lin}_{P_0(k)} P^img_1(k) sigma^{lin}_{P_1(k)} P_2(k) sigma^{lin}_{P_2(k)} P^img_3(k) sigma^{lin}_{P_3(k)} P_4(k) sigma^{lin}_{P_4(k)} N_modes
### header ###
0.00050000 0 0 0 0 0 0 0 0 0 0 0 0
0.00150000 0.00179520 56148.07543068 0 -38247.65994004 0 -69586.61330103 0 36843.95805427 0 -65830.02489466 0 3
0.00250000 0.00253879 102603.66476028 0 -38258.52931305 0 -22878.81015282 0 -81383.98675894 0 68470.72797607 0 6
0.00350000 0.00331552 117257.24325630 0 -21159.78553782 0 -71091.02325508 0 -8449.83948620 0 -19031.71757936 0 7
0.00450000 0.00420575 127647.47655740 0 261.39178408 0 -4240.54169400 0 -72221.77078395 0 -5858.78060234 0 24
0.00550000 0.00557378 114224.91001066 0 22548.18157180 0 36872.68425437 0 -53086.35051313 0 -13928.43603955 0 45
0.00650000 0.00659388 93145.97929859 0 24898.73894103 0 108076.94863029 0 1569.90347204 0 19067.20940960 0 40
0.00750000 0.00754703 64429.42854404 0 19242.33940941 0 84977.53457017 0 25480.69404491 0 9920.49892794 0 57
0.00850000 0.00846663 62577.19865369 0 336.70877519 0 90337.13367146 0 56067.88607675 0 34244.07057764 0 75
0.00950000 0.00948925 62602.81931864 0 -8985.56648119 0 45411.57496086 0 56666.92162392 0 33734.31916590 0 112
0.01050000 0.01054430 72198.70109430 0 629.92453067 0 46584.91268602 0 17693.45375559 0 10571.03090255 0 105
0.01150000 0.01145670 68505.77615842 0 5968.36162819 0 19768.83852854 0 -1313.56372817 0 30707.86425464 0 144
0.01250000 0.01249090 58745.19010808 0 6099.41521133 0 41422.18233056 0 -6171.21962037 0 5287.69487147 0 169
0.01350000 0.01339930 55717.84790106 0 68.63565407 0 31794.80155556 0 -4150.22607725 0 17238.16012087 0 180
0.01450000 0.01448870 55238.04272108 0 -598.58968106 0 24795.03624957 0 6584.52198345 0 -11057.33552394 0 267
0.01550000 0.01550050 59235.42101319 0 -1036.28047710 0 30561.23863098 0 761.19328304 0 -29591.53528180 0 238
0.01650000 0.01653350 60475.97139185 0 -3094.22212462 0 16170.96515051 0 6517.55333627 0 -6582.21501448 0 315
0.01750000 0.01747870 61286.40515285 0 1966.09211822 0 26215.70766667 0 -5998.00839763 0 -21360.20346667 0 297
0.01850000 0.01844180 67878.67988297 0 1305.82207270 0 27000.40985075 0 -3032.82125831 0 -7510.10455117 0 388
0.01950000 0.01947590 60951.34009305 0 1124.07062831 0 29790.28953111 0 1569.99220161 0 -21530.78607574 0 399
0.02050000 0.02045430 61034.96771804 0 3005.00453636 0 34407.99846853 0 -2038.28471916 0 4892.32697386 0 462
0.02150000 0.02154770 60171.18529971 0 778.82939530 0 30754.11454591 0 12726.37211430 0 7823.57505052 0 571
0.02250000 0.02255340 61578.32545653 0 -1848.80271050 0 36750.90291187 0 16002.37895690 0 16000.60436538 0 510
0.02350000 0.02348930 62035.50459474 0 303.10133932 0 23512.56114645 0 5616.69304655 0 16285.53721498 0 555
0.02450000 0.02439640 60113.06742770 0 476.70297219 0 19208.73308266 0 10359.95433343 0 21795.75477083 0 592
0.02550000 0.02547300 58874.51346449 0 1575.88162719 0 23875.57602256 0 2.80081560 0 22729.07899402 0 837
0.02650000 0.02652900 55076.66580548 0 2047.78987494 0 13153.71593271 0 1880.94499925 0 14611.32103565 0 723
0.02750000 0.02749970 56452.86152282 0 -597.06020500 0 24521.97098070 0 4594.55051820 0 23231.06656790 0 826
0.02850000 0.02848090 54979.61783219 0 -1038.17596266 0 5602.75141199 0 3283.72631567 0 2777.15807746 0 831
0.02950000 0.02946900 55406.18526682 0 2262.48217427 0 19394.28880760 0 -3321.17019657 0 5198.10018253 0 996
0.03050000 0.03053250 54736.49879508 0 2741.52206166 0 19400.83261380 0 -8515.01135947 0 2797.17768795 0 1041
0.03150000 0.03150510 51771.37820294 0 114.09514301 0 20383.17992750 0 1274.07906703 0 -1768.64663015 0 1036
0.03250000 0.03246190 51418.67813999 0 -322.88470732 0 20791.22506323 0 352.15659430 0 614.03306369 0 1059
0.03350000 0.03345080 50919.01971747 0 478.30786839 0 16259.91655003 0 3471.42264163 0 -12576.19730762 0 1302
0.03450000 0.03451200 54057.49571791 0 -1038.22920041 0 23125.03472507 0 6514.42561874 0 5667.14690147 0 1339
0.03550000 0.03553350 50033.05490525 0 1243.76682577 0 16421.18255366 0 1996.75927779 0 -3609.97387390 0 1365
0.03650000 0.03647120 53383.59459134 0 287.03352230 0 15378.72095250 0 -416.22711171 0 6958.66133010 0 1308
0.03750000 0.03744890 50242.56761560 0 966.97935121 0 19525.83040341 0 1855.04705438 0 1889.89559519 0 1579
0.03850000 0.03847530 49434.35209398 0 1118.61375941 0 16322.35998885 0 -2330.71521790 0 5001.71944936 0 1662
0.03950000 0.03950240 48648.31896626 0 1219.69892840 0 16124.16029939 0 4183.61058007 0 2503.50497515 0 1683
0.04050000 0.04050350 48586.31917532 0 732.02898066 0 20412.01703957 0 -1101.71077526 0 5482.63374904 0 1822
0.04150000 0.04152450 44641.51315675 0 1729.09542183 0 17995.13431258 0 1303.93656922 0 6896.65044797 0 1887
0.04250000 0.04250150 45246.64886224 0 916.62088059 0 19364.23166387 0 3182.89624422 0 7317.22863624 0 1920
0.04350000 0.04349210 41443.25560476 0 754.56851110 0 14355.11438615 0 1488.33880968 0 4928.36227275 0 2005
0.04450000 0.04448520 43812.33527290 0 635.43907380 0 17722.06904372 0 1397.76809540 0 6477.85794240 0 2151
0.04550000 0.04548030 39708.14875418 0 1068.91965148 0 17401.53345191 0 -1013.32724502 0 2035.91120301 0 2274
0.04650000 0.04648670 39675.76245909 0 1656.60335858 0 15498.94952742 0 -247.09412209 0 606.79494856 0 2311
0.04750000 0.04749250 37405.94900364 0 1274.21216140 0 17106.72943703 0 -536.91597131 0 910.76251036 0 2568
0.04850000 0.04851840 35003.15209677 0 543.40986712 0 11861.70240022 0 3240.12682047 0 258.10989890 0 2493
0.04950000 0.04949480 34551.96220492 0 -363.18013495 0 13919.34125805 0 2285.41876956 0 -3012.49109430 0 2644
0.05050000 0.05050630 35342.76454733 0 1068.17099569 0 11709.53117809 0 517.60841566 0 57.89804449 0 2829
0.05150000 0.05149060 32383.07864169 0 1045.79006937 0 10865.25817519 0 1994.87377430 0 -927.02553245 0 2784
0.05250000 0.05249300 32149.38712200 0 280.49082522 0 11128.13063406 0 -698.23299444 0 4222.87341726 0 3055
0.05350000 0.05348950 31608.46944683 0 -445.19620902 0 6702.55450137 0 4375.55483445 0 955.01971354 0 3009
0.05450000 0.05448610 34147.46625222 0 -966.45584672 0 8937.55268960 0 2999.01529001 0 5332.66967510 0 3336
0.05550000 0.05550870 32960.70817876 0 -72.53498619 0 5997.69784411 0 -1595.23576587 0 2034.48043861 0 3349
0.05650000 0.05647670 33987.42028026 0 591.46691438 0 8036.93640621 0 -1063.66020589 0 2445.34273836 0 3324
0.05750000 0.05747970 33108.55383408 0 877.09961850 0 10163.66232984 0 -2380.78088092 0 2555.67796560 0 3639
0.05850000 0.05849280 32340.04479754 0 219.15761522 0 8216.54724959 0 312.08077237 0 -714.56589106 0 3846
0.05950000 0.05951020 32863.66020546 0 -210.80372568 0 11235.27159658 0 1413.78378379 0 2417.84766112 0 3787
0.06050000 0.06049470 31477.26058693 0 849.99495140 0 8131.88814329 0 -199.55947021 0 -785.89892424 0 3930
0.06150000 0.06148310 32101.36223921 0 332.86678457 0 9509.53680742 0 2091.15645501 0 4076.73580627 0 4083
0.06250000 0.06249100 30654.29377338 0 -363.54392621 0 6785.90484644 0 2845.32457390 0 2236.70623256 0 4303
0.06350000 0.06350600 31161.05056194 0 139.48178370 0 6110.97223855 0 1237.02337803 0 5116.97916805 0 4470
0.06450000 0.06451750 30529.18507180 0 351.82385839 0 4562.36386465 0 496.16802284 0 3087.76704799 0 4479
0.06550000 0.06550280 30195.11821972 0 615.18211169 0 5677.70572096 0 -808.90761231 0 3869.76298002 0 4636
0.06650000 0.06648880 29379.47159615 0 313.91747458 0 4515.85847585 0 -1512.01851516 0 281.81400502 0 4653
0.06750000 0.06749660 28733.52028588 0 524.16996777 0 7450.34518201 0 -2561.55629998 0 -1665.35431297 0 5220
0.06850000 0.06852730 28234.30551124 0 1166.05080876 0 9231.14776402 0 -3068.17999418 0 -4906.77880348 0 5029
0.06950000 0.06949320 27750.95114824 0 824.41976036 0 11283.07465543 0 -3184.72629171 0 -7124.51908927 0 5040
0.07050000 0.07048030 26644.16060478 0 589.31300393 0 12185.89808701 0 -161.02865201 0 -5826.63831358 0 5475
0.07150000 0.07148790 26786.23883768 0 -18.24357712 0 13047.79500186 0 -84.56383292 0 -7261.92792826 0 5509
0.07250000 0.07249820 26661.68469595 0 -167.00680717 0 12286.71706727 0 3337.20806736 0 -4468.33269692 0 5916
0.07350000 0.07351270 26970.46361899 0 -58.00684913 0 12906.49315274 0 1123.06132939 0 -2345.07831794 0 5721
0.07450000 0.07449140 26553.32370177 0 639.62600064 0 11744.35753650 0 534.69218632 0 -259.42864222 0 6028
0.07550000 0.07549160 26669.11579791 0 309.18042437 0 12882.86890324 0 996.64608481 0 1490.22431316 0 6183
0.07650000 0.07648840 25875.09700839 0 120.88628290 0 12329.86182340 0 -145.24587876 0 2243.70477784 0 6330
0.07750000 0.07749960 25913.25072589 0 43.75588108 0 12154.84273556 0 1080.82716053 0 1690.16532055 0 6583
0.07850000 0.07848650 25650.72209412 0 98.51389680 0 11927.14046221 0 709.75231159 0 2501.56401569 0 6549
0.07950000 0.07947320 25480.91586885 0 303.55275104 0 11580.76238152 0 16.68204751 0 2162.79449610 0 6828
0.08050000 0.08048110 25496.22172064 0 654.94738011 0 10666.09355159 0 -385.08192156 0 793.41653753 0 7147
0.08150000 0.08149960 24228.49790945 0 578.55676113 0 11957.75216579 0 -517.94336981 0 353.37218949 0 7386
0.08250000 0.08250610 23375.14121626 0 403.62529374 0 11443.89701118 0 -360.40622659 0 299.75623432 0 7227
0.08350000 0.08350160 23258.90547224 0 291.83490146 0 11808.79739077 0 1722.48506845 0 43.94298957 0 7798
0.08450000 0.08449610 23078.89534577 0 -30.91870791 0 10359.82123906 0 1168.16922737 0 859.45352416 0 7371
0.08550000 0.08548940 22806.82828463 0 187.46119258 0 10292.67513274 0 1180.52482077 0 267.85795190 0 8256
0.08650000 0.08650700 22636.80023541 0 410.48630817 0 11046.92089001 0 234.57216074 0 3082.79819176 0 8037
0.08750000 0.08749060 21428.19250397 0 818.38060362 0 11437.57502892 0 -584.39849456 0 1941.85785289 0 8155
0.08850000 0.08849210 20646.59585502 0 873.62252826 0 11608.04672601 0 -853.51529731 0 3023.07209619 0 8718
0.08950000 0.08949900 20006.63379111 0 525.73826302 0 12313.11411601 0 136.34075673 0 2696.14797495 0 8571
0.09050000 0.09049190 19470.81806654 0 197.60741955 0 12416.15133566 0 1031.53788129 0 2879.48546050 0 8932
0.09150000 0.09150830 19550.45286063 0 67.55415146 0 11887.76671304 0 692.17165531 0 3070.30950399 0 9285
0.09250000 0.09250820 18763.64334913 0 72.11973177 0 11325.66485171 0 1022.53737497 0 2866.09838578 0 9204
0.09350000 0.09350330 19334.17452014 0 -69.49400181 0 10153.97971490 0 1750.31288160 0 4224.13781372 0 9349
0.09450000 0.09448040 18604.81740883 0 -167.85417461 0 8856.64240787 0 973.26916900 0 2424.12527859 0 9564
0.09550000 0.09549270 19395.73066320 0 -42.39432574 0 8073.00497869 0 1020.64188941 0 3931.70731498 0 10155
0.09650000 0.09649430 18873.33528694 0 34.37006657 0 6943.94331175 0 383.51584455 0 2076.56043983 0 9913
0.09750000 0.09749140 18559.23258937 0 375.81300827 0 7146.13583212 0 -243.09796383 0 3073.38176555 0 10476
0.09850000 0.09850240 17981.38122837 0 397.43973320 0 7155.45243755 0 -107.74121810 0 1643.93721167 0 10575
0.09950000 0.09950330 17785.28886632 0 397.71812225 0 7281.69244122 0 -1046.27364555 0 190.22068238 0 10882
0.10050000 0.10051200 17161.07630208 0 413.78483015 0 7876.03641208 0 -413.77152071 0 -443.11328224 0 10875
0.10150000 0.10150300 17038.51857580 0 86.33775896 0 7141.00060793 0 62.81687942 0 -991.03837563 0 11118
0.10250000 0.10250800 16652.87765791 0 -160.06926348 0 7226.56919239 0 72.68882109 0 -1399.65359888 0 11575
0.10350000 0.10349800 17386.56033603 0 -261.79106717 0 6092.15047733 0 978.30457242 0 -2338.24614062 0 11364
0.10450000 0.10450100 17140.55758772 0 -64.33703887 0 5879.44350225 0 1050.09678114 0 -2148.48685204 0 12093
0.10550000 0.10551000 17298.71805620 0 135.48895280 0 4139.97781127 0 625.92726329 0 -1333.29496754 0 12067
0.10650000 0.10649700 17162.62906965 0 -33.19606338 0 4900.65646277 0 233.56508005 0 -1172.53915897 0 12054
0.10750000 0.10749900 16971.52774623 0 456.71885353 0 4479.05788437 0 -262.46319370 0 -681.48306881 0 12807
0.10850000 0.10850100 16046.63283272 0 624.26469287 0 5123.75588938 0 -510.39581028 0 -633.16759666 0 12736
0.10950000 0.10950300 15901.89271254 0 226.61533605 0 5152.32681272 0 -245.85745363 0 -1076.10231063 0 12933
0.11050000 0.11050200 15459.57577825 0 35.52310741 0 5617.30306238 0 632.39454023 0 -66.84353847 0 13428
0.11150000 0.11150900 15578.80614544 0 62.36812959 0 5618.32345250 0 772.67932659 0 500.52131764 0 13453
0.11250000 0.11250000 15812.49766514 0 -126.95538587 0 4977.99537909 0 739.27818699 0 806.76922953 0 13668
0.11350000 0.11349100 15460.46307401 0 129.49305173 0 4883.58711067 0 516.30741826 0 1630.31722181 0 13791
0.11450000 0.11448600 15213.35120600 0 203.67430428 0 4407.38656969 0 131.22327845 0 2011.39965776 0 14205
0.11550000 0.11549300 15328.92147820 0 75.26075875 0 4944.86597380 0 629.52413846 0 2741.65515603 0 14776
0.11650000 0.11649800 15160.00254868 0 193.63122544 0 4362.17885093 0 76.08860569 0 3279.66693759 0 14553
0.11750000 0.11747300 14814.17902783 0 148.19391890 0 5169.57362398 0 -446.27316425 0 2156.74979376 0 14568
0.11850000 0.11849100 14832.25767886 0 240.70892001 0 4518.85309902 0 -264.46182739 0 2389.05491384 0 16015
0.11950000 0.11950300 14271.15402525 0 134.61274824 0 4955.93498836 0 31.05934429 0 1212.24564405 0 15270
0.12050000 0.12050700 14221.90911080 0 210.19260072 0 5188.42865879 0 -297.56683204 0 1339.55040262 0 15999
0.12150000 0.12150000 14133.51227112 0 241.68494534 0 5409.43184918 0 -142.05937787 0 67.01589567 0 15670
0.12250000 0.12250700 13517.83992852 0 479.94714730 0 5489.93175663 0 -498.36075247 0 1222.84882833 0 16887
0.12350000 0.12352200 13103.25098660 0 295.13785991 0 5711.76678679 0 260.62538237 0 295.75453046 0 16407
0.12450000 0.12449800 12930.78287405 0 -19.96859099 0 5674.27854110 0 444.91338350 0 838.42350563 0 16306
0.12550000 0.12549900 12927.23369103 0 54.40797754 0 5156.10891088 0 562.34586767 0 922.30733726 0 17523
0.12650000 0.12650100 12880.87248779 0 63.39839088 0 4979.65905863 0 410.81571672 0 1391.69011947 0 17154
0.12750000 0.12750600 12824.41829532 0 -117.99480785 0 4753.24336413 0 281.14742408 0 1727.95302855 0 18007
0.12850000 0.12850300 12853.36631936 0 179.48551285 0 4814.13403538 0 -87.57731113 0 861.70281890 0 17496
0.12950000 0.12949900 12947.08693357 0 20.04600754 0 4657.63724644 0 30.74768165 0 1580.90593941 0 18405
0.13050000 0.13049000 12906.93680062 0 -245.08439720 0 4436.48987049 0 573.79420116 0 1192.51440468 0 18100
0.13150000 0.13148800 13134.63907396 0 9.19658759 0 4183.93222478 0 268.38145639 0 1898.10308093 0 19059
0.13250000 0.13249300 13134.86089790 0 153.20935816 0 3993.37437001 0 205.36349357 0 1479.59894648 0 18957
0.13350000 0.13349100 12723.26657915 0 214.35734518 0 4614.94722938 0 111.31236169 0 2383.67568332 0 19468
0.13450000 0.13450700 12731.80680080 0 152.19451364 0 4328.53925059 0 125.90504952 0 2274.76012929 0 19953
0.13550000 0.13551000 12466.17263389 0 233.85345117 0 4655.05299755 0 -152.13129382 0 2305.81548075 0 19956
0.13650000 0.13649900 12230.15196284 0 129.54739859 0 4952.95145638 0 -314.49532595 0 2271.64350295 0 19723
0.13750000 0.13749600 12073.98790980 0 190.26171981 0 5006.61066722 0 -127.14726358 0 1558.00261771 0 20946
0.13850000 0.13851100 12059.56935377 0 169.61656581 0 4878.50734246 0 -74.79359753 0 1329.06922150 0 20955
0.13950000 0.13949800 11564.12558609 0 281.33486531 0 5554.83744117 0 -550.65352785 0 520.69953225 0 20506
0.14050000 0.14048300 11554.58715672 0 201.10669218 0 5617.56925111 0 -172.41709304 0 772.33882685 0 21447
0.14150000 0.14148400 11319.12104551 0 -128.07116028 0 5277.49097028 0 373.14335717 0 -76.57861477 0 21771
0.14250000 0.14249400 11211.86917102 0 153.05851789 0 5128.71365442 0 196.88205527 0 -171.99451844 0 22470
0.14350000 0.14350900 11239.92989930 0 105.71785104 0 4714.25780686 0 254.44980391 0 -423.87781937 0 22519
0.14450000 0.14449900 10899.17505546 0 116.38769342 0 4557.65010595 0 365.97400746 0 207.48191219 0 22218
0.14550000 0.14550500 10728.33734886 0 29.91584188 0 3954.53299830 0 745.87855829 0 478.58847567 0 23559
0.14650000 0.14650700 10810.88912775 0 64.82671522 0 3899.11028715 0 473.85031634 0 502.56431612 0 23044
0.14750000 0.14750500 10603.61683918 0 8.59406941 0 2874.64969863 0 677.42258161 0 1090.07167318 0 23649
0.14850000 0.14849900 10514.59889248 0 34.53643453 0 3067.01541850 0 294.06090469 0 952.35560804 0 23640
0.14950000 0.14949500 10238.82737155 0 348.59521096 0 2825.56006094 0 -397.79243327 0 1357.76214801 0 24457
0.15050000 0.15050000 9855.19396031 0 392.26014423 0 3269.57394837 0 -136.39954007 0 610.30974887 0 24591
0.15150000 0.15149900 9402.02983540 0 272.83013549 0 3581.11457945 0 -475.86891418 0 1177.26400887 0 25020
0.15250000 0.15250500 9259.13085392 0 168.06823472 0 3716.67118855 0 -103.62139299 0 435.56350447 0 25297
0.15350000 0.15350100 8959.04742929 0 114.24931064 0 3612.95740588 0 128.53033583 0 307.95373799 0 25452
0.15450000 0.15450400 8861.37834896 0 27.17664897 0 3587.18146418 0 156.42802352 0 574.12028235 0 26061
0.15550000 0.15549900 8936.51011709 0 -85.45900343 0 3592.01722605 0 300.77773356 0 742.37928565 0 26128
0.15650000 0.15649500 9085.97508717 0 16.44336495 0 3130.82307454 0 191.06804983 0 513.45143504 0 26331
0.15750000 0.15749700 9070.01485476 0 -27.85421019 0 3068.40181812 0 71.74906397 0 264.44851796 0 27345
0.15850000 0.15849900 9049.83996751 0 -24.65007431 0 3020.92040398 0 241.91009664 0 970.88788902 0 26980
0.15950000 0.15949700 9220.11202306 0 42.12636242 0 3078.32843939 0 -25.07120705 0 540.76461665 0 27777
0.16050000 0.16050000 9043.52907644 0 43.48880506 0 3045.72032036 0 -75.31898753 0 600.30992570 0 28224
0.16150000 0.16150500 9062.30647288 0 157.30533720 0 3114.41919426 0 -139.38196293 0 339.37177158 0 28075
0.16250000 0.16249700 8824.41138954 0 132.86255736 0 3216.31402062 0 -117.24393382 0 539.06655439 0 28590
0.16350000 0.16349900 8906.36424379 0 4.50178375 0 3254.57865009 0 99.35172582 0 574.80239096 0 29163
0.16450000 0.16449100 8727.59633137 0 74.32499446 0 3209.72584963 0 179.42007479 0 249.50978479 0 28996
0.16550000 0.16550500 8777.06306976 0 4.55739501 0 2971.83076629 0 241.92007871 0 310.75537433 0 30777
0.16650000 0.16650700 8544.53612574 0 126.27216814 0 2699.80806994 0 52.51260289 0 259.55286362 0 29211
0.16750000 0.16749900 8482.35887565 0 172.89623275 0 2816.69819458 0 29.34242700 0 590.30899341 0 30922
0.16850000 0.16850800 8260.52384549 0 123.24316225 0 2630.90955450 0 199.90551556 0 281.95264498 0 30867
0.16950000 0.16949900 8118.22378865 0 27.82470761 0 2606.46455642 0 115.52812565 0 503.25862505 0 30852
0.17050000 0.17049200 8188.23142378 0 28.16232364 0 2601.39587942 0 103.51602662 0 147.02490675 0 31257
0.17150000 0.17149500 8116.81520663 0 42.77841389 0 2507.87490675 0 -44.43100224 0 323.20302467 0 32608
0.17250000 0.17250900 8117.28103690 0 80.96473951 0 2382.37801328 0 29.58676607 0 505.91829408 0 32361
0.17350000 0.17350400 7948.60611372 0 146.70880763 0 2561.85576230 0 -51.43941868 0 274.17327944 0 32508
0.17450000 0.17449800 7888.41418788 0 128.85419879 0 2817.15293365 0 -123.43947644 0 496.80687578 0 32791
0.17550000 0.17549800 7676.40595821 0 87.96561394 0 2880.47257703 0 189.58072032 0 486.08723393 0 33633
0.17650000 0.17650100 7806.91607270 0 -14.72389668 0 2929.66203549 0 118.03806352 0 880.69538455 0 33984
0.17750000 0.17750300 7813.02732222 0 -82.71260124 0 2513.23195488 0 337.99313580 0 705.44449069 0 34069
0.17850000 0.17849800 8019.91141890 0 -116.61506295 0 2523.41367367 0 264.36311574 0 873.55487196 0 34536
