### header ###
fiducial parameters:
Omega_m = 0.31
Omega_nu = 0
Omega_de = 0.69
Omega_k = 0
H_0 = 100
w_de = -1
zeff = 0
beta = 0
fgrowth = 0
b_1 = 2
gamma = 0.55
Lx = 3500 Ly = 3500 Lz = 3500
nx = 700 ny = 700 nz = 700
xoffset = 1379.75464 yoffset = 22.6059522 zoffset = 368.141391
bins = 400 dk = 0.001
kx_ny = 0.628318531 ky_ny = 0.628318531 kz_ny = 0.628318531
############################
A(data) = 3.27237217 (not used)
A(ran) = 3.27192888 (used)
Ngal = 184099
weighted Ngal = 0
Nran = 9399747
weighted Nran = 0
SN(data) = 6712.69756
SN(ran) = 130.142224
SN(data+ran) = 6842.83978
############################
13 columns: k_central k_mean P_0(k) sigma^{lin}_{P_0(k)} P^img_1(k) sigma^{lin}_{P_1(k)} P_2(k) sigma^{lin}_{P_2(k)} P^img_3(k) sigma^{lin}_{P_3(k)} P_4(k) sigma^{lin}_{P_4(k)} N_modes
### header ###
0.00050000 0 0 0 0 0 0 0 0 0 0 0 0
0.00150000 0.00179520 64944.94737820 0 -37191.77799057 0 -81480.03652451 0 81358.69882990 0 -87392.42088170 0 3
0.00250000 0.00253879 114978.00228344 0 -37578.08438027 0 -25127.77215802 0 -59740.18138630 0 63441.64654383 0 6
0.00350000 0.00331552 120457.05357587 0 -13301.56158803 0 -45721.01935572 0 -70921.99341359 0 -20152.37211901 0 7
0.00450000 0.00420575 119658.48739559 0 13653.15253129 0 -17284.07767623 0 -64494.42295816 0 7651.25112353 0 24
0.00550000 0.00557378 91474.97956637 0 10181.85189283 0 1623.37413252 0 -30448.21933408 0 -8419.16123544 0 45
0.00650000 0.00659388 80893.97767777 0 10196.14844570 0 56091.95397412 0 -6838.74330870 0 -31263.97686962 0 40
0.00750000 0.00754703 71356.10286215 0 11361.37850588 0 20863.65057930 0 -12537.04538239 0 -35771.99386922 0 57
0.00850000 0.00846663 75778.27399737 0 1122.66204630 0 50162.82190954 0 5125.95194638 0 -22563.04377571 0 75
0.00950000 0.00948925 58322.06094450 0 6989.31739847 0 35070.58657422 0 -6308.42881782 0 -22587.00076112 0 112
0.01050000 0.01054430 56857.13565158 0 6481.06329832 0 54802.60232889 0 -7397.78399968 0 -27959.90929874 0 105
0.01150000 0.01145670 60251.15282971 0 -891.56253932 0 49104.72172068 0 10826.07297637 0 -23967.41113329 0 144
0.01250000 0.01249090 54600.40980853 0 -5242.07677843 0 38742.88188378 0 14398.37005424 0 -16834.10781604 0 169
0.01350000 0.01339930 60853.07208809 0 -1209.36193284 0 27379.39605047 0 8296.54805318 0 -11988.91842921 0 180
0.01450000 0.01448870 66742.27584365 0 535.29332919 0 25038.37711061 0 8728.71654227 0 -18346.50343190 0 267
0.01550000 0.01550050 58244.08982996 0 4367.51371666 0 20136.62261935 0 4522.36900846 0 -679.17609984 0 238
0.01650000 0.01653350 56066.77695705 0 -333.34148780 0 19463.49787656 0 1502.59099776 0 12643.18813719 0 315
0.01750000 0.01747870 62361.80760895 0 -1802.39714246 0 9626.31602009 0 17258.45701128 0 10998.50781533 0 297
0.01850000 0.01844180 62047.59399941 0 -1906.96494729 0 3980.32003120 0 6252.44045562 0 4654.68698805 0 388
0.01950000 0.01947590 63283.15333944 0 -1132.16720208 0 7759.66757370 0 350.00268386 0 12947.19784554 0 399
0.02050000 0.02045430 59443.93551582 0 -449.10585595 0 793.30229820 0 1609.64323070 0 10598.45943260 0 462
0.02150000 0.02154770 65570.49088608 0 688.38844803 0 7170.44773583 0 -3382.90379878 0 5581.10139554 0 571
0.02250000 0.02255340 62625.22353647 0 -1310.58019619 0 3451.45848712 0 -195.96148592 0 1789.36498605 0 510
0.02350000 0.02348930 64554.42633365 0 1202.41884355 0 12461.18159527 0 -32.70771798 0 10746.07217278 0 555
0.02450000 0.02439640 63999.20101442 0 2088.35038218 0 4064.13620654 0 -219.06444916 0 -2488.19912336 0 592
0.02550000 0.02547300 61235.27473492 0 2683.16018332 0 15679.40330176 0 -318.00790802 0 13105.35831402 0 837
0.02650000 0.02652900 56243.79246035 0 1826.01030077 0 16931.15578934 0 -78.29852668 0 5337.70507851 0 723
0.02750000 0.02749970 57924.66335785 0 1622.69756951 0 16745.71097637 0 -97.37904553 0 13163.36527406 0 826
0.02850000 0.02848090 55630.56018108 0 1085.96238471 0 21959.90448566 0 -1775.95572894 0 7944.64655641 0 831
0.02950000 0.02946900 58146.59820878 0 1418.17589778 0 28091.78363046 0 -1942.55659830 0 12701.74965707 0 996
0.03050000 0.03053250 55528.96481703 0 -981.40456196 0 25383.53515964 0 4949.66846208 0 12717.72098068 0 1041
0.03150000 0.03150510 57839.92661316 0 -1376.05153178 0 24548.36802944 0 2956.92419759 0 -524.67128988 0 1036
0.03250000 0.03246190 58861.86949997 0 -481.11837770 0 22867.16439603 0 4533.17183428 0 14892.03923041 0 1059
0.03350000 0.03345080 58114.21191369 0 669.98149757 0 16369.16483997 0 3349.45274879 0 -153.64635132 0 1302
0.03450000 0.03451200 56752.43475239 0 2467.44749387 0 22853.30039984 0 -1505.40816178 0 15406.33803290 0 1339
0.03550000 0.03553350 52719.89736596 0 1917.57922277 0 13591.37456429 0 3379.86481082 0 1659.07669550 0 1365
0.03650000 0.03647120 51577.94772817 0 1205.49110511 0 20493.31551320 0 5635.95845565 0 12363.46815015 0 1308
0.03750000 0.03744890 48101.96660459 0 758.27629824 0 9997.33874040 0 2407.38866240 0 2383.81986888 0 1579
0.03850000 0.03847530 45869.41957089 0 2142.94125356 0 13337.49706615 0 -90.64702171 0 7862.50515181 0 1662
0.03950000 0.03950240 43092.51659096 0 1830.39132356 0 12843.27333013 0 -2029.11229928 0 3983.62520789 0 1683
0.04050000 0.04050350 40940.49164710 0 1283.51767564 0 13392.28757907 0 -1363.54066162 0 764.88776074 0 1822
0.04150000 0.04152450 42500.35758589 0 -1062.51892172 0 7044.47392089 0 3313.69472983 0 -3953.09114269 0 1887
0.04250000 0.04250150 40461.57376287 0 -1160.01719762 0 11591.74266650 0 963.38469428 0 -2881.45969356 0 1920
0.04350000 0.04349210 43042.49529272 0 1537.56154174 0 5238.69396336 0 -1121.91893610 0 -2809.04526868 0 2005
0.04450000 0.04448520 41049.73993704 0 778.59869841 0 10673.67993030 0 -555.22753747 0 -5032.55297688 0 2151
0.04550000 0.04548030 38953.28188988 0 1492.97493000 0 7020.19529077 0 645.26254693 0 -3434.45568220 0 2274
0.04650000 0.04648670 36858.59843424 0 1210.54869091 0 11349.95457302 0 1179.74843699 0 -1399.22104220 0 2311
0.04750000 0.04749250 36433.91650309 0 1475.29556207 0 10969.48215291 0 349.96719203 0 1536.91825231 0 2568
0.04850000 0.04851840 34417.64780988 0 255.92936958 0 9784.76485969 0 836.33725148 0 542.95290980 0 2493
0.04950000 0.04949480 33971.33804468 0 300.38843255 0 10465.36506922 0 -130.82399536 0 -303.89768726 0 2644
0.05050000 0.05050630 33853.21679718 0 -9.12067944 0 8018.64702244 0 1314.39556794 0 322.12385121 0 2829
0.05150000 0.05149060 35706.00124738 0 -1177.57456239 0 8147.65982535 0 1557.78079377 0 -1673.56179871 0 2784
0.05250000 0.05249300 34639.47174884 0 439.84027002 0 9016.71056222 0 -572.39781946 0 -1543.29569056 0 3055
0.05350000 0.05348950 35436.48516154 0 624.56526431 0 6045.71163570 0 -687.55106266 0 -1452.08168686 0 3009
0.05450000 0.05448610 34002.61522007 0 298.40643565 0 9597.91146470 0 124.57743324 0 147.00050611 0 3336
0.05550000 0.05550870 34500.83178699 0 330.31802751 0 6743.78048043 0 1621.04498116 0 2070.56010228 0 3349
0.05650000 0.05647670 33814.17578392 0 79.50824353 0 9814.34508195 0 2175.87101730 0 3160.62512074 0 3324
0.05750000 0.05747970 33506.94962846 0 -125.39485446 0 7590.04989877 0 1589.87871774 0 3646.34190870 0 3639
0.05850000 0.05849280 33648.58421349 0 414.49244851 0 8311.09970358 0 539.81742843 0 6276.36416744 0 3846
0.05950000 0.05951020 31953.62749586 0 1583.96710977 0 8045.38789829 0 -2701.10573998 0 6094.19125756 0 3787
0.06050000 0.06049470 31972.03888279 0 1066.96094610 0 12140.53509149 0 -1151.23296963 0 7038.00775307 0 3930
0.06150000 0.06148310 30260.88901762 0 -214.76661035 0 11804.58273593 0 -224.15863592 0 3760.92506437 0 4083
0.06250000 0.06249100 31106.37096099 0 111.93014136 0 11632.00371142 0 1385.66759953 0 1868.47849388 0 4303
0.06350000 0.06350600 30426.03694018 0 725.20678542 0 13112.90032794 0 -2122.21180647 0 2391.28424443 0 4470
0.06450000 0.06451750 29507.57492090 0 1307.53011703 0 12715.17000538 0 -818.24972750 0 1607.46935610 0 4479
0.06550000 0.06550280 28559.94305364 0 -141.09666198 0 14681.30648839 0 1982.56254569 0 3243.24344681 0 4636
0.06650000 0.06648880 29132.35972814 0 -380.38036318 0 11308.91714432 0 1440.76866597 0 1768.89063648 0 4653
0.06750000 0.06749660 29038.52820196 0 88.27406013 0 12294.70272907 0 1581.66014080 0 959.63254235 0 5220
0.06850000 0.06852730 28879.92408560 0 1175.54487335 0 11516.32252725 0 -986.02071813 0 2727.71352146 0 5029
0.06950000 0.06949320 26376.53002242 0 963.77177706 0 11914.27467375 0 -1189.02067764 0 -259.80241555 0 5040
0.07050000 0.07048030 25836.16690710 0 735.00474880 0 12614.79467300 0 496.70483677 0 3069.15601951 0 5475
0.07150000 0.07148790 25536.48276556 0 -351.15173186 0 10663.88640340 0 1345.42873700 0 -1777.84123242 0 5509
0.07250000 0.07249820 25625.87781296 0 -154.28076779 0 10270.73674517 0 684.54202093 0 -1593.88263984 0 5916
0.07350000 0.07351270 25958.94645731 0 210.49982688 0 9074.77297825 0 70.43187342 0 -2621.27130435 0 5721
0.07450000 0.07449140 25044.92091681 0 284.26294130 0 9097.87594149 0 762.24916498 0 -1431.25241899 0 6028
0.07550000 0.07549160 24816.88590756 0 -55.91127838 0 7043.50898676 0 1722.51834204 0 -782.51167269 0 6183
0.07650000 0.07648840 24864.91079034 0 106.32941964 0 6298.85711485 0 1644.43631553 0 -2272.53079871 0 6330
0.07750000 0.07749960 24512.54346330 0 362.82299841 0 5258.46956752 0 -124.81922134 0 284.51582059 0 6583
0.07850000 0.07848650 23350.07511115 0 866.44319648 0 7420.23258230 0 -348.68394054 0 -912.50715564 0 6549
0.07950000 0.07947320 23119.15639069 0 538.34451747 0 6872.50491221 0 -1402.61494847 0 241.81693058 0 6828
0.08050000 0.08048110 22326.46854480 0 247.67862817 0 8265.09341863 0 72.51790574 0 -1392.58850642 0 7147
0.08150000 0.08149960 22188.27223083 0 269.51164936 0 7970.94378437 0 -137.51975096 0 -55.42215659 0 7386
0.08250000 0.08250610 21844.22330149 0 161.19834733 0 8833.30652949 0 349.75978664 0 513.50578191 0 7227
0.08350000 0.08350160 22193.92874127 0 -194.72814482 0 8116.12755242 0 1242.49133812 0 433.80998624 0 7798
0.08450000 0.08449610 21974.43395367 0 -70.28003493 0 7742.73131596 0 1256.89880296 0 1304.03638999 0 7371
0.08550000 0.08548940 21938.16573965 0 462.38090957 0 7442.44824979 0 78.03544349 0 1095.37104709 0 8256
0.08650000 0.08650700 21168.76940735 0 590.20584528 0 7855.24041781 0 -47.88180635 0 2919.13648959 0 8037
0.08750000 0.08749060 21370.18554393 0 92.22496630 0 7578.70360430 0 362.79748866 0 3152.78364450 0 8155
0.08850000 0.08849210 20346.46806561 0 1.70188872 0 7608.19509698 0 1400.10833796 0 2760.58782922 0 8718
0.08950000 0.08949900 20707.93017415 0 393.74303726 0 6663.22511699 0 -297.73209088 0 1986.61083258 0 8571
0.09050000 0.09049190 20034.58360742 0 425.51377092 0 7155.82953825 0 91.61883239 0 3012.21381438 0 8932
0.09150000 0.09150830 19159.82090412 0 526.69210596 0 8209.79271065 0 -536.84720588 0 2549.57780728 0 9285
0.09250000 0.09250820 19392.07056821 0 452.64062041 0 7687.70788790 0 -884.79801831 0 1788.05622481 0 9204
0.09350000 0.09350330 18258.55024010 0 569.05160534 0 8936.57666427 0 -123.95078061 0 2103.36786285 0 9349
0.09450000 0.09448040 17722.62360356 0 301.92456332 0 8486.51807451 0 -907.37414969 0 563.95630947 0 9564
0.09550000 0.09549270 17858.37985421 0 -47.45756806 0 9661.73021194 0 1357.26304414 0 2159.10112752 0 10155
0.09650000 0.09649430 17966.18628855 0 -215.46313751 0 8507.35843357 0 860.81330490 0 229.16852958 0 9913
0.09750000 0.09749140 18068.77986032 0 119.40449899 0 7829.75284722 0 171.18042458 0 1267.74599358 0 10476
0.09850000 0.09850240 17313.91299602 0 644.59929336 0 8790.22832054 0 -1014.80348333 0 1189.30904876 0 10575
0.09950000 0.09950330 17073.23402225 0 371.38096597 0 8742.85781838 0 43.42979989 0 1344.92963314 0 10882
0.10050000 0.10051200 16971.97139411 0 27.99140830 0 8705.91304134 0 773.28490595 0 880.47799709 0 10875
0.10150000 0.10150300 16460.99995070 0 86.01910888 0 7810.70926206 0 626.64153638 0 245.33616737 0 11118
0.10250000 0.10250800 16522.33426983 0 209.38294335 0 7530.75635989 0 476.11070228 0 1127.96363844 0 11575
0.10350000 0.10349800 15971.87816529 0 71.10632911 0 6626.24706637 0 877.77618152 0 616.08049864 0 11364
0.10450000 0.10450100 15968.10715833 0 135.78286952 0 6894.43220858 0 634.94551553 0 1306.90901000 0 12093
0.10550000 0.10551000 15476.87804549 0 282.53160546 0 5537.80136266 0 436.06260834 0 782.46287142 0 12067
0.10650000 0.10649700 15414.87825455 0 120.63229449 0 6253.08374504 0 561.31216811 0 1726.73299688 0 12054
0.10750000 0.10749900 15139.92748220 0 -110.41231106 0 5214.20460050 0 350.38089367 0 1340.72606950 0 12807
0.10850000 0.10850100 15132.82911615 0 188.03017098 0 5436.94910881 0 -248.54928713 0 928.82563371 0 12736
0.10950000 0.10950300 14997.73833733 0 236.08500000 0 4462.14380903 0 84.88425760 0 483.78691968 0 12933
0.11050000 0.11050200 14836.13959779 0 -168.73037917 0 4723.74078025 0 302.63107257 0 643.37926169 0 13428
0.11150000 0.11150900 15012.37871730 0 -82.71282307 0 4632.28277021 0 174.00867980 0 -241.82358530 0 13453
0.11250000 0.11250000 14909.67423356 0 226.77948576 0 4629.72070372 0 65.14824902 0 -223.59853048 0 13668
0.11350000 0.11349100 14654.90943966 0 360.03245326 0 4339.13134367 0 170.49166125 0 832.36993033 0 13791
0.11450000 0.11448600 14175.99155543 0 213.34360978 0 4200.63556738 0 -127.60200265 0 -249.79482855 0 14205
0.11550000 0.11549300 14343.57954132 0 89.19840048 0 4649.52958147 0 333.81064543 0 686.84566253 0 14776
0.11650000 0.11649800 13863.33071346 0 140.83158237 0 4472.38098381 0 374.19591176 0 1005.81850469 0 14553
0.11750000 0.11747300 13829.16982686 0 87.74966834 0 4373.28113908 0 198.70988452 0 1774.05913426 0 14568
0.11850000 0.11849100 14156.02740092 0 -290.33537163 0 4189.82165036 0 883.16539411 0 1565.54463164 0 16015
0.11950000 0.11950300 14060.64310717 0 98.58377134 0 3877.08317001 0 -53.40633155 0 968.82936286 0 15270
0.12050000 0.12050700 13900.70804718 0 438.81100694 0 3851.11867795 0 -619.61082663 0 1292.85646347 0 15999
0.12150000 0.12150000 13230.24519166 0 437.83609073 0 4815.57589098 0 -572.46103929 0 1313.37517782 0 15670
0.12250000 0.12250700 12853.03358345 0 385.18506970 0 5262.96150228 0 -230.74347955 0 1493.17457155 0 16887
0.12350000 0.12352200 12679.23452727 0 -6.73769141 0 4511.04489637 0 707.19357245 0 816.68254137 0 16407
0.12450000 0.12449800 12559.22777629 0 -75.68033873 0 4354.15991554 0 750.02777507 0 853.54746178 0 16306
0.12550000 0.12549900 12692.21122770 0 -4.30804272 0 3576.05699364 0 255.77520194 0 728.36555831 0 17523
0.12650000 0.12650100 12601.59614863 0 41.77177686 0 3504.17494622 0 375.29172202 0 1823.54805505 0 17154
0.12750000 0.12750600 12310.67405268 0 -109.24629352 0 2833.15753085 0 251.60269365 0 712.14135541 0 18007
0.12850000 0.12850300 12744.00711745 0 -127.67187719 0 2042.47719161 0 847.04025653 0 1060.37499335 0 17496
0.12950000 0.12949900 12732.47227262 0 -99.17659582 0 2001.36212452 0 271.23743961 0 290.82892990 0 18405
0.13050000 0.13049000 12665.03779518 0 282.11457646 0 1746.55296583 0 -517.38215524 0 467.66808316 0 18100
0.13150000 0.13148800 12332.41279870 0 271.79532681 0 2611.56650702 0 -836.15868321 0 60.64089749 0 19059
0.13250000 0.13249300 12272.18759927 0 65.29387643 0 2333.70984107 0 -623.70680567 0 -932.23063117 0 18957
0.13350000 0.13349100 12046.03809350 0 77.63715861 0 3052.80759521 0 -16.06049683 0 -954.02926966 0 19468
0.13450000 0.13450700 12228.82101920 0 107.13863337 0 3305.57597366 0 -19.99886995 0 -1080.61310043 0 19953
0.13550000 0.13551000 12103.37958172 0 36.38322973 0 3144.93107706 0 259.95880143 0 -604.62551044 0 19956
0.13650000 0.13649900 11888.65400880 0 63.99886828 0 3706.99966481 0 142.39987762 0 -311.31769802 0 19723
0.13750000 0.13749600 11987.25474967 0 182.20951082 0 3156.02227401 0 -146.26072328 0 -404.94070970 0 20946
0.13850000 0.13851100 11635.99654232 0 326.79324512 0 4116.35356177 0 -62.97104706 0 343.32578329 0 20955
0.13950000 0.13949800 11577.54593440 0 96.12773669 0 4004.13283105 0 47.87237883 0 663.50534767 0 20506
0.14050000 0.14048300 11332.76321775 0 94.02939314 0 4676.94702032 0 225.41083206 0 1609.56559232 0 21447
0.14150000 0.14148400 11347.84724560 0 72.45346589 0 3937.55237577 0 365.96291626 0 840.79924001 0 21771
0.14250000 0.14249400 11090.44274683 0 245.19420005 0 4003.92209831 0 65.31960801 0 1582.17033586 0 22470
0.14350000 0.14350900 10934.48942654 0 149.61581035 0 4380.37950512 0 122.59321811 0 2156.52796982 0 22519
0.14450000 0.14449900 10840.66899156 0 53.61007683 0 4201.97760221 0 424.68193115 0 1895.25264332 0 22218
0.14550000 0.14550500 10641.94801583 0 127.82160835 0 4255.49262749 0 99.23870652 0 2081.85094077 0 23559
0.14650000 0.14650700 10565.84022238 0 81.47171813 0 3473.03086518 0 -54.46454265 0 1254.81365793 0 23044
0.14750000 0.14750500 10338.61487050 0 50.86123458 0 3995.45951504 0 -44.78946972 0 1706.02573218 0 23649
0.14850000 0.14849900 10327.27966722 0 95.44551716 0 3276.01793379 0 245.87630867 0 834.95750658 0 23640
0.14950000 0.14949500 10261.64196368 0 -37.76375102 0 3417.59706284 0 315.43142297 0 1058.78562483 0 24457
0.15050000 0.15050000 10245.29353938 0 141.06560663 0 2661.06651900 0 93.21718478 0 454.47954087 0 24591
0.15150000 0.15149900 9866.25188367 0 259.23898275 0 2904.67356877 0 84.84066920 0 627.16614999 0 25020
0.15250000 0.15250500 9569.86182762 0 187.88265806 0 2651.91628152 0 -234.67974535 0 542.95290980 0 25297
0.15350000 0.15350100 9333.45296467 0 130.52564217 0 2856.22722050 0 329.88990731 0 370.87964387 0 25452
0.15450000 0.15450400 9201.83373049 0 110.55982398 0 2521.78326772 0 168.67381407 0 339.27638729 0 26061
0.15550000 0.15549900 9106.59362229 0 21.57625998 0 2591.11433985 0 32.37997311 0 286.16508158 0 26128
0.15650000 0.15649500 9277.42023769 0 -108.24620030 0 1980.18902954 0 509.44640382 0 758.35060926 0 26331
0.15750000 0.15749700 9088.99189274 0 46.56261938 0 2212.93779750 0 267.76700408 0 570.27163701 0 27345
0.15850000 0.15849900 9138.09262163 0 163.72824935 0 1643.56011097 0 -60.82368042 0 885.28381273 0 26980
0.15950000 0.15949700 8788.67555297 0 223.74604340 0 2140.91156452 0 24.25922052 0 937.43794814 0 27777
0.16050000 0.16050000 8619.96735619 0 184.94570911 0 2196.57828200 0 -267.18471624 0 1317.29037034 0 28224
0.16150000 0.16150500 8510.61924548 0 84.79763536 0 2338.72306209 0 58.52214614 0 907.60484659 0 28075
0.16250000 0.16249700 8465.38934432 0 114.83048936 0 2466.05000306 0 -34.59843432 0 1177.36382964 0 28590
0.16350000 0.16349900 8208.05139273 0 33.87872655 0 2634.61401428 0 -25.28271618 0 995.27077639 0 29163
0.16450000 0.16449100 8509.04429551 0 -29.88578474 0 2136.64145370 0 209.01249737 0 946.98303223 0 28996
0.16550000 0.16550500 8394.56096061 0 -59.05529997 0 2552.81643678 0 111.68724415 0 1242.79080044 0 30777
0.16650000 0.16650700 8484.73239180 0 25.83816332 0 1909.71556414 0 -18.52118978 0 762.00072217 0 29211
0.16750000 0.16749900 8417.02063443 0 46.79265080 0 2342.62716342 0 371.39538453 0 1104.43366411 0 30922
0.16850000 0.16850800 8384.93380166 0 131.36080930 0 1946.38306125 0 29.31724998 0 1156.04654911 0 30867
0.16950000 0.16949900 8247.32532112 0 202.27681346 0 2405.13714942 0 -237.37601533 0 1307.67430259 0 30852
0.17050000 0.17049200 7995.98770708 0 212.46740522 0 2303.17577587 0 -178.64480013 0 1235.96971432 0 31257
0.17150000 0.17149500 7879.08649124 0 45.72656495 0 2704.38873428 0 6.55993280 0 1197.83817921 0 32608
0.17250000 0.17250900 7738.31701958 0 -18.80856270 0 2432.72095623 0 84.37472802 0 1004.97779196 0 32361
0.17350000 0.17350400 7898.36299154 0 21.90089932 0 2423.32671241 0 4.81959090 0 770.96351843 0 32508
0.17450000 0.17449800 7859.46616384 0 -36.25723374 0 2239.51230539 0 361.66396833 0 862.25959699 0 32791
0.17550000 0.17549800 7869.93625376 0 -34.82846574 0 1901.72990233 0 213.34582802 0 889.31546282 0 33633
0.17650000 0.17650100 7829.70848243 0 28.53032956 0 1765.21945029 0 164.30166423 0 755.99262079 0 33984
0.17750000 0.17750300 7901.74580661 0 96.07849177 0 1548.47527953 0 -161.13290926 0 271.13650972 0 34069
0.17850000 0.17849800 7645.70552506 0 151.91057900 0 1697.43005455 0 -155.59840199 0 475.71696478 0 34536
