### header ###
fiducial parameters:
Omega_m = 0.31
Omega_nu = 0
Omega_de = 0.69
Omega_k = 0
H_0 = 100
w_de = -1
zeff = 0
beta = 0
fgrowth = 0
b_1 = 2
gamma = 0.55
Lx = 3500 Ly = 3500 Lz = 3500
nx = 700 ny = 700 nz = 700
xoffset = 1379.75464 yoffset = 22.6059522 zoffset = 368.141391
bins = 400 dk = 0.001
kx_ny = 0.628318531 ky_ny = 0.628318531 kz_ny = 0.628318531
############################
A(data) = 3.31037001 (not used)
A(ran) = 3.30505946 (used)
Ngal = 185428
weighted Ngal = 0
Nran = 9399747
weighted Nran = 0
SN(data) = 6746.28423
SN(ran) = 131.460006
SN(data+ran) = 6877.74424
############################
13 columns: k_central k_mean P_0(k) sigma^{lin}_{P_0(k)} P^img_1(k) sigma^{lin}_{P_1(k)} P_2(k) sigma^{lin}_{P_2(k)} P^img_3(k) sigma^{lin}_{P_3(k)} P_4(k) sigma^{lin}_{P_4(k)} N_modes
### header ###
0.00050000 0 0 0 0 0 0 0 0 0 0 0 0
0.00150000 0.00179520 32756.74106688 0 -4885.06223986 0 7850.44902072 0 -5342.03064532 0 -118736.80892920 0 3
0.00250000 0.00253879 46624.73008306 0 -19576.29534952 0 -27796.64687967 0 27682.85119898 0 51738.10461210 0 6
0.00350000 0.00331552 73046.40127706 0 -34831.57127998 0 -21411.33388460 0 -2805.77336558 0 -67408.63495630 0 7
0.00450000 0.00420575 89719.57582538 0 -21513.59472047 0 -52711.24623234 0 -9657.90374900 0 8520.95624103 0 24
0.00550000 0.00557378 112687.67011364 0 -1637.31576709 0 -46769.58111520 0 -49081.09747118 0 -19335.72728771 0 45
0.00650000 0.00659388 107225.58835255 0 7842.18607900 0 -6699.51551341 0 -33461.14298506 0 10287.39572299 0 40
0.00750000 0.00754703 109434.17840084 0 -441.21890580 0 -22401.66686011 0 8061.14848915 0 -24352.60840330 0 57
0.00850000 0.00846663 89139.17348908 0 1606.55987795 0 10614.60821536 0 -27985.52996369 0 -6181.62316311 0 75
0.00950000 0.00948925 104692.91352942 0 6809.24072482 0 5491.59543617 0 -21051.42454363 0 -36402.30659179 0 112
0.01050000 0.01054430 89213.26268469 0 8312.73010953 0 30265.54732034 0 1758.43163776 0 -12775.83885269 0 105
0.01150000 0.01145670 74547.92751991 0 4437.03333914 0 8515.83210804 0 9038.71549697 0 9773.78457471 0 144
0.01250000 0.01249090 82252.42747999 0 -1477.34743350 0 31844.49011789 0 8480.48446337 0 -4674.37386263 0 169
0.01350000 0.01339930 83552.42667429 0 -1334.08244252 0 24728.04542000 0 5325.14984357 0 -20803.97993972 0 180
0.01450000 0.01448870 74729.04676607 0 5217.13267649 0 24663.38374179 0 1441.54504975 0 13803.77098585 0 267
0.01550000 0.01550050 74312.68323263 0 3698.54817273 0 7908.85526385 0 -11261.00317350 0 -5518.99069263 0 238
0.01650000 0.01653350 70192.30356637 0 -445.11191593 0 37333.07983969 0 12666.59056275 0 13173.90191116 0 315
0.01750000 0.01747870 79955.88423989 0 -2996.79705062 0 27218.24095882 0 5664.27428146 0 -11390.65926582 0 297
0.01850000 0.01844180 73333.99601392 0 2375.50147117 0 18032.62255827 0 2635.06875335 0 8093.30186910 0 388
0.01950000 0.01947590 72059.61748457 0 7112.34095502 0 33278.47097132 0 -12204.53129789 0 -4565.24757586 0 399
0.02050000 0.02045430 66793.40626159 0 3264.07271468 0 39976.11207245 0 3284.13668996 0 14405.46842029 0 462
0.02150000 0.02154770 62324.09753933 0 -126.17456560 0 34216.56440921 0 11753.23049406 0 4888.53378450 0 571
0.02250000 0.02255340 65022.14210895 0 -1534.25636504 0 36813.12452675 0 9535.49020828 0 18978.59074598 0 510
0.02350000 0.02348930 67720.29759055 0 -929.48112345 0 14839.35604490 0 12585.95756093 0 8082.60995524 0 555
0.02450000 0.02439640 62370.23691863 0 2013.68444433 0 22539.64135015 0 -640.24045296 0 11097.62984245 0 592
0.02550000 0.02547300 60954.55654016 0 2702.89142269 0 17453.77298954 0 -223.91684783 0 13954.83308828 0 837
0.02650000 0.02652900 59125.61816340 0 2331.95743195 0 21543.87368814 0 1288.99672693 0 13488.00460873 0 723
0.02750000 0.02749970 57155.71067343 0 -894.19780772 0 16361.06826620 0 7973.66112762 0 11771.08732115 0 826
0.02850000 0.02848090 56710.39911596 0 516.31518209 0 14934.74033866 0 2960.36246865 0 12258.98907490 0 831
0.02950000 0.02946900 53225.54503483 0 1910.88013982 0 13446.52353215 0 554.87483740 0 8659.85130041 0 996
0.03050000 0.03053250 51989.65295888 0 2218.19502486 0 13001.43379861 0 -2317.59433191 0 6177.60814981 0 1041
0.03150000 0.03150510 49835.96433548 0 3573.04018807 0 16022.89767125 0 -2353.14161813 0 5976.15873964 0 1036
0.03250000 0.03246190 44447.08447425 0 1658.65523002 0 14133.62318309 0 1506.83892619 0 7445.81997366 0 1059
0.03350000 0.03345080 45519.38139520 0 -1041.99466177 0 17604.28053213 0 1694.60179933 0 5172.75679750 0 1302
0.03450000 0.03451200 44332.17967386 0 683.06689173 0 15714.45148412 0 3331.20772981 0 1217.53614499 0 1339
0.03550000 0.03553350 44857.68058527 0 1363.97321830 0 14855.88192836 0 -1337.21016006 0 1540.12360823 0 1365
0.03650000 0.03647120 40494.07096993 0 1347.11459894 0 16975.18784122 0 43.45231502 0 5770.40594505 0 1308
0.03750000 0.03744890 41854.18445169 0 1296.72729120 0 18250.12093042 0 -187.05525477 0 3533.25606461 0 1579
0.03850000 0.03847530 40256.60844327 0 21.77523606 0 17346.29929111 0 -173.29662496 0 2306.43658778 0 1662
0.03950000 0.03950240 40587.23702430 0 273.23718242 0 19322.08511547 0 1467.75354814 0 2716.37831818 0 1683
0.04050000 0.04050350 40267.25599234 0 582.15141806 0 18099.94612374 0 -1858.64060219 0 -344.23637056 0 1822
0.04150000 0.04152450 40007.50015981 0 560.07660877 0 20721.23961049 0 836.51138327 0 2981.82393474 0 1887
0.04250000 0.04250150 39546.21727874 0 502.96692657 0 17951.98955645 0 1470.38216182 0 -1600.80354673 0 1920
0.04350000 0.04349210 39575.38712671 0 -1597.33200209 0 16815.25278123 0 1532.14903762 0 2634.73601744 0 2005
0.04450000 0.04448520 39996.18713892 0 430.04341575 0 14686.74117490 0 1603.39888682 0 -7380.82555954 0 2151
0.04550000 0.04548030 41424.06783404 0 -235.18328569 0 15044.87592436 0 -799.95147077 0 -1796.54099048 0 2274
0.04650000 0.04648670 41281.98960113 0 -333.94595803 0 14491.09246073 0 -538.45986592 0 -3085.74845015 0 2311
0.04750000 0.04749250 40966.66687189 0 484.28158707 0 12079.86624419 0 2280.01735665 0 -4764.10164594 0 2568
0.04850000 0.04851840 40066.72715152 0 911.48898376 0 13018.07059404 0 -150.74822156 0 -5465.55330574 0 2493
0.04950000 0.04949480 38725.24688063 0 2050.01920553 0 14286.12714113 0 -1713.05755105 0 -3852.46071278 0 2644
0.05050000 0.05050630 36364.15287429 0 2295.54503237 0 19044.13971995 0 -2157.67036311 0 -2276.74545355 0 2829
0.05150000 0.05149060 33412.89627834 0 1786.21508612 0 19093.71737030 0 -740.56254759 0 -3615.59711076 0 2784
0.05250000 0.05249300 32809.20242845 0 -355.55826441 0 20392.05288506 0 2326.67802221 0 -600.40531000 0 3055
0.05350000 0.05348950 33619.30345354 0 -247.38692969 0 17041.06955110 0 4368.84466030 0 -2033.14949497 0 3009
0.05450000 0.05448610 32939.74581653 0 -484.00319803 0 16625.81513736 0 2144.47183874 0 1256.83225578 0 3336
0.05550000 0.05550870 33055.20517676 0 -252.05965097 0 14055.76298051 0 4127.72203864 0 4032.16028574 0 3349
0.05650000 0.05647670 34084.91190143 0 -944.20136004 0 10509.02002041 0 4693.94982525 0 6730.99233035 0 3324
0.05750000 0.05747970 34769.23875314 0 -755.58557386 0 6737.78014288 0 4397.92577870 0 6102.08818979 0 3639
0.05850000 0.05849280 35484.73186827 0 -74.12945666 0 5843.14201464 0 1765.60764219 0 7854.15348051 0 3846
0.05950000 0.05951020 34649.67565003 0 270.91024930 0 3381.10702488 0 -317.13724906 0 7858.96705998 0 3787
0.06050000 0.06049470 34006.05349113 0 779.17654977 0 4959.20689146 0 -2310.16322995 0 7546.37276519 0 3930
0.06150000 0.06148310 33032.80095892 0 966.38486306 0 7898.67354506 0 -3221.53797438 0 3738.33229619 0 4083
0.06250000 0.06249100 32749.53178886 0 671.87254665 0 6896.37316804 0 -1553.11139986 0 33.25052116 0 4303
0.06350000 0.06350600 31756.31510215 0 525.94123193 0 9527.84837358 0 -2498.12574463 0 -1546.62304964 0 4470
0.06450000 0.06451750 31173.91635040 0 1420.54941393 0 11696.11082978 0 -1752.97476886 0 -2415.20795625 0 4479
0.06550000 0.06550280 30660.83757957 0 376.45407946 0 12930.67196209 0 -173.24005985 0 -1926.17490041 0 4636
0.06650000 0.06648880 29284.86368618 0 822.13497379 0 14876.06790680 0 -357.67002831 0 -2607.16330183 0 4653
0.06750000 0.06749660 28639.91058364 0 595.61834939 0 12885.19805460 0 -446.82994233 0 -3467.37435474 0 5220
0.06850000 0.06852730 28800.17837954 0 127.73287877 0 15986.29672132 0 1309.93690677 0 -1577.70058349 0 5029
0.06950000 0.06949320 28088.89991925 0 -151.86954157 0 13560.54103677 0 1208.04208040 0 -2114.49233339 0 5040
0.07050000 0.07048030 27904.34240203 0 432.73081277 0 14551.87222001 0 -218.90584505 0 -1934.40456854 0 5475
0.07150000 0.07148790 28206.79934281 0 524.93082388 0 12610.02545831 0 -355.96863869 0 -3747.58235444 0 5509
0.07250000 0.07249820 26929.64801422 0 275.38998375 0 13111.23664840 0 -124.94011538 0 -3158.87271163 0 5916
0.07350000 0.07351270 27066.18064866 0 24.46030393 0 11944.77546536 0 875.47253991 0 -3482.90203047 0 5721
0.07450000 0.07449140 26784.35333420 0 -202.38661631 0 11339.08520002 0 2136.84109524 0 -4913.58879841 0 6028
0.07550000 0.07549160 26687.30536090 0 -117.34375459 0 9435.38106463 0 1831.55589924 0 -3828.49263618 0 6183
0.07650000 0.07648840 26635.17673525 0 87.70086707 0 7385.45058867 0 1585.10950305 0 -4111.16288160 0 6330
0.07750000 0.07749960 26617.09808422 0 136.24759067 0 5875.76122487 0 1176.93127296 0 -1832.84247809 0 6583
0.07850000 0.07848650 25754.97934544 0 561.78687134 0 6074.08291750 0 298.26114097 0 -3264.23908263 0 6549
0.07950000 0.07947320 24498.34673120 0 905.51748332 0 6358.22829211 0 -598.22810804 0 -1133.17650100 0 6828
0.08050000 0.08048110 24260.77329257 0 603.63617567 0 6870.55286155 0 -660.91222583 0 -2799.86175761 0 7147
0.08150000 0.08149960 23168.51221711 0 491.34667952 0 7214.83470602 0 -7.48811071 0 -1840.36230962 0 7386
0.08250000 0.08250610 22571.14034948 0 450.04971681 0 7002.05009256 0 563.75888616 0 -2550.48728543 0 7227
0.08350000 0.08350160 22152.66948862 0 247.97254489 0 7306.78072872 0 493.12792575 0 -1041.95473346 0 7798
0.08450000 0.08449610 22227.86780393 0 161.65197728 0 6841.84884384 0 875.41930217 0 202.86353778 0 7371
0.08550000 0.08548940 21819.71175624 0 137.95230764 0 5946.21250788 0 657.60150354 0 -1152.64155165 0 8256
0.08650000 0.08650700 21273.58121851 0 326.29081390 0 7058.67065298 0 78.15045920 0 304.10952912 0 8037
0.08750000 0.08749060 21179.74969233 0 141.68893189 0 6353.51453341 0 79.25414421 0 1045.98083796 0 8155
0.08850000 0.08849210 20737.43275803 0 68.02674736 0 5664.19664308 0 1687.27051814 0 1718.47005516 0 8718
0.08950000 0.08949900 21014.04720992 0 -83.61254096 0 5804.62228764 0 717.49174882 0 1812.30158134 0 8571
0.09050000 0.09049190 20378.52162479 0 398.38692142 0 4661.47480058 0 -195.05089865 0 1816.47187139 0 8932
0.09150000 0.09150830 20265.28050394 0 363.92657250 0 5179.07877976 0 -251.36312380 0 1701.25651749 0 9285
0.09250000 0.09250820 19146.40055581 0 402.82118196 0 5116.73516171 0 -704.90989500 0 854.83182239 0 9204
0.09350000 0.09350330 19202.18927646 0 664.77196237 0 5467.97118667 0 -950.62094483 0 797.25630991 0 9349
0.09450000 0.09448040 18672.25188627 0 356.54094446 0 6480.88583916 0 -158.63628083 0 -607.65895280 0 9564
0.09550000 0.09549270 17991.58512956 0 171.04622110 0 5874.21954849 0 936.77691280 0 396.61343903 0 10155
0.09650000 0.09649430 17581.65449035 0 277.83448355 0 6229.06021245 0 399.11561306 0 239.70073021 0 9913
0.09750000 0.09749140 17387.44763179 0 412.67903781 0 6359.37068540 0 14.20871059 0 895.09175819 0 10476
0.09850000 0.09850240 16815.91825305 0 369.63632069 0 7124.04216780 0 -587.88778512 0 757.63744529 0 10575
0.09950000 0.09950330 16404.43484627 0 318.84307515 0 6981.93066130 0 -409.28845890 0 822.42001755 0 10882
0.10050000 0.10051200 16299.40121117 0 105.66860612 0 7433.55310983 0 -36.46230997 0 458.61544821 0 10875
0.10150000 0.10150300 16186.82556214 0 62.52717736 0 7600.89708939 0 124.65396250 0 -320.36700561 0 11118
0.10250000 0.10250800 16073.58444130 0 56.36302283 0 6957.09747133 0 543.88457035 0 341.03212376 0 11575
0.10350000 0.10349800 16175.17980535 0 8.74052867 0 6953.92538901 0 756.20889913 0 -476.90150462 0 11364
0.10450000 0.10450100 16061.82777254 0 78.79385954 0 6070.07899540 0 197.12051600 0 -32.25153705 0 12093
0.10550000 0.10551000 15750.83061011 0 273.06637798 0 6300.33224404 0 -79.45567126 0 -352.78546517 0 12067
0.10650000 0.10649700 15421.31114878 0 351.81942192 0 6063.90119870 0 81.54514185 0 380.33378015 0 12054
0.10750000 0.10749900 14969.23396117 0 329.73795791 0 6692.90516003 0 -448.47476684 0 -387.42881884 0 12807
0.10850000 0.10850100 14711.03089621 0 214.97845221 0 6617.87321267 0 582.38766055 0 411.51113477 0 12736
0.10950000 0.10950300 14785.67465168 0 -77.48543103 0 6390.40385446 0 753.97845942 0 -240.55031589 0 12933
0.11050000 0.11050200 14615.31386655 0 -218.62080129 0 5489.88739184 0 557.52341524 0 -43.38665513 0 13428
0.11150000 0.11150900 14809.29890118 0 31.44542885 0 5389.75606579 0 466.80962452 0 1258.88412721 0 13453
0.11250000 0.11250000 14884.16448058 0 14.02492945 0 4851.72210183 0 548.92884672 0 505.65654183 0 13668
0.11350000 0.11349100 14788.55836288 0 126.81341855 0 4773.27406582 0 169.59992901 0 1129.01730215 0 13791
0.11450000 0.11448600 14569.72904709 0 303.29432615 0 4439.28485212 0 188.25532228 0 1418.55299848 0 14205
0.11550000 0.11549300 14204.71775553 0 68.71517796 0 4296.15295550 0 1093.49885304 0 2143.25180708 0 14776
0.11650000 0.11649800 14125.08296144 0 23.50368819 0 3874.70965386 0 95.05111420 0 2154.47609839 0 14553
0.11750000 0.11747300 14047.88823068 0 252.66412120 0 3479.08665872 0 306.94443906 0 1782.48844394 0 14568
0.11850000 0.11849100 13341.93354493 0 411.40465928 0 3608.07727923 0 -356.84262501 0 2002.30487626 0 16015
0.11950000 0.11950300 13128.09526776 0 270.29357875 0 3581.82441605 0 -163.26352820 0 1974.77652543 0 15270
0.12050000 0.12050700 12551.57485040 0 164.65990989 0 4079.19805200 0 364.23601690 0 1937.65428925 0 15999
0.12150000 0.12150000 12714.72635750 0 -55.57432781 0 3219.76338287 0 907.87547180 0 1895.44119366 0 15670
0.12250000 0.12250700 12496.34068959 0 -61.38190036 0 2910.60735914 0 357.22748955 0 1720.49974420 0 16887
0.12350000 0.12352200 12587.62124048 0 76.97512506 0 2649.73131572 0 58.23765694 0 1885.86949070 0 16407
0.12450000 0.12449800 12612.35460967 0 -0.43582637 0 2675.29652468 0 14.53534634 0 1993.78683700 0 16306
0.12550000 0.12549900 12688.55113271 0 -53.44503982 0 2581.88646399 0 -269.77894721 0 1229.25954017 0 17523
0.12650000 0.12650100 12567.43526203 0 68.61901728 0 2419.44479348 0 -521.27738361 0 532.96306871 0 17154
0.12750000 0.12750600 12609.02725059 0 104.26390603 0 3170.59610680 0 -261.44724006 0 404.44493320 0 18007
0.12850000 0.12850300 12429.90441987 0 297.44593800 0 3355.46417753 0 -412.33077423 0 -245.11877991 0 17496
0.12950000 0.12949900 12347.94047443 0 123.32967359 0 3666.11751286 0 -319.68600612 0 97.67850784 0 18405
0.13050000 0.13049000 12163.38295721 0 85.97064034 0 3707.72059261 0 254.46422246 0 -940.70208740 0 18100
0.13150000 0.13148800 11974.38896121 0 105.27143036 0 4022.74385953 0 -37.70019846 0 344.93955245 0 19059
0.13250000 0.13249300 12084.85728281 0 55.86835544 0 3886.86560572 0 -49.46840207 0 -595.94886706 0 18957
0.13350000 0.13349100 12111.80889140 0 -90.26969919 0 4047.64359668 0 172.11541248 0 -276.81187519 0 19468
0.13450000 0.13450700 12004.44610494 0 12.03472507 0 3379.41007174 0 350.91216201 0 -146.33614342 0 19953
0.13550000 0.13551000 12057.24020241 0 123.97629037 0 3490.57713876 0 37.70341491 0 -163.74821350 0 19956
0.13650000 0.13649900 11889.65221653 0 118.15452109 0 3103.96019554 0 54.37570216 0 -213.68300040 0 19723
0.13750000 0.13749600 11852.71853069 0 148.83720833 0 3571.32105254 0 84.33823798 0 49.57742853 0 20946
0.13850000 0.13851100 11655.18431304 0 173.79461970 0 3401.93629275 0 -93.48681178 0 63.63773891 0 20955
0.13950000 0.13949800 11358.38388271 0 227.73887430 0 3470.25806595 0 99.37989746 0 25.65116574 0 20506
0.14050000 0.14048300 11367.14592829 0 -100.97658617 0 3276.25084893 0 305.85639264 0 454.45624935 0 21447
0.14150000 0.14148400 11285.40380679 0 46.40190794 0 3113.33225696 0 5.41855990 0 27.73619986 0 21771
0.14250000 0.14249400 11313.90818294 0 51.03769552 0 2946.02155099 0 239.76838651 0 28.76124828 0 22470
0.14350000 0.14350900 11148.53843644 0 210.78043416 0 3212.08827458 0 -174.27597765 0 -129.10818720 0 22519
0.14450000 0.14449900 10826.17279714 0 237.30503166 0 2992.61566937 0 -130.94932589 0 -238.07476073 0 22218
0.14550000 0.14550500 10595.86409251 0 139.56385856 0 3182.41932275 0 273.45456988 0 -18.50399843 0 23559
0.14650000 0.14650700 10394.23722319 0 89.63350814 0 3025.35688276 0 325.09074639 0 294.29381982 0 23044
0.14750000 0.14750500 10349.57297308 0 24.59650382 0 2432.13312279 0 577.76374055 0 395.02185227 0 23649
0.14850000 0.14849900 10349.82807061 0 -72.59742962 0 2483.18590234 0 563.93634531 0 1252.90597206 0 23640
0.14950000 0.14949500 10283.53598645 0 119.47437353 0 2050.64031256 0 -44.81353762 0 496.41313829 0 24457
0.15050000 0.15050000 10056.34390817 0 246.40203140 0 2199.76145553 0 -327.01395994 0 986.14715778 0 24591
0.15150000 0.15149900 9730.06307634 0 191.79119587 0 2353.64072199 0 -223.64844086 0 961.09658035 0 25020
0.15250000 0.15250500 9727.55646583 0 73.71375860 0 2575.85285285 0 168.42758950 0 683.43844683 0 25297
0.15350000 0.15350100 9657.12736521 0 19.20773487 0 2325.69090568 0 254.54851556 0 486.96343849 0 25452
0.15450000 0.15450400 9600.76190232 0 115.99839240 0 2446.32985488 0 -49.92802127 0 932.01768019 0 26061
0.15550000 0.15549900 9477.74943697 0 62.34472717 0 2029.47830878 0 181.20243014 0 1045.18005354 0 26128
0.15650000 0.15649500 9506.22053953 0 -38.72524688 0 2353.31907728 0 293.55958259 0 975.18018224 0 26331
0.15750000 0.15749700 9530.13316015 0 9.50675292 0 1987.10993644 0 -128.88303590 0 683.33973518 0 27345
0.15850000 0.15849900 9532.90595939 0 113.34315985 0 1907.59714552 0 -138.33384482 0 754.13706354 0 26980
0.15950000 0.15949700 9334.70626993 0 171.18597018 0 2414.71994358 0 -324.72695513 0 -45.18819825 0 27777
0.16050000 0.16050000 9137.77097691 0 169.07642452 0 2539.78428037 0 -442.15167546 0 580.03299944 0 28224
0.16150000 0.16150500 9044.94874965 0 79.09986566 0 2573.43497191 0 -5.32199994 0 -415.72024401 0 28075
0.16250000 0.16249700 9108.23511944 0 5.80508812 0 2847.18789499 0 297.48032071 0 -449.25004151 0 28590
0.16350000 0.16349900 8871.64879734 0 146.43596419 0 2483.38554389 0 174.73071672 0 48.78141333 0 29163
0.16450000 0.16449100 8760.08244724 0 146.24075912 0 2706.92861838 0 -6.28723354 0 310.42263843 0 28996
0.16550000 0.16550500 8617.95984954 0 102.07816385 0 2730.75250942 0 148.85273600 0 300.57143730 0 30777
0.16650000 0.16650700 8475.77070467 0 57.60368412 0 2711.57582990 0 32.55388307 0 184.64513767 0 29211
0.16750000 0.16749900 8424.10790928 0 63.56897348 0 2730.24231437 0 -128.69226731 0 756.42185011 0 30922
0.16850000 0.16850800 8418.10757173 0 51.02771345 0 2749.43008509 0 161.95033048 0 445.83949845 0 30867
0.16950000 0.16949900 8418.44030764 0 13.40992258 0 2656.63004022 0 149.57144556 0 1052.59784605 0 30852
0.17050000 0.17049200 8331.97333623 0 71.69615896 0 2743.84012182 0 338.24268773 0 670.00035261 0 31257
0.17150000 0.17149500 8370.90343752 0 25.57796384 0 2256.35983356 0 328.19628154 0 1139.22120334 0 32608
0.17250000 0.17250900 8294.20781062 0 -12.36191538 0 2422.40614307 0 360.59699518 0 1547.12215350 0 32361
0.17350000 0.17350400 8193.47755994 0 128.85087143 0 2016.97852982 0 133.40602601 0 1439.49317832 0 32508
0.17450000 0.17449800 8082.01103061 0 140.41011689 0 2131.62823268 0 -244.86035503 0 1452.54751713 0 32791
0.17550000 0.17549800 7886.16267490 0 168.32665960 0 1968.62091113 0 -204.80227901 0 1106.10399837 0 33633
0.17650000 0.17650100 7700.85095629 0 121.17909050 0 2137.20710474 0 50.08351985 0 1434.53541328 0 33984
0.17750000 0.17750300 7645.70552506 0 -66.48030177 0 1685.31846748 0 377.01751226 0 842.67254318 0 34069
0.17850000 0.17849800 7806.12859772 0 -132.91357687 0 1673.67271068 0 437.98693101 0 1185.98168967 0 34536
