### header ###
fiducial parameters:
Omega_m = 0.31
Omega_nu = 0
Omega_de = 0.69
Omega_k = 0
H_0 = 100
w_de = -1
zeff = 0
beta = 0
fgrowth = 0
b_1 = 2
gamma = 0.55
Lx = 3500 Ly = 3500 Lz = 3500
nx = 700 ny = 700 nz = 700
xoffset = 1379.75464 yoffset = 22.6059522 zoffset = 368.141391
bins = 400 dk = 0.001
kx_ny = 0.628318531 ky_ny = 0.628318531 kz_ny = 0.628318531
############################
A(data) = 3.33654606 (not used)
A(ran) = 3.33465012 (used)
Ngal = 186896
weighted Ngal = 0
Nran = 9399747
weighted Nran = 0
SN(data) = 6634.56648
SN(ran) = 132.636985
SN(data+ran) = 6767.20346
############################
13 columns: k_central k_mean P_0(k) sigma^{lin}_{P_0(k)} P^img_1(k) sigma^{lin}_{P_1(k)} P_2(k) sigma^{lin}_{P_2(k)} P^img_3(k) sigma^{lin}_{P_3(k)} P_4(k) sigma^{lin}_{P_4(k)} N_modes
### header ###
0.00050000 0 0 0 0 0 0 0 0 0 0 0 0
0.00150000 0.00179520 54596.74971353 0 -63868.76853831 0 -84278.78916243 0 61276.86672348 0 32959.82088300 0 3
0.00250000 0.00253879 68411.27916042 0 -36538.61740229 0 -21429.30162366 0 -84965.88881337 0 -17406.96813842 0 6
0.00350000 0.00331552 90117.86070779 0 643.66985105 0 -59831.46193719 0 -38025.83600107 0 -6275.77633400 0 7
0.00450000 0.00420575 84157.00781994 0 11034.79821174 0 -26021.27898416 0 -62724.93339704 0 801.91793999 0 24
0.00550000 0.00557378 75786.70330705 0 -5230.05392093 0 -22661.42269264 0 -6850.57761584 0 -11702.87645992 0 45
0.00650000 0.00659388 68360.92512628 0 -18073.10542713 0 -14494.97437966 0 -3059.79504929 0 -472.32860412 0 40
0.00750000 0.00754703 97074.70308159 0 -8174.16778605 0 -26257.18874325 0 -15852.09323825 0 -47369.61487010 0 57
0.00850000 0.00846663 102557.74720492 0 2971.68658073 0 -22024.89889978 0 -42408.41156319 0 -22338.89068538 0 75
0.00950000 0.00948925 90708.68876922 0 8642.87067789 0 -8267.82185308 0 -32290.79988309 0 -24073.77571203 0 112
0.01050000 0.01054430 83552.64849823 0 9276.46639475 0 9994.07792850 0 -20857.77224492 0 -20147.27016842 0 105
0.01150000 0.01145670 85623.37496846 0 2704.53291984 0 39397.15159175 0 -10148.37866044 0 -35520.44552244 0 144
0.01250000 0.01249090 80009.56563312 0 345.49300318 0 25494.22530518 0 3289.60465006 0 -43756.54655225 0 169
0.01350000 0.01339930 82648.05047513 0 873.01140331 0 46235.42907018 0 -6461.40969732 0 -33632.83471382 0 180
0.01450000 0.01448870 79746.03879363 0 2840.87700392 0 45510.95208552 0 -7430.43648349 0 -34310.95049524 0 267
0.01550000 0.01550050 85541.85467089 0 2681.21922385 0 55561.24020015 0 -6865.81692045 0 -42269.10612952 0 238
0.01650000 0.01653350 79551.27737522 0 984.60104492 0 50709.95065500 0 5448.94978390 0 -31386.31277196 0 315
0.01750000 0.01747870 83343.35761182 0 -1560.18758351 0 54977.73232871 0 8854.11361496 0 -19856.68080837 0 297
0.01850000 0.01844180 78462.78730672 0 2651.83864314 0 45523.04149019 0 10411.99422951 0 -9109.16677998 0 388
0.01950000 0.01947590 81520.29756944 0 -1527.77910603 0 39191.63171230 0 12561.77875159 0 -16673.61819620 0 399
0.02050000 0.02045430 82256.30939892 0 566.17122150 0 50955.39884346 0 -214.55698672 0 3607.38962502 0 462
0.02150000 0.02154770 78337.45678120 0 3131.55509354 0 28501.49244573 0 3112.68896753 0 -2075.32931697 0 571
0.02250000 0.02255340 81287.82608140 0 1480.98534610 0 51363.11124328 0 2390.53004304 0 4631.91676071 0 510
0.02350000 0.02348930 73372.81520324 0 4839.31105245 0 46231.87988715 0 -15316.16660171 0 -7451.01065383 0 555
0.02450000 0.02439640 74939.89042006 0 5222.30117427 0 54108.40431190 0 909.67335482 0 -15110.42489832 0 592
0.02550000 0.02547300 68833.29920430 0 2206.56035926 0 60734.06354483 0 -4284.35192195 0 -6775.84513081 0 837
0.02650000 0.02652900 65381.16415417 0 2994.45680807 0 53020.91245113 0 5891.20017102 0 -28408.99186318 0 723
0.02750000 0.02749970 70801.54301473 0 -3753.09467932 0 58599.34086821 0 14324.83541848 0 1274.51162371 0 826
0.02850000 0.02848090 68765.31016701 0 -1547.82089891 0 41665.19045569 0 13872.53640693 0 -24401.07693397 0 831
0.02950000 0.02946900 69463.27919096 0 3623.37203982 0 42554.37171503 0 800.10009281 0 4021.01363281 0 996
0.03050000 0.03053250 63866.77212286 0 5029.18125301 0 38152.05382234 0 1893.88842609 0 -1939.63961350 0 1041
0.03150000 0.03150510 58985.86908185 0 2242.89512046 0 39379.18385269 0 9895.12226933 0 1892.29129373 0 1036
0.03250000 0.03246190 56800.12689927 0 1870.41945335 0 41878.36326104 0 5214.37096845 0 10652.60665610 0 1059
0.03350000 0.03345080 52697.93679600 0 1433.03810170 0 23139.34236914 0 6329.10280893 0 -2783.67970126 0 1302
0.03450000 0.03451200 49528.18362017 0 2246.78813059 0 33287.89848873 0 3662.30214111 0 12993.00448893 0 1339
0.03550000 0.03553350 45653.36305433 0 2313.32422108 0 18850.59833320 0 303.97199828 0 1507.30475646 0 1365
0.03650000 0.03647120 45569.18086950 0 52.17875787 0 25576.52198654 0 10126.52900245 0 11491.81098199 0 1308
0.03750000 0.03744890 43038.72428576 0 -955.48665293 0 15255.05410652 0 2593.31039684 0 2755.74097615 0 1579
0.03850000 0.03847530 43993.78725497 0 1444.31784899 0 15083.25146580 0 1374.80931772 0 4467.60067793 0 1662
0.03950000 0.03950240 42602.61842176 0 1466.92170837 0 17042.17867079 0 -1445.75970459 0 4239.25511516 0 1683
0.04050000 0.04050350 39470.79713949 0 1064.27354908 0 16273.33689834 0 -2719.79440684 0 4198.39514560 0 1822
0.04150000 0.04152450 40168.87707541 0 -608.25233184 0 16001.93530902 0 4149.05041038 0 5572.62772107 0 1887
0.04250000 0.04250150 41892.33816919 0 -889.21675117 0 14223.46187837 0 2634.69165266 0 -812.04309368 0 1920
0.04350000 0.04349210 41266.46192540 0 245.85634451 0 18055.24860004 0 -2.22264259 0 4651.24871699 0 2005
0.04450000 0.04448520 41734.28861268 0 516.05786633 0 12955.29441931 0 455.39123726 0 257.57530321 0 2151
0.04550000 0.04548030 41261.91453466 0 921.60526450 0 20907.01715937 0 -1219.46601326 0 8138.34321991 0 2274
0.04650000 0.04648670 40280.01086883 0 -171.21813465 0 14936.40401820 0 3847.80241007 0 5677.28425548 0 2311
0.04750000 0.04749250 41338.55470557 0 118.60815104 0 17545.27536436 0 -664.78416268 0 2533.58430128 0 2568
0.04850000 0.04851840 39974.22656897 0 1974.93180219 0 19771.61132778 0 -3393.86190137 0 3324.90792994 0 2493
0.04950000 0.04949480 39179.09865975 0 1771.13105827 0 19893.39267027 0 -2153.10078997 0 -1739.97588604 0 2644
0.05050000 0.05050630 36561.46526800 0 885.18621020 0 23172.39413604 0 -1285.31444954 0 1049.66533358 0 2829
0.05150000 0.05149060 36132.90141792 0 489.08185711 0 23159.08469971 0 -747.52227368 0 -3590.66410002 0 2784
0.05250000 0.05249300 35985.27758654 0 1170.33201078 0 25401.94654658 0 596.14850861 0 -5075.64227702 0 3055
0.05350000 0.05348950 34699.80786024 0 470.37211698 0 24245.91108866 0 1894.12134123 0 -2905.10612545 0 3009
0.05450000 0.05448610 33538.33771582 0 -101.41313568 0 21721.55466325 0 2171.93364239 0 -2404.54931598 0 3336
0.05550000 0.05550870 34303.18665737 0 94.71460728 0 21384.60409996 0 2875.86973030 0 -371.87341512 0 3349
0.05650000 0.05647670 34025.90673367 0 -80.00867834 0 18997.55669276 0 2889.87791204 0 -876.21010451 0 3324
0.05750000 0.05747970 34033.78148350 0 341.04543320 0 18567.44007511 0 1757.08960293 0 -554.14170929 0 3639
0.05850000 0.05849280 33141.38377704 0 202.54078395 0 14938.51134562 0 1362.46481551 0 864.69078736 0 3846
0.05950000 0.05951020 33238.32083837 0 -118.88099449 0 16280.65708833 0 2381.93436540 0 2834.07810019 0 3787
0.06050000 0.06049470 33318.39928034 0 416.21602052 0 11066.23066389 0 954.52504616 0 -729.77746768 0 3930
0.06150000 0.06148310 32493.32513936 0 60.97496434 0 12318.77062645 0 1286.63430198 0 834.36301842 0 4083
0.06250000 0.06249100 31152.73216423 0 838.09409708 0 11362.48762558 0 -570.67092010 0 -2579.41312707 0 4303
0.06350000 0.06350600 30336.08733293 0 1418.69718404 0 12127.11474319 0 -1631.42634151 0 -2096.19185843 0 4470
0.06450000 0.06451750 29237.39336324 0 592.75460234 0 13066.42821273 0 -1243.04589797 0 -2204.40866705 0 4479
0.06550000 0.06550280 28304.62369989 0 -226.81497759 0 11149.20390826 0 3071.82899798 0 -3620.87652050 0 4636
0.06650000 0.06648880 28888.35339528 0 -390.69628546 0 10901.79257794 0 1090.95120510 0 -3564.98797908 0 4653
0.06750000 0.06749660 29267.45050697 0 -268.85948698 0 7548.49118381 0 1252.02976750 0 -3278.66872986 0 5220
0.06850000 0.06852730 28895.89540920 0 268.40807527 0 8941.05750784 0 1313.05353311 0 -2780.06397106 0 5029
0.06950000 0.06949320 28891.23710649 0 525.74159038 0 8002.03240942 0 -2359.10868208 0 -2888.75770115 0 5040
0.07050000 0.07048030 28146.35231944 0 470.07820026 0 9717.95148928 0 494.16938915 0 -1578.29950813 0 5475
0.07150000 0.07148790 28210.90308568 0 167.38945346 0 8927.28224123 0 331.00457260 0 -3250.61909278 0 5509
0.07250000 0.07249820 27085.92297922 0 173.65487062 0 8833.96091011 0 472.85321773 0 -1178.29549019 0 5916
0.07350000 0.07351270 27420.32256721 0 753.26862282 0 9381.11183796 0 626.39531181 0 -1744.64527996 0 5721
0.07450000 0.07449140 27060.30231427 0 239.17611659 0 8701.87584565 0 397.01161300 0 -1022.49744666 0 6028
0.07550000 0.07549160 26095.81182766 0 517.34444517 0 9826.14611551 0 667.35177478 0 568.52366437 0 6183
0.07650000 0.07648840 25089.17479264 0 934.96572034 0 9266.81705341 0 -492.90055622 0 39.84523595 0 6330
0.07750000 0.07749960 23764.22040520 0 974.63893183 0 9022.82181174 0 -433.84991454 0 -234.69305478 0 6583
0.07850000 0.07848650 23178.82703027 0 488.05370315 0 10207.20636906 0 728.53081714 0 -399.28087190 0 6549
0.07950000 0.07947320 22389.24471953 0 195.58327610 0 9027.19174334 0 962.12584343 0 -47.38658440 0 6828
0.08050000 0.08048110 21849.54707603 0 522.44195929 0 8778.69347572 0 -242.83066598 0 -812.89933409 0 7147
0.08150000 0.08149960 20782.79575355 0 339.23091338 0 8340.63556105 0 -550.73449358 0 -1525.92687614 0 7386
0.08250000 0.08250610 21195.83192790 0 125.21739531 0 8154.30345232 0 790.50953481 0 -1620.70115406 0 7227
0.08350000 0.08350160 20858.77045264 0 -197.29575691 0 8597.41895279 0 1723.80492089 0 -1089.68791777 0 7798
0.08450000 0.08449610 20822.94588650 0 49.82686955 0 6472.52307667 0 134.99983101 0 -1138.88846743 0 7371
0.08550000 0.08548940 21417.10130702 0 -225.07920527 0 6843.35724663 0 1070.16962938 0 -473.93682767 0 8256
0.08650000 0.08650700 20799.09981306 0 -8.90657498 0 6428.39120401 0 -42.81179840 0 580.29142433 0 8037
0.08750000 0.08749060 21277.90678532 0 432.90605368 0 6385.54591020 0 224.10761642 0 427.77748422 0 8155
0.08850000 0.08849210 20757.06417663 0 270.59193195 0 7263.79124935 0 -292.15432793 0 994.27367778 0 8718
0.08950000 0.08949900 20444.73607057 0 218.25479179 0 7615.60401654 0 593.35130874 0 1789.68663076 0 8571
0.09050000 0.09049190 19838.93489326 0 157.17113371 0 7503.31673864 0 725.69036160 0 2583.76087627 0 8932
0.09150000 0.09150830 20224.68672311 0 255.08532949 0 7878.66502576 0 100.78060472 0 3705.71308596 0 9285
0.09250000 0.09250820 19477.25096077 0 348.97563902 0 6716.87323663 0 668.83466781 0 3010.69432040 0 9204
0.09350000 0.09350330 19500.87521027 0 487.54905369 0 7599.13358907 0 -206.21307926 0 3852.83781348 0 9349
0.09450000 0.09448040 18418.70712404 0 282.94752535 0 7772.99919244 0 -332.43977349 0 2982.23430903 0 9564
0.09550000 0.09549270 18294.26389428 0 479.86063596 0 8126.71964551 0 -240.36398378 0 3146.97185730 0 10155
0.09650000 0.09649430 17796.26915130 0 60.20312795 0 8547.77475525 0 324.57056925 0 2424.40255852 0 9913
0.09750000 0.09749140 17891.32070915 0 -86.24281832 0 7274.68280475 0 497.02869972 0 2207.33674304 0 10476
0.09850000 0.09850240 17886.88423037 0 13.71759239 0 7805.87350019 0 213.34360978 0 890.32587086 0 10575
0.09950000 0.09950330 17872.02202646 0 373.23985058 0 7314.93275847 0 -499.60962125 0 1856.15617407 0 10882
0.10050000 0.10051200 17336.76086174 0 207.40538293 0 7892.35156279 0 -555.25970194 0 186.77353837 0 10875
0.10150000 0.10150300 17478.72818267 0 255.26833424 0 8460.97504794 0 -337.96762605 0 -128.94514660 0 11118
0.10250000 0.10250800 16984.61535863 0 150.99999173 0 7407.51097940 0 338.91037779 0 -366.14370277 0 11575
0.10350000 0.10349800 17035.63486459 0 -178.45624978 0 7740.16924947 0 503.98288021 0 -1524.29647019 0 11364
0.10450000 0.10450100 17094.52912039 0 -122.72298511 0 6872.90419530 0 1187.50118366 0 -31.72681252 0 12093
0.10550000 0.10551000 17356.72501624 0 275.59628001 0 6417.82129332 0 444.45975355 0 -601.17725730 0 12067
0.10650000 0.10649700 16422.62440926 0 271.50695569 0 5627.14095407 0 95.89970168 0 371.41867604 0 12054
0.10750000 0.10749900 16375.37591026 0 233.04046644 0 5628.31662095 0 156.22838197 0 -165.90656043 0 12807
0.10850000 0.10850100 15849.76408689 0 200.61978864 0 6385.06898873 0 15.83922745 0 183.05133267 0 12736
0.10950000 0.10950300 15508.82069270 0 471.54667473 0 5825.60683227 0 -485.54820176 0 -1017.09603374 0 12933
0.11050000 0.11050200 15236.86454353 0 335.95457380 0 6419.42951687 0 -616.37552448 0 -1159.04117229 0 13428
0.11150000 0.11150900 14637.05261257 0 156.73857703 0 6481.61785816 0 166.72398165 0 -810.17644524 0 13453
0.11250000 0.11250000 14656.90585511 0 11.28019094 0 6389.57201469 0 638.73205017 0 -1628.07680003 0 13668
0.11350000 0.11349100 14559.63605787 0 154.11883631 0 6118.82480599 0 78.88891109 0 -1374.96459447 0 13791
0.11450000 0.11448600 14496.08349936 0 146.06440909 0 6382.35164548 0 263.80190117 0 -1056.20470330 0 14205
0.11550000 0.11549300 13989.99218261 0 191.38193070 0 5431.78061103 0 471.36034262 0 -318.81423804 0 14776
0.11650000 0.11649800 14115.76635600 0 -1.89636176 0 5286.14210390 0 566.22556836 0 -355.52609994 0 14553
0.11750000 0.11747300 13960.82233464 0 -4.93980839 0 5519.52307009 0 466.25617379 0 -441.31872657 0 14568
0.11850000 0.11849100 14098.79682467 0 68.79414728 0 4353.05079584 0 347.94304858 0 -178.02702046 0 16015
0.11950000 0.11950300 13651.37793978 0 90.00373229 0 4990.02932778 0 101.41357933 0 77.12130704 0 15270
0.12050000 0.12050700 13738.44383582 0 117.14411305 0 4107.78006653 0 -130.34263742 0 -220.10813080 0 15999
0.12150000 0.12150000 13746.76223354 0 76.19752124 0 4755.98288978 0 439.61733696 0 -304.47886598 0 15670
0.12250000 0.12250700 13050.78962503 0 388.34273347 0 4084.27782020 0 -106.91880584 0 -274.52265214 0 16887
0.12350000 0.12352200 12992.67175303 0 351.35470076 0 4546.51454421 0 -183.98410234 0 400.92680552 0 16407
0.12450000 0.12449800 12450.09039832 0 257.03959839 0 5344.13797274 0 257.38231638 0 221.30930743 0 16306
0.12550000 0.12549900 12348.38412230 0 -10.50382934 0 4204.55075990 0 516.93074352 0 781.34709701 0 17523
0.12650000 0.12650100 12214.06972726 0 -99.09263545 0 4131.11594491 0 700.01202243 0 1017.91678232 0 17154
0.12750000 0.12750600 12447.09577514 0 -17.39787336 0 3676.13286370 0 334.78667076 0 843.86151949 0 18007
0.12850000 0.12850300 12329.75091143 0 151.98599914 0 3416.17738963 0 0.49816111 0 926.57633897 0 17496
0.12950000 0.12949900 12060.23482559 0 196.50051809 0 3267.97681601 0 -282.46727652 0 860.48611459 0 18405
0.13050000 0.13049000 12084.63545887 0 30.03673593 0 3680.32533615 0 56.42524444 0 685.90623815 0 18100
0.13150000 0.13148800 11947.77008853 0 -38.52771266 0 3042.39296128 0 278.50106449 0 270.85479331 0 19059
0.13250000 0.13249300 12071.54784648 0 -47.36284924 0 3622.00782259 0 101.82350997 0 324.80015703 0 18957
0.13350000 0.13349100 12294.14816923 0 -117.82511254 0 2977.49836793 0 223.43438076 0 -23.82333648 0 19468
0.13450000 0.13450700 12361.13899879 0 -73.33643608 0 3200.59779455 0 52.73808693 0 520.44887120 0 19953
0.13550000 0.13551000 12446.31939136 0 -2.17465099 0 2715.96794389 0 23.20067669 0 331.15874024 0 19956
0.13650000 0.13649900 12607.14174711 0 102.32217018 0 3278.63545627 0 10.10957056 0 252.20827300 0 19723
0.13750000 0.13749600 12248.11970189 0 336.91950794 0 3251.99440120 0 -325.68523455 0 189.09603501 0 20946
0.13850000 0.13851100 11982.37462301 0 256.78671910 0 3857.40738662 0 -224.44367968 0 731.83932119 0 20955
0.13950000 0.13949800 11733.82089940 0 130.00546503 0 3972.15691025 0 273.46011548 0 652.42967840 0 20506
0.14050000 0.14048300 11452.32632086 0 35.17118373 0 3733.37453115 0 377.99464671 0 784.96837281 0 21447
0.14150000 0.14148400 11615.92147584 0 113.95206657 0 3694.71061859 0 -6.26800140 0 688.28973637 0 21771
0.14250000 0.14249400 11270.98525075 0 142.29783861 0 3363.36110976 0 40.08236574 0 549.71521258 0 22470
0.14350000 0.14350900 11265.99421213 0 116.12039557 0 3703.11774588 0 12.86623211 0 917.79100187 0 22519
0.14450000 0.14449900 11091.41877216 0 59.23763925 0 3007.53332927 0 97.04531141 0 274.76554936 0 22218
0.14550000 0.14550500 11053.46469620 0 76.22913115 0 3229.72327773 0 335.11829755 0 296.28247144 0 23559
0.14650000 0.14650700 10810.35675030 0 57.78513610 0 2952.05516213 0 203.59555678 0 136.75002189 0 23044
0.14750000 0.14750500 10705.10129126 0 307.69642222 0 2882.45790128 0 -294.74412242 0 635.77846442 0 23649
0.14850000 0.14849900 10430.50543721 0 56.99322464 0 2780.44107175 0 465.10934402 0 758.53250489 0 23640
0.14950000 0.14949500 10432.34657591 0 -54.90985420 0 2502.29603469 0 452.98888400 0 741.18698198 0 24457
0.15050000 0.15050000 10319.94838603 0 197.23031885 0 2254.20814135 0 62.44144240 0 686.89224556 0 24591
0.15150000 0.15149900 10144.65201827 0 234.02092825 0 2357.36736416 0 -22.48473993 0 883.69444421 0 25020
0.15250000 0.15250500 9613.61659958 0 228.84466663 0 2813.21555873 0 -314.27572025 0 910.20905963 0 25297
0.15350000 0.15350100 9490.79268458 0 113.85224579 0 2466.80420445 0 41.48640036 0 899.09457117 0 25452
0.15450000 0.15450400 9621.92390610 0 -1.71158242 0 2469.44390932 0 365.59690676 0 385.72742923 0 26061
0.15550000 0.15549900 9333.76351819 0 28.70656868 0 2320.61113748 0 -211.80082428 0 49.05935873 0 26128
0.15650000 0.15649500 9454.35810260 0 139.20339466 0 2531.97607772 0 -123.09564933 0 -48.04717609 0 26331
0.15750000 0.15749700 9357.05503178 0 58.96945411 0 2382.78838757 0 -271.03447070 0 -408.30688797 0 27345
0.15850000 0.15849900 9197.36397812 0 113.37421520 0 2517.40224493 0 -60.76600619 0 -191.23552690 0 26980
0.15950000 0.15949700 9102.76715935 0 110.92084244 0 2409.09670673 0 232.78315067 0 -399.59142541 0 27777
0.16050000 0.16050000 8987.45198467 0 164.99375492 0 2817.82949667 0 86.40674621 0 91.65332601 0 28224
0.16150000 0.16150500 8784.01725025 0 140.26149485 0 2461.28078837 0 -87.93400403 0 -186.76133805 0 28075
0.16250000 0.16249700 8757.58692792 0 45.64925931 0 2721.32499202 0 184.40778606 0 85.47109283 0 28590
0.16350000 0.16349900 8486.21861219 0 68.27918300 0 2763.97064428 0 31.16814893 0 137.28350847 0 29163
0.16450000 0.16449100 8555.48313713 0 96.32183263 0 2596.88176226 0 131.18224102 0 136.18547997 0 28996
0.16550000 0.16550500 8475.30487439 0 27.76004593 0 2728.83373235 0 136.37181208 0 353.56295808 0 30777
0.16650000 0.16650700 8366.31168198 0 48.38989408 0 2240.05577404 0 26.79167352 0 -228.02946366 0 29211
0.16750000 0.16749900 8397.74413413 0 190.16078992 0 2676.36127959 0 -204.39301384 0 145.53314076 0 30922
0.16850000 0.16850800 8066.54990206 0 135.32591220 0 2534.29413788 0 -138.41481055 0 -65.50338914 0 30867
0.16950000 0.16949900 7900.15976545 0 173.48961178 0 2886.08472268 0 23.73316505 0 264.07585374 0 30852
0.17050000 0.17049200 7939.57787940 0 1.34267812 0 2752.33597869 0 36.49014887 0 -394.58485911 0 31257
0.17150000 0.17149500 7801.40374782 0 -24.91127199 0 2635.23512131 0 366.68384407 0 -152.85665810 0 32608
0.17250000 0.17250900 7915.92035631 0 91.59054984 0 2320.83296142 0 88.35979508 0 282.25765290 0 32361
0.17350000 0.17350400 7750.63933939 0 -10.02548820 0 2491.83703596 0 18.07177448 0 -192.28919061 0 32508
0.17450000 0.17449800 7861.75095041 0 147.06261682 0 2366.36232489 0 -62.46750672 0 211.17417165 0 32791
0.17550000 0.17549800 7632.00789683 0 115.72443984 0 2527.50632535 0 -87.98946001 0 -154.45046310 0 33633
0.17650000 0.17650100 7503.42765061 0 76.84890724 0 2466.18309742 0 99.51232635 0 192.93691651 0 33984
0.17750000 0.17750300 7419.88875519 0 44.89527974 0 2561.96667427 0 165.11686721 0 385.02535646 0 34069
0.17850000 0.17849800 7511.64622755 0 -90.48043194 0 2391.32860922 0 520.08286170 0 662.73450949 0 34536
