### header ###
fiducial parameters:
Omega_m = 0.31
Omega_nu = 0
Omega_de = 0.69
Omega_k = 0
H_0 = 100
w_de = -1
zeff = 0
beta = 0
fgrowth = 0
b_1 = 2
gamma = 0.55
Lx = 3500 Ly = 3500 Lz = 3500
nx = 700 ny = 700 nz = 700
xoffset = 1379.75464 yoffset = 22.6059522 zoffset = 368.141391
bins = 400 dk = 0.001
kx_ny = 0.628318531 ky_ny = 0.628318531 kz_ny = 0.628318531
############################
A(data) = 3.33010125 (not used)
A(ran) = 3.32956514 (used)
Ngal = 187096
weighted Ngal = 0
Nran = 9399747
weighted Nran = 0
SN(data) = 6695.0557
SN(ran) = 132.434728
SN(data+ran) = 6827.49043
############################
13 columns: k_central k_mean P_0(k) sigma^{lin}_{P_0(k)} P^img_1(k) sigma^{lin}_{P_1(k)} P_2(k) sigma^{lin}_{P_2(k)} P^img_3(k) sigma^{lin}_{P_3(k)} P_4(k) sigma^{lin}_{P_4(k)} N_modes
### header ###
0.00050000 0 0 0 0 0 0 0 0 0 0 0 0
0.00150000 0.00179520 25340.39040351 0 -28238.18743017 0 -41396.67257758 0 31006.55018845 0 -4922.62812392 0 3
0.00250000 0.00253879 47873.26612352 0 -28576.13620119 0 -26582.38263777 0 -23511.34111478 0 13248.32384268 0 6
0.00350000 0.00331552 64339.14620088 0 -15487.41468259 0 -24988.79946025 0 -46755.05164720 0 -37429.46234117 0 7
0.00450000 0.00420575 74186.57632333 0 2431.34564781 0 -14662.67327752 0 -49153.52298725 0 6074.53765657 0 24
0.00550000 0.00557378 56022.96672911 0 13329.84414025 0 13481.79353844 0 -34708.68081780 0 638.32167588 0 45
0.00650000 0.00659388 42856.82865581 0 9076.01519231 0 17838.52661167 0 13090.16337420 0 2209.04478737 0 40
0.00750000 0.00754703 44733.45917945 0 -4213.24625831 0 36528.74623700 0 8818.89906465 0 -30587.30294381 0 57
0.00850000 0.00846663 45282.58434036 0 1283.09621015 0 34023.68849428 0 -4349.23542409 0 -15881.37399819 0 75
0.00950000 0.00948925 48921.71697104 0 2117.22076784 0 27839.79163579 0 15933.61353582 0 -11627.89996855 0 112
0.01050000 0.01054430 52321.27974764 0 -11738.92285000 0 23519.43768855 0 4638.74893803 0 11638.21478171 0 105
0.01150000 0.01145670 63153.27542318 0 -11773.63829645 0 -4177.77661047 0 24729.37636364 0 -5013.60921249 0 144
0.01250000 0.01249090 83414.34127228 0 -9031.41748938 0 4024.82900456 0 -3871.62630111 0 -1518.31831503 0 169
0.01350000 0.01339930 86175.82748845 0 -2445.23182639 0 -35143.23391423 0 -5329.66396073 0 -16157.32297826 0 180
0.01450000 0.01448870 85954.55810934 0 7767.17631404 0 8374.86299483 0 -12903.72035350 0 4004.26592541 0 267
0.01550000 0.01550050 70169.56661263 0 10772.56904229 0 17903.96467367 0 -20855.44309356 0 -18742.34825098 0 238
0.01650000 0.01653350 63520.17221823 0 10750.25355403 0 37596.60667918 0 375.18081005 0 17084.65795510 0 315
0.01750000 0.01747870 52459.14332570 0 4683.97883919 0 35120.38604852 0 7461.95766522 0 -14869.41318863 0 297
0.01850000 0.01844180 51354.79284557 0 228.45869298 0 42172.61271607 0 10691.41475422 0 19972.80564042 0 388
0.01950000 0.01947590 56916.69537919 0 -3695.53136716 0 29281.64723906 0 14502.18365768 0 13652.37614751 0 399
0.02050000 0.02045430 56343.94596879 0 -4645.65875373 0 28900.55371192 0 8281.23111019 0 18823.86854855 0 462
0.02150000 0.02154770 63207.17864035 0 -2906.66998422 0 13916.34663487 0 7269.14829747 0 18932.11863077 0 571
0.02250000 0.02255340 67948.77624768 0 1116.85025910 0 18204.86884687 0 7389.69851710 0 19070.64768065 0 510
0.02350000 0.02348930 67554.37328420 0 -2995.84320768 0 13856.45417135 0 2724.34179759 0 25695.86326570 0 555
0.02450000 0.02439640 67324.00912359 0 2561.48975280 0 17145.88136226 0 3305.52051768 0 16908.30792363 0 592
0.02550000 0.02547300 66348.53835199 0 3246.03842844 0 17688.24089303 0 -5688.37545243 0 15607.97599342 0 837
0.02650000 0.02652900 57636.51406113 0 5082.54100152 0 27790.65763331 0 -5360.61949141 0 4400.83167230 0 723
0.02750000 0.02749970 55368.25337325 0 5383.07916523 0 32987.99252325 0 -9611.48708977 0 10221.90220501 0 826
0.02850000 0.02848090 53192.93691580 0 680.56804506 0 38204.40427194 0 -108.28479766 0 1291.98025891 0 831
0.02950000 0.02946900 50450.19482247 0 -524.01690926 0 33560.29828578 0 1168.15813618 0 -5334.76591132 0 996
0.03050000 0.03053250 52749.28903787 0 -1670.15680125 0 27988.41367490 0 8182.08690067 0 -3512.08296964 0 1041
0.03150000 0.03150510 55014.00054273 0 -2149.10795907 0 24723.16529334 0 6343.05553469 0 -13179.44750963 0 1036
0.03250000 0.03246190 58442.17860745 0 -2162.71685772 0 21543.54095223 0 6334.81477536 0 3941.38992991 0 1059
0.03350000 0.03345080 55111.82489981 0 1500.67222069 0 15332.13792531 0 -1902.29555338 0 -19015.30260788 0 1302
0.03450000 0.03451200 56736.68525272 0 2849.36176959 0 18133.99609837 0 -3481.75963718 0 1214.19769471 0 1339
0.03550000 0.03553350 49596.06174549 0 782.90097370 0 16130.81501756 0 4189.65528240 0 -10048.70207347 0 1365
0.03650000 0.03647120 52288.44980467 0 2335.75062131 0 21532.89340316 0 -1036.29933214 0 -133.16423792 0 1308
0.03750000 0.03744890 48390.22681328 0 597.12231570 0 13972.35717946 0 3114.81847735 0 -6160.32806497 0 1579
0.03850000 0.03847530 47321.58998732 0 1838.99809239 0 19688.53826264 0 2294.14754156 0 2894.86895067 0 1662
0.03950000 0.03950240 44658.81542399 0 935.58017265 0 13986.44299959 0 1835.65964211 0 2416.22834637 0 1683
0.04050000 0.04050350 43854.03817342 0 20.13396073 0 16054.95123043 0 4266.08472057 0 251.26330302 0 1822
0.04150000 0.04152450 43026.08032124 0 1709.97419830 0 13614.44425394 0 -1002.51443712 0 6308.72828013 0 1887
0.04250000 0.04250150 40748.39211595 0 1207.47642936 0 13016.85056237 0 -92.83542578 0 1827.20815004 0 1920
0.04350000 0.04349210 38692.41693766 0 2095.16037711 0 18663.04619280 0 -2641.53492117 0 4292.50395170 0 2005
0.04450000 0.04448520 37887.86151104 0 1003.44720678 0 17770.09392650 0 1212.74474791 0 5679.41376529 0 2151
0.04550000 0.04548030 37506.32433602 0 198.90508959 0 23577.22282465 0 -143.09307743 0 6275.12195338 0 2274
0.04650000 0.04648670 36688.57038503 0 820.30159893 0 17853.16699165 0 -1349.47702389 0 190.84511677 0 2311
0.04750000 0.04749250 37277.06929510 0 462.87668608 0 25564.09984596 0 258.29068541 0 3237.24310926 0 2568
0.04850000 0.04851840 35686.48074075 0 911.15624785 0 23793.50116514 0 -2240.00031806 0 1822.40566176 0 2493
0.04950000 0.04949480 36981.15616052 0 -98.67638283 0 25005.87990355 0 1182.13304433 0 220.87342339 0 2644
0.05050000 0.05050630 37468.28153049 0 -1154.53814633 0 23423.38792298 0 3337.61844164 0 -2885.84071635 0 2829
0.05150000 0.05149060 37948.75218228 0 233.54511590 0 20173.55630518 0 -921.24147324 0 -5606.72206049 0 2784
0.05250000 0.05249300 36948.99168937 0 291.18606644 0 20872.19080095 0 581.93624884 0 -5321.13483027 0 3055
0.05350000 0.05348950 37146.96955490 0 261.96408984 0 19811.98328467 0 610.83768985 0 -7099.43080177 0 3009
0.05450000 0.05448610 36331.87749117 0 -327.21692885 0 15265.59074363 0 2378.50718555 0 -8807.76350292 0 3336
0.05550000 0.05550870 36812.12631903 0 172.51136821 0 13489.55737631 0 2387.39123430 0 -10609.18462005 0 3349
0.05650000 0.05647670 35034.09653626 0 462.46853003 0 10044.94215770 0 1421.42561849 0 -11125.24692285 0 3324
0.05750000 0.05747970 35387.90571891 0 1096.03319154 0 9633.40329494 0 2459.25109933 0 -6773.61580022 0 3639
0.05850000 0.05849280 32464.15529139 0 8.70511448 0 6243.50095088 0 2287.43736740 0 -8710.85971518 0 3846
0.05950000 0.05951020 32211.60873688 0 455.74837380 0 5282.43764412 0 1461.28738032 0 -4252.18745080 0 3787
0.06050000 0.06049470 32176.78237846 0 575.64864929 0 4384.48324800 0 127.48554508 0 -5852.18134015 0 3930
0.06150000 0.06148310 30797.48112598 0 807.28497019 0 5390.73209112 0 -549.99581987 0 -3825.71983694 0 4083
0.06250000 0.06249100 30145.65148133 0 883.07888278 0 5874.75192594 0 290.08914706 0 -2325.96818560 0 4303
0.06350000 0.06350600 28628.70847472 0 531.84063958 0 7607.05270370 0 -1481.83936827 0 -1461.34283631 0 4470
0.06450000 0.06451750 28195.70814586 0 332.74367228 0 7302.56607388 0 1477.34743350 0 -485.48276370 0 4479
0.06550000 0.06550280 28426.51595436 0 65.31073505 0 7592.62305647 0 1534.63346574 0 574.93437621 0 4636
0.06650000 0.06648880 29238.05883506 0 -682.20954221 0 7507.69776143 0 1095.07047565 0 2777.79027568 0 4653
0.06750000 0.06749660 28547.63182503 0 202.04611657 0 7986.75983122 0 858.38211453 0 2075.36259056 0 5220
0.06850000 0.06852730 28928.61444020 0 798.82127780 0 7619.28629393 0 -1816.69369533 0 4891.58386367 0 5029
0.06950000 0.06949320 28200.92100843 0 -107.47048198 0 9095.53569894 0 396.54911009 0 3585.14068394 0 5040
0.07050000 0.07048030 29356.51281846 0 -573.90400401 0 7807.50390614 0 1790.66265609 0 4067.33047126 0 5475
0.07150000 0.07148790 29310.92799901 0 -325.57875906 0 8078.58385075 0 509.23788932 0 2761.45294258 0 5509
0.07250000 0.07249820 29179.05366729 0 659.74654103 0 7162.86135712 0 196.66577693 0 2527.35104859 0 5916
0.07350000 0.07351270 28346.32660042 0 971.55114259 0 9560.03502713 0 -2398.46024886 0 1743.41415709 0 5721
0.07450000 0.07449140 26974.78918580 0 1224.03558640 0 10301.80318783 0 -2344.44611972 0 2618.99760897 0 6028
0.07550000 0.07549160 26759.84178895 0 -82.31930740 0 11894.19960727 0 676.28129744 0 454.61707171 0 6183
0.07650000 0.07648840 26821.39793201 0 -39.03613313 0 11313.35362310 0 49.08154112 0 802.62555836 0 6330
0.07750000 0.07749960 27430.30464447 0 -18.20852894 0 10899.01977870 0 -127.32139537 0 -56.55301503 0 6583
0.07850000 0.07848650 27067.73341623 0 -157.11678685 0 11043.52698374 0 2145.92478554 0 518.36150793 0 6549
0.07950000 0.07947320 27011.16831179 0 318.31513417 0 9881.01426681 0 -31.48546807 0 514.99311142 0 6828
0.08050000 0.08048110 26206.39106123 0 902.12357706 0 10539.13262012 0 -784.23746293 0 -235.88203110 0 7147
0.08150000 0.08149960 25090.72756021 0 776.23738258 0 11104.50638456 0 -85.67461630 0 -995.64454973 0 7386
0.08250000 0.08250610 24451.98552796 0 121.36542261 0 10201.23930510 0 523.71411958 0 -111.94345080 0 7227
0.08350000 0.08350160 24228.49790945 0 6.16676096 0 10155.46593529 0 693.60241971 0 -2561.57848237 0 7798
0.08450000 0.08449610 24587.63086664 0 417.74993305 0 8952.04888402 0 -350.69255631 0 -1851.32041220 0 7371
0.08550000 0.08548940 23256.24358497 0 566.94316880 0 9704.74187371 0 -11.88943039 0 -3958.50364681 0 8256
0.08650000 0.08650700 22510.47150217 0 943.33291932 0 9755.06263426 0 -1386.57707768 0 -3403.92161700 0 8037
0.08750000 0.08749060 21565.16878628 0 629.32338780 0 9576.91582888 0 -11.85216397 0 -4474.79886475 0 8155
0.08850000 0.08849210 20564.85373352 0 608.58728599 0 10667.30249206 0 909.60680764 0 -3991.40013695 0 8718
0.08950000 0.08949900 20093.25603928 0 85.47475293 0 9002.91311322 0 997.11080596 0 -2960.72847815 0 8571
0.09050000 0.09049190 19981.12403813 0 -248.11673045 0 8352.50314178 0 1898.89055591 0 -2612.27634362 0 8932
0.09150000 0.09150830 20154.92309431 0 -209.00695177 0 6529.43200821 0 1785.23906079 0 -1705.92591141 0 9285
0.09250000 0.09250820 20256.74028229 0 -23.48982419 0 5332.64749271 0 864.71629711 0 -407.28760697 0 9204
0.09350000 0.09350330 20151.48482326 0 81.74056874 0 4903.11870849 0 370.69442088 0 -922.94286285 0 9349
0.09450000 0.09448040 19492.22407665 0 503.34624550 0 4370.03141837 0 -91.83477800 0 -533.49211881 0 9564
0.09550000 0.09549270 18887.19928313 0 399.77886664 0 5087.09948347 0 -273.15067108 0 -75.42967768 0 10155
0.09650000 0.09649430 18570.54561026 0 85.88346354 0 4091.62019258 0 1103.07055601 0 -399.92637956 0 9913
0.09750000 0.09749140 18536.38472366 0 21.26459735 0 3784.84877619 0 851.18614595 0 75.75964079 0 10476
0.09850000 0.09850240 18183.46283676 0 344.69998259 0 3911.72097808 0 208.16069344 0 51.17777734 0 10575
0.09950000 0.09950330 17540.72797361 0 589.98956694 0 3520.01317546 0 -497.91266812 0 313.71672392 0 10882
0.10050000 0.10051200 17000.25394633 0 372.33702715 0 4176.27929888 0 -9.37295981 0 156.51564397 0 10875
0.10150000 0.10150300 16399.33289567 0 153.00306190 0 4218.28166173 0 -680.70890326 0 -634.67156297 0 11118
0.10250000 0.10250800 16580.23031790 0 302.84956915 0 4245.14454074 0 -302.51683324 0 -1196.98415705 0 11575
0.10350000 0.10349800 16136.69335194 0 53.63481020 0 4529.66701605 0 -253.32959302 0 -1860.42628490 0 11364
0.10450000 0.10450100 16164.42134431 0 138.22071461 0 4801.15733495 0 -717.70691804 0 -2101.10525867 0 12093
0.10550000 0.10551000 16050.62566362 0 119.25033135 0 4553.31344794 0 -118.17226700 0 -2945.93282142 0 12067
0.10650000 0.10649700 16287.08998256 0 -90.80662404 0 5162.17579561 0 484.94927712 0 -2680.73121119 0 12054
0.10750000 0.10749900 16092.10674021 0 46.62595011 0 4358.01965208 0 71.35898657 0 -2696.43634607 0 12807
0.10850000 0.10850100 16065.59877950 0 47.41708519 0 4725.16045346 0 411.69081216 0 -2473.21491629 0 12736
0.10950000 0.10950300 15824.25433391 0 223.61738551 0 4706.51615139 0 125.01331728 0 -2151.10437452 0 12933
0.11050000 0.11050200 15740.84853286 0 275.85248666 0 4244.53452490 0 398.92151712 0 -1372.74635508 0 13428
0.11150000 0.11150900 15235.86633580 0 206.58574348 0 5447.60774907 0 208.59546836 0 -300.89530025 0 13453
0.11250000 0.11250000 14959.58461982 0 217.90430996 0 4213.11316395 0 340.16035568 0 -702.81587702 0 13668
0.11350000 0.11349100 14742.97354342 0 271.18642010 0 5142.75510975 0 128.49595312 0 -38.60834566 0 13791
0.11450000 0.11448600 14481.22129545 0 193.20532348 0 4498.13474312 0 33.21514024 0 632.16606158 0 14205
0.11550000 0.11549300 14283.13251795 0 -52.13017842 0 4639.31458908 0 908.79493202 0 950.05751203 0 14776
0.11650000 0.11649800 14270.82128934 0 9.77124469 0 4003.19007931 0 69.80222617 0 354.73307935 0 14553
0.11750000 0.11747300 14156.69287274 0 146.55353088 0 3346.86849990 0 1007.18050367 0 960.92577592 0 14568
0.11850000 0.11849100 14044.56087160 0 104.14844667 0 3640.36375354 0 -131.12789416 0 974.90733879 0 16015
0.11950000 0.11950300 13615.99702152 0 217.10907114 0 2519.12138046 0 -78.47321303 0 346.06752718 0 15270
0.12050000 0.12050700 13648.27240464 0 331.42049249 0 3784.30530754 0 -292.46266321 0 920.35639572 0 15999
0.12150000 0.12150000 13162.58889027 0 117.56668765 0 3113.44316893 0 -201.35291676 0 -126.20562095 0 15670
0.12250000 0.12250700 13073.19384287 0 76.47125198 0 3716.97065086 0 172.72542831 0 664.86512842 0 16887
0.12350000 0.12352200 13127.65161989 0 46.54786809 0 3200.12087308 0 -38.48989168 0 121.18463610 0 16407
0.12450000 0.12449800 12835.17675636 0 184.01183033 0 3767.49105296 0 -126.71248865 0 815.15861091 0 16306
0.12550000 0.12549900 12833.18034091 0 103.77201145 0 3612.80212913 0 196.98742164 0 580.63746968 0 17523
0.12650000 0.12650100 13032.60006204 0 -146.35832581 0 3963.07321995 0 459.10013352 0 1273.08085931 0 17154
0.12750000 0.12750600 12933.22293738 0 60.31215441 0 3642.29362181 0 -90.28611417 0 588.10295434 0 18007
0.12850000 0.12850300 12928.56463467 0 327.80143492 0 4357.66473377 0 -735.11122429 0 818.36285770 0 17496
0.12950000 0.12949900 12639.63895416 0 203.05874285 0 4335.22724235 0 -226.80277727 0 777.61380012 0 18405
0.13050000 0.13049000 12299.69376770 0 115.38172185 0 5182.17322371 0 127.34579600 0 411.28931083 0 18100
0.13150000 0.13148800 12477.92930266 0 26.94085012 0 4617.68675503 0 266.24196450 0 556.55293550 0 19059
0.13250000 0.13249300 12226.38095587 0 -47.06039230 0 4448.96746705 0 393.11749375 0 -403.68629532 0 18957
0.13350000 0.13349100 12572.42630066 0 -83.31928971 0 3758.04135316 0 430.05783431 0 596.89272792 0 19468
0.13450000 0.13450700 12502.32993594 0 -86.71253051 0 3383.33635546 0 633.43378539 0 666.75728662 0 19953
0.13550000 0.13551000 12280.61690895 0 150.41659477 0 2783.31369176 0 377.60201834 0 572.44772985 0 19956
0.13650000 0.13649900 12153.73361586 0 296.85144984 0 3030.43665097 0 390.00974037 0 837.00605066 0 19723
0.13750000 0.13749600 11476.17239430 0 276.90282301 0 2629.50097248 0 -284.15202933 0 1058.49947195 0 20946
0.13850000 0.13851100 11389.32832219 0 287.81656081 0 3002.25391952 0 195.85944691 0 1261.08018421 0 20955
0.13950000 0.13949800 11107.83374364 0 66.66275196 0 2707.49426942 0 -115.56361748 0 741.68608584 0 20506
0.14050000 0.14048300 10966.68717128 0 92.45377770 0 2681.13049428 0 15.48719286 0 1379.92235951 0 21447
0.14150000 0.14148400 10806.61901693 0 66.90176726 0 2812.78300205 0 -252.32583969 0 297.66887106 0 21771
0.14250000 0.14249400 10970.85746133 0 74.04948913 0 2715.18046891 0 186.24448827 0 320.99809472 0 22470
0.14350000 0.14350900 10769.21950082 0 -23.83997328 0 2402.37544138 0 103.06084390 0 68.06822844 0 22519
0.14450000 0.14449900 10838.63930251 0 68.81888065 0 2513.52032600 0 -216.34599679 0 -588.84162806 0 22218
0.14550000 0.14550500 10644.80954465 0 218.19711756 0 2601.17405548 0 -113.22670229 0 -362.57899208 0 23559
0.14650000 0.14650700 10343.22880843 0 137.58740726 0 2634.75819984 0 14.90734508 0 -586.58789684 0 23044
0.14750000 0.14750500 10204.40029623 0 123.21432514 0 1973.12393709 0 471.48567315 0 84.46556492 0 23649
0.14850000 0.14849900 10312.92765837 0 -73.11749585 0 2074.33110924 0 639.69698431 0 -465.24909311 0 23640
0.14950000 0.14949500 10063.13172070 0 13.70960672 0 1500.81640625 0 730.88326002 0 1019.17674229 0 24457
0.15050000 0.15050000 10195.63825064 0 26.78856799 0 1257.99683146 0 492.38703380 0 1294.47577822 0 24591
0.15150000 0.15149900 9962.24619326 0 39.94150754 0 900.33789435 0 111.51533060 0 1900.03294920 0 25020
0.15250000 0.15250500 10043.88849399 0 101.55587938 0 1284.75988969 0 208.77070928 0 1871.28456671 0 25297
0.15350000 0.15350100 9926.95400457 0 68.23337636 0 1021.57354995 0 -390.97578362 0 1757.83271313 0 25452
0.15450000 0.15450400 9869.27978044 0 196.34413222 0 1714.95414573 0 -548.73807813 0 1499.31909466 0 26061
0.15550000 0.15549900 9575.90652996 0 359.63538841 0 2315.94174356 0 -775.99115800 0 1395.52767362 0 26128
0.15650000 0.15649500 9286.60374876 0 239.34803014 0 2798.22026046 0 -476.48780297 0 925.25315917 0 26331
0.15750000 0.15749700 9267.04996854 0 29.37680971 0 3354.56579058 0 -262.36559117 0 522.05376740 0 27345
0.15850000 0.15849900 9109.01150323 0 15.55762196 0 3209.19347218 0 349.83298854 0 765.15284035 0 26980
0.15950000 0.15949700 9309.66234722 0 -104.90852640 0 3200.22069385 0 226.91036188 0 728.15482557 0 27777
0.16050000 0.16050000 9329.64868412 0 7.54551874 0 2866.78603999 0 189.95338453 0 479.47909879 0 28224
0.16150000 0.16150500 9280.81414396 0 175.82763610 0 2955.32706523 0 36.03041876 0 556.35440308 0 28075
0.16250000 0.16249700 9065.97765907 0 184.53311659 0 2860.39751055 0 -150.51863378 0 800.27311548 0 28590
0.16350000 0.16349900 8976.34969653 0 114.15614459 0 3123.56943174 0 -29.19691049 0 749.37450357 0 29163
0.16450000 0.16449100 8771.15146179 0 75.06200450 0 3113.37662174 0 -23.16784675 0 477.55033964 0 28996
0.16550000 0.16550500 8700.15671012 0 62.65827530 0 2892.17378981 0 -5.19011452 0 610.68795869 0 30777
0.16650000 0.16650700 8747.44957391 0 67.64509928 0 2974.23755603 0 134.83457218 0 363.37423090 0 29211
0.16750000 0.16749900 8602.52090339 0 94.10991523 0 3018.30288150 0 -17.86159630 0 455.54984137 0 30922
0.16850000 0.16850800 8479.80790035 0 74.30979952 0 3140.97151975 0 -23.67271803 0 303.36974629 0 30867
0.16950000 0.16949900 8545.27923594 0 61.74302973 0 2980.19352879 0 231.10061609 0 558.31976318 0 30852
0.17050000 0.17049200 8365.32456545 0 59.99139700 0 2979.46150979 0 101.20129382 0 514.62488368 0 31257
0.17150000 0.17149500 8298.14518554 0 116.74372084 0 3027.25347744 0 147.60053987 0 972.95306989 0 32608
0.17250000 0.17250900 8236.07884742 0 74.68823116 0 2961.36067637 0 375.82299035 0 1467.88664251 0 32361
0.17350000 0.17350400 8152.40685764 0 95.72501532 0 2761.75240490 0 245.53026332 0 1425.37408460 0 32508
0.17450000 0.17449800 7980.07183946 0 5.58521623 0 2700.45135936 0 219.15428786 0 1713.82284364 0 32791
0.17550000 0.17549800 7951.27909218 0 102.92408944 0 2921.05526666 0 152.37308191 0 1744.52327679 0 33633
0.17650000 0.17650100 7764.00423171 0 169.38586891 0 2381.49071753 0 -127.25928466 0 1912.87655527 0 33984
0.17750000 0.17750300 7596.53824899 0 97.31571479 0 2688.37304589 0 -35.50458511 0 1490.17994837 0 34069
0.17850000 0.17849800 7629.09091203 0 9.74909557 0 2402.98545721 0 171.42997651 0 1710.46221096 0 34536
