### header ###
fiducial parameters:
Omega_m = 0.31
Omega_nu = 0
Omega_de = 0.69
Omega_k = 0
H_0 = 100
w_de = -1
zeff = 0
beta = 0
fgrowth = 0
b_1 = 2
gamma = 0.55
Lx = 3500 Ly = 3500 Lz = 3500
nx = 700 ny = 700 nz = 700
xoffset = 1379.75464 yoffset = 22.6059522 zoffset = 368.141391
bins = 400 dk = 0.001
kx_ny = 0.628318531 ky_ny = 0.628318531 kz_ny = 0.628318531
############################
A(data) = 3.27954205 (not used)
A(ran) = 3.27718987 (used)
Ngal = 184032
weighted Ngal = 0
Nran = 9399747
weighted Nran = 0
SN(data) = 6691.49617
SN(ran) = 130.351482
SN(data+ran) = 6821.84765
############################
13 columns: k_central k_mean P_0(k) sigma^{lin}_{P_0(k)} P^img_1(k) sigma^{lin}_{P_1(k)} P_2(k) sigma^{lin}_{P_2(k)} P^img_3(k) sigma^{lin}_{P_3(k)} P_4(k) sigma^{lin}_{P_4(k)} N_modes
### header ###
0.00050000 0 0 0 0 0 0 0 0 0 0 0 0
0.00150000 0.00179520 21523.46588575 0 -15669.08848860 0 -20038.46552635 0 11250.68836034 0 -1072.58418296 0 3
0.00250000 0.00253879 37048.14699009 0 -15182.18494257 0 -6670.67840134 0 -24998.89244948 0 31449.31077062 0 6
0.00350000 0.00331552 42823.33324103 0 -5582.72071030 0 -11735.92822682 0 -12867.45213948 0 -29321.13190020 0 7
0.00450000 0.00420575 53032.00364808 0 -4736.86166624 0 -5320.08116656 0 -13754.63698337 0 6698.85004159 0 24
0.00550000 0.00557378 55115.37408283 0 1464.75892497 0 5444.18056922 0 -11762.76892344 0 -2508.99511764 0 45
0.00650000 0.00659388 62942.54268116 0 4669.89301906 0 -9230.13846510 0 -2508.27418984 0 -3200.65325053 0 40
0.00750000 0.00754703 49862.91594406 0 5813.51742759 0 22464.66485878 0 -24423.37023983 0 -13061.65899804 0 57
0.00850000 0.00846663 39388.38954616 0 9076.20374265 0 34532.44169829 0 -503.47823075 0 -13006.86848512 0 75
0.00950000 0.00948925 38159.48492430 0 3351.51571142 0 48715.86435568 0 1242.69097967 0 -17350.73576989 0 112
0.01050000 0.01054430 39044.22970486 0 -3260.33498131 0 33064.74360613 0 9631.07414358 0 -14819.94645025 0 105
0.01150000 0.01145670 44745.65949609 0 -7365.45316057 0 37442.99360144 0 13082.28862437 0 -3185.68013465 0 144
0.01250000 0.01249090 57522.60746848 0 -9039.72479589 0 11488.26179897 0 16962.54387670 0 -17436.69254624 0 169
0.01350000 0.01339930 71521.58352061 0 -7181.07310251 0 14736.09700132 0 10490.88591340 0 12060.78938544 0 180
0.01450000 0.01448870 75662.92554911 0 -7452.91833971 0 -451.73225138 0 6061.51659135 0 2052.79200477 0 267
0.01550000 0.01550050 90939.27475378 0 -3218.93154310 0 -490.64904324 0 8408.60241595 0 15061.29089584 0 238
0.01650000 0.01653350 85452.34871152 0 1185.73768334 0 -9710.22092500 0 -933.89320160 0 12485.13858068 0 315
0.01750000 0.01747870 88910.91665588 0 4894.52303086 0 14860.09658320 0 2279.71789433 0 33008.62214957 0 297
0.01850000 0.01844180 86491.92660148 0 -954.49842729 0 -2767.05399704 0 4692.86288794 0 23272.54764449 0 388
0.01950000 0.01947590 81761.86383897 0 4871.15387889 0 11802.03176063 0 -3033.58655090 0 18562.89268436 0 399
0.02050000 0.02045430 75235.58173070 0 5360.71931218 0 17290.17783455 0 -12859.35556571 0 5089.69482355 0 462
0.02150000 0.02154770 69452.96437780 0 6561.91812407 0 24944.98923231 0 -8857.31897088 0 8924.30980045 0 571
0.02250000 0.02255340 62583.29881201 0 692.69183244 0 25716.60380400 0 602.65571386 0 -1008.92182159 0 510
0.02350000 0.02348930 65273.91227968 0 -639.66814719 0 35244.82927828 0 8815.99317105 0 -2407.92103985 0 555
0.02450000 0.02439640 65635.48530019 0 -891.91745763 0 20972.56613333 0 3747.92618155 0 -16578.56663836 0 592
0.02550000 0.02547300 68674.91691188 0 -2286.45025088 0 22010.59125572 0 4059.26717108 0 279.28077564 0 837
0.02650000 0.02652900 69292.47475796 0 295.54268860 0 25087.40020112 0 -3740.84999789 0 -10403.84219975 0 723
0.02750000 0.02749970 71389.59827693 0 1704.57278538 0 27931.62674653 0 -1070.17295674 0 190.55230917 0 826
0.02850000 0.02848090 67276.09515277 0 3395.73631365 0 29535.19200130 0 -2396.51928939 0 -10218.85212585 0 831
0.02950000 0.02946900 66110.29944155 0 2882.09189178 0 34541.64739176 0 -2600.57513084 0 2293.20478982 0 996
0.03050000 0.03053250 62046.70670366 0 2068.08676536 0 40020.92050812 0 4980.75708713 0 1143.61331733 0 1041
0.03150000 0.03150510 60037.42546452 0 1826.68686378 0 37054.13623644 0 6610.64175226 0 5963.69223427 0 1036
0.03250000 0.03246190 59628.04938516 0 188.04569866 0 36727.16775041 0 6650.70315564 0 8428.31147292 0 1059
0.03350000 0.03345080 57991.65418742 0 614.59206001 0 29100.97164078 0 3122.48249444 0 6834.27355633 0 1302
0.03450000 0.03451200 58843.56902501 0 -1662.79224648 0 26114.22321459 0 4336.60255077 0 714.60249201 0 1339
0.03550000 0.03553350 59000.06581395 0 813.38956499 0 25692.42499465 0 -1161.61432998 0 1323.96727091 0 1365
0.03650000 0.03647120 57057.77540438 0 2622.50242721 0 20006.19014323 0 -4498.73366776 0 -8017.04989008 0 1308
0.03750000 0.03744890 54057.16298200 0 3348.55436183 0 25389.85714190 0 -2086.69779384 0 -12358.14437562 0 1579
0.03850000 0.03847530 49306.80332908 0 2334.43076887 0 24074.99574369 0 -1110.66137120 0 -14517.71133341 0 1662
0.03950000 0.03950240 46579.14526360 0 1965.21591366 0 24258.88778909 0 3255.07775396 0 -9138.76918464 0 1683
0.04050000 0.04050350 45030.92508160 0 622.80287311 0 22248.60834223 0 4206.85772887 0 -10709.10521336 0 1822
0.04150000 0.04152450 44183.00307491 0 863.35540725 0 18539.49025880 0 4322.05090037 0 -8919.96205124 0 1887
0.04250000 0.04250150 42137.78635766 0 1240.17327796 0 17921.71058879 0 1896.62795174 0 -8252.38290693 0 1920
0.04350000 0.04349210 39768.92851346 0 -136.19324381 0 12775.06246890 0 3567.78296071 0 76.98388711 0 2005
0.04450000 0.04448520 40776.23102029 0 -389.04702447 0 13038.47839642 0 1983.23910871 0 -4814.08967059 0 2151
0.04550000 0.04548030 40723.99148267 0 778.23157979 0 8888.40759593 0 2329.91665172 0 -5497.90632723 0 2274
0.04650000 0.04648670 39739.75866548 0 419.90051614 0 9463.68579924 0 -1082.95112474 0 -3649.09252554 0 2311
0.04750000 0.04749250 37024.07909271 0 1748.26101016 0 9738.63657158 0 -2937.71424448 0 -6908.95058538 0 2568
0.04850000 0.04851840 36526.52799761 0 1068.35621868 0 11506.22953803 0 -1367.83295484 0 -5156.05345490 0 2493
0.04950000 0.04949480 36089.53483785 0 297.02114515 0 12599.37790924 0 921.34240313 0 -7286.25092317 0 2644
0.05050000 0.05050630 35891.66788430 0 -347.90312027 0 11832.08890436 0 1202.36338757 0 -5241.88822808 0 2829
0.05150000 0.05149060 36163.51312150 0 -326.35403372 0 10568.85702795 0 1583.76746822 0 -5998.82914620 0 2784
0.05250000 0.05249300 36147.65270986 0 536.34144730 0 11743.13750484 0 -603.83138073 0 -4560.11235167 0 3055
0.05350000 0.05348950 35802.27283689 0 1307.65212020 0 12060.34573756 0 -1035.57618610 0 -5508.02149885 0 3009
0.05450000 0.05448610 34602.53806300 0 532.50167492 0 13856.56508332 0 33.06918008 0 -3821.05044303 0 3336
0.05550000 0.05550870 33445.50439737 0 597.23100943 0 15160.11346065 0 -1188.46611779 0 -3167.46838926 0 3349
0.05650000 0.05647670 33409.79074319 0 297.71656320 0 16295.40838027 0 127.53212811 0 -5149.18800398 0 3324
0.05750000 0.05747970 33067.73822931 0 468.44779431 0 15058.18536069 0 1651.23521926 0 -3289.53810287 0 3639
0.05850000 0.05849280 32723.46747604 0 10.49725226 0 13055.44792775 0 920.24659287 0 -3137.41124553 0 3846
0.05950000 0.05951020 33256.73222531 0 -499.10608091 0 13772.49381046 0 3005.84746733 0 -1768.23625586 0 3787
0.06050000 0.06049470 32182.32797693 0 279.45047095 0 11889.31948062 0 1440.75757477 0 -404.99062009 0 3930
0.06150000 0.06148310 31965.71690053 0 610.50384482 0 8664.40978236 0 652.49844382 0 -1856.54436597 0 4083
0.06250000 0.06249100 31105.15092932 0 541.47223501 0 10869.57265080 0 349.30172021 0 -83.36653821 0 4303
0.06350000 0.06350600 30824.54364653 0 114.13063484 0 6865.77255566 0 853.97669111 0 -928.59271857 0 4470
0.06450000 0.06451750 30565.45328582 0 -119.39673515 0 8172.67047446 0 1532.65923268 0 -881.42518531 0 4479
0.06550000 0.06550280 29971.07604137 0 54.40198830 0 5108.29476084 0 -283.36233611 0 -3787.15574515 0 4636
0.06650000 0.06648880 29160.53136839 0 1632.87928831 0 7825.91529308 0 -1828.35054332 0 -4429.34713965 0 4653
0.06750000 0.06749660 27855.54113546 0 858.12368964 0 7857.08155650 0 -2039.54911561 0 -4070.19200007 0 5220
0.06850000 0.06852730 26638.50409433 0 703.76528348 0 9146.84357602 0 -346.45460995 0 -5700.19866837 0 5029
0.06950000 0.06949320 26385.62480391 0 48.72806467 0 8747.11683800 0 509.44751294 0 -4741.16505065 0 5040
0.07050000 0.07048030 26583.26993353 0 -474.55904382 0 8806.55456245 0 1902.65047168 0 -5383.19007720 0 5475
0.07150000 0.07148790 27536.11466335 0 -443.72440719 0 6651.30208027 0 2439.66404552 0 -3535.00847373 0 5509
0.07250000 0.07249820 27433.07744370 0 -513.97383042 0 5445.77770158 0 1044.71976886 0 -3802.41723215 0 5916
0.07350000 0.07351270 27406.34765906 0 834.28427092 0 4590.10294822 0 -164.36821141 0 -2177.42378488 0 5721
0.07450000 0.07449140 25755.97755316 0 1222.24990369 0 4723.99587778 0 -1083.92160448 0 -3163.42010238 0 6028
0.07550000 0.07549160 25211.62160694 0 864.28041307 0 6954.05848337 0 -1173.85901141 0 -2442.32593279 0 6183
0.07650000 0.07648840 23591.19773281 0 636.97520457 0 6375.67474491 0 168.27231274 0 -3231.64205480 0 6330
0.07750000 0.07749960 23241.82502894 0 -155.98992124 0 5869.89398168 0 1349.31065593 0 -2455.49118356 0 6583
0.07850000 0.07848650 23426.38254616 0 -132.46992899 0 5461.26101252 0 811.17243472 0 -3341.11216868 0 6549
0.07950000 0.07947320 23743.03621903 0 463.25822325 0 4275.66751474 0 1035.90670377 0 -1294.78633174 0 6828
0.08050000 0.08048110 22813.70482674 0 260.27157319 0 4623.28780949 0 242.16519417 0 -1109.44133953 0 7147
0.08150000 0.08149960 22180.95204084 0 272.62827571 0 4457.66296546 0 486.23474685 0 1125.73430785 0 7386
0.08250000 0.08250610 21524.35318151 0 907.61261043 0 5600.27807507 0 -508.17757089 0 -33.79931358 0 7227
0.08350000 0.08350160 21102.66587354 0 563.02797628 0 6306.12184885 0 -571.95084423 0 2439.23148884 0 7798
0.08450000 0.08449610 20287.35198587 0 254.38547497 0 6952.25061827 0 211.19857229 0 1395.29475848 0 7371
0.08550000 0.08548940 20567.40470881 0 -50.43444532 0 7868.81604287 0 131.89762323 0 1781.86733691 0 8256
0.08650000 0.08650700 20354.56463938 0 148.29041232 0 6971.59366574 0 161.26489451 0 2635.01329737 0 8037
0.08750000 0.08749060 20447.73069374 0 224.44146144 0 7875.61494660 0 -354.93604826 0 1361.71061412 0 8155
0.08850000 0.08849210 19963.82177089 0 351.02972869 0 7765.84537040 0 -461.60563491 0 3067.49233997 0 8718
0.08950000 0.08949900 19618.22007399 0 388.70208825 0 8042.04944801 0 794.60551384 0 473.23253667 0 8571
0.09050000 0.09049190 19383.75217050 0 -15.31461383 0 8117.04812177 0 338.01864555 0 2874.01750041 0 8932
0.09150000 0.09150830 19368.44631871 0 -265.02304196 0 5876.38233190 0 1908.46225888 0 1648.30714326 0 9285
0.09250000 0.09250820 20023.71423441 0 -161.26489451 0 6262.15634415 0 436.74804431 0 2406.75646417 0 9204
0.09350000 0.09350330 19226.14626187 0 482.55136034 0 5698.32425609 0 196.55819232 0 1288.81926778 0 9349
0.09450000 0.09448040 19087.61721198 0 656.69757099 0 6056.70301188 0 -855.02591834 0 1504.13267413 0 9564
0.09550000 0.09549270 17816.12239384 0 449.76023657 0 6564.16963705 0 -851.44346172 0 1876.31997012 0 10155
0.09650000 0.09649430 17961.52798583 0 166.59532376 0 6732.71146587 0 735.97966501 0 704.89214909 0 9913
0.09750000 0.09749140 17663.95117171 0 -122.27822811 0 6599.50619053 0 178.15567834 0 1338.08636462 0 10476
0.09850000 0.09850240 17714.85976570 0 136.53485267 0 5949.01858071 0 584.50829741 0 530.28121729 0 10575
0.09950000 0.09950330 17509.00715034 0 100.80123434 0 6393.17665370 0 255.17294995 0 2332.47871821 0 10882
0.10050000 0.10051200 17461.20409150 0 62.60437209 0 5601.56465391 0 578.40924821 0 701.94299982 0 10875
0.10150000 0.10150300 17250.02770160 0 326.43278122 0 5680.06814591 0 184.56417194 0 1571.15677729 0 11118
0.10250000 0.10250800 16813.81092563 0 300.48825332 0 5619.54348417 0 -96.78245004 0 2368.81347941 0 11575
0.10350000 0.10349800 16460.44539086 0 21.75183363 0 4961.68022838 0 933.51721002 0 1762.01409438 0 11364
0.10450000 0.10450100 16308.05234479 0 213.99355392 0 5588.43267673 0 207.46971187 0 2289.47814764 0 12093
0.10550000 0.10551000 16164.64316825 0 122.66198353 0 4429.09204212 0 331.04006443 0 1556.39439415 0 12067
0.10650000 0.10649700 15901.33815270 0 176.83915326 0 4841.57365663 0 186.14799486 0 2102.73566463 0 12054
0.10750000 0.10749900 15519.91188965 0 247.42463976 0 4585.42246311 0 -587.52621210 0 963.80726889 0 12807
0.10850000 0.10850100 15305.96270052 0 237.62667638 0 5147.21377093 0 -398.53443434 0 966.13420201 0 12736
0.10950000 0.10950300 15066.61467037 0 459.25097380 0 5370.18010318 0 -575.16396398 0 243.30536921 0 12933
0.11050000 0.11050200 14622.74496851 0 76.51683680 0 5097.92449169 0 291.63082344 0 217.81558039 0 13428
0.11150000 0.11150900 14894.14655783 0 -182.36811494 0 5541.93837912 0 436.56060308 0 429.38348953 0 13453
0.11250000 0.11250000 14580.70933207 0 222.68905233 0 4476.65109464 0 365.81873070 0 -874.23919881 0 13668
0.11350000 0.11349100 14636.05440484 0 182.38142438 0 5448.76123356 0 -165.95425258 0 1037.42397951 0 13791
0.11450000 0.11448600 14267.27210632 0 61.02476382 0 4711.98411148 0 95.02870998 0 -557.76187597 0 14205
0.11550000 0.11549300 14392.15898395 0 166.80383826 0 4992.22538477 0 221.04644606 0 954.25220271 0 14776
0.11650000 0.11649800 14022.15665376 0 59.69138012 0 4430.15679703 0 108.20782475 0 -1003.91414617 0 14553
0.11750000 0.11747300 13930.87610288 0 254.76035742 0 4983.44115679 0 -30.21230957 0 601.58319511 0 14568
0.11850000 0.11849100 13750.08959262 0 29.17406263 0 4635.75431486 0 97.41109909 0 -228.57736879 0 16015
0.11950000 0.11950300 13646.49781312 0 167.31514244 0 4268.42496313 0 228.89124966 0 -847.79889441 0 15270
0.12050000 0.12050700 13387.40745241 0 306.19134679 0 4768.70449268 0 -400.85138538 0 -445.89939091 0 15999
0.12150000 0.12150000 13090.05246223 0 263.19188534 0 4930.30323221 0 -394.17670306 0 -866.93231826 0 15670
0.12250000 0.12250700 12933.99932117 0 51.61122132 0 4755.82761302 0 237.46363578 0 -369.94465597 0 16887
0.12350000 0.12352200 12948.30696523 0 -124.28684388 0 5044.20982487 0 507.29582074 0 -841.97490689 0 16407
0.12450000 0.12449800 12780.82989131 0 156.42691440 0 4784.18780362 0 -17.15297973 0 -395.46328191 0 16306
0.12550000 0.12549900 12982.91149971 0 202.80364532 0 4948.81443992 0 -63.32363621 0 -414.80300203 0 17523
0.12650000 0.12650100 12684.44738983 0 44.51540625 0 5191.42328196 0 -90.57437437 0 307.80178859 0 17154
0.12750000 0.12750600 12624.33310238 0 44.91701849 0 4992.59139427 0 96.46169263 0 -322.53644373 0 18007
0.12850000 0.12850300 12660.37949246 0 -47.10198429 0 5065.76002054 0 261.61138978 0 -515.15615201 0 17496
0.12950000 0.12949900 12647.84643991 0 86.10617477 0 4642.29812106 0 80.94621722 0 -371.14361436 0 18405
0.13050000 0.13049000 12516.30484410 0 104.40554062 0 4553.13598879 0 303.19117802 0 -799.28710807 0 18100
0.13150000 0.13148800 12314.11232373 0 141.48596299 0 4619.62771450 0 197.07504209 0 366.96001487 0 19059
0.13250000 0.13249300 12100.82860642 0 303.38527396 0 4262.29153122 0 106.31034278 0 -568.69779616 0 18957
0.13350000 0.13349100 11778.96207098 0 326.08340852 0 4628.70031360 0 -317.57202398 0 -122.28266459 0 19468
0.13450000 0.13450700 11306.92072887 0 238.21450981 0 4789.07902147 0 -323.90620656 0 -264.94762182 0 19953
0.13550000 0.13551000 11206.76722042 0 89.35855736 0 5339.67931157 0 148.77509762 0 -127.88039169 0 19956
0.13650000 0.13649900 10990.56651831 0 -26.99863526 0 4861.65981430 0 432.67092031 0 -619.87146976 0 19723
0.13750000 0.13749600 11240.81719505 0 15.50660245 0 4661.41934460 0 261.12559535 0 -668.21466990 0 20946
0.13850000 0.13851100 10960.99738725 0 97.19570804 0 4104.38616027 0 216.14857349 0 -228.28456119 0 20955
0.13950000 0.13949800 10829.50015623 0 163.75264998 0 4044.90407103 0 386.25426108 0 79.52698765 0 20506
0.14050000 0.14048300 10775.28638555 0 -32.70305967 0 3929.35598123 0 431.21464615 0 -13.78114494 0 21447
0.14150000 0.14148400 10788.79546343 0 25.36157459 0 3445.36942000 0 541.74396934 0 332.70485310 0 21771
0.14250000 0.14249400 10592.15963273 0 92.56358055 0 3249.59870266 0 240.68562849 0 421.84591209 0 22470
0.14350000 0.14350900 10444.32506861 0 61.60871534 0 2678.70152215 0 115.63127378 0 523.74295669 0 22519
0.14450000 0.14449900 10286.28660330 0 145.54201371 0 3086.72447548 0 -33.42886760 0 465.69274098 0 22218
0.14550000 0.14550500 10306.41712576 0 128.32071221 0 2948.86089741 0 -48.33321806 0 390.00752213 0 23559
0.14650000 0.14650700 10001.25393292 0 113.54723788 0 2953.27519380 0 78.54685858 0 -78.57935579 0 23044
0.14750000 0.14750500 10029.49212035 0 -31.26364413 0 2680.24319852 0 -10.71543829 0 79.70167401 0 23649
0.14850000 0.14849900 10088.28655538 0 84.47033413 0 2796.60094571 0 43.65417480 0 -528.52215346 0 23640
0.14950000 0.14949500 9912.09180066 0 88.04347414 0 2629.82261720 0 -79.06015917 0 62.27951093 0 24457
0.15050000 0.15050000 9923.80410463 0 -2.71102127 0 2879.60746367 0 136.43614102 0 -7.94278324 0 24591
0.15150000 0.15149900 9840.98613702 0 105.69589047 0 2716.82196606 0 277.11799223 0 191.82779682 0 25020
0.15250000 0.15250500 9813.13614149 0 21.58746209 0 2838.12638708 0 139.73799035 0 154.97174936 0 25297
0.15350000 0.15350100 9829.66202494 0 184.65401063 0 2780.40779816 0 61.36426536 0 979.45583866 0 25452
0.15450000 0.15450400 9403.02804313 0 178.48065041 0 2914.18981575 0 -180.59574167 0 684.15050167 0 26061
0.15550000 0.15549900 9505.87671243 0 220.44308494 0 3557.59015072 0 -217.97307538 0 1560.36504266 0 26128
0.15650000 0.15649500 9173.51790468 0 14.57117090 0 3058.51956164 0 38.57085742 0 591.00662970 0 26331
0.15750000 0.15749700 9402.31820652 0 -55.02298441 0 3810.91308902 0 241.32115408 0 1001.07923623 0 27345
0.15850000 0.15849900 9322.84978039 0 38.54157666 0 2956.25872578 0 145.24476964 0 554.08736242 0 26980
0.15950000 0.15949700 9229.30662533 0 151.32052732 0 3402.92340928 0 -243.72572558 0 201.91967692 0 27777
0.16050000 0.16050000 8955.35406071 0 257.33018775 0 3130.67888898 0 -565.33050877 0 65.78798926 0 28224
0.16150000 0.16150500 8667.68168546 0 204.04696850 0 3411.67436367 0 36.90917429 0 -434.99008959 0 28075
0.16250000 0.16249700 8441.03307582 0 37.32254320 0 3240.07136448 0 293.55625523 0 -333.62098596 0 28590
0.16350000 0.16349900 8594.02504653 0 -210.98562131 0 2593.36585283 0 656.46687409 0 -487.95277326 0 29163
0.16450000 0.16449100 8774.32354412 0 -139.57494976 0 2181.23915663 0 666.34691233 0 -520.60636619 0 28996
0.16550000 0.16550500 8969.10714492 0 -38.38397075 0 1637.10503435 0 175.41171621 0 -739.08741840 0 30777
0.16650000 0.16650700 8714.10943589 0 117.83287638 0 1491.45543602 0 -273.78508755 0 -665.88440942 0 29211
0.16750000 0.16749900 8743.62311096 0 166.63968855 0 1819.86577766 0 -311.04485458 0 -375.57232930 0 30922
0.16850000 0.16850800 8547.22019541 0 137.13266819 0 1892.06946979 0 -156.73192231 0 -546.62409599 0 30867
0.16950000 0.16949900 8473.85192759 0 149.16883512 0 2107.32742016 0 182.45018980 0 -122.81393293 0 30852
0.17050000 0.17049200 8288.91730968 0 53.02734535 0 2178.98764364 0 145.78491093 0 -33.24874656 0 31257
0.17150000 0.17149500 8299.01029890 0 109.47321941 0 2400.54539388 0 24.22439417 0 189.97113045 0 32608
0.17250000 0.17250900 8148.66912427 0 173.14134820 0 2557.18636838 0 -105.23771312 0 345.48302110 0 32361
0.17350000 0.17350400 7930.56073628 0 166.44891996 0 2798.18698687 0 -237.89508334 0 639.40861318 0 32508
0.17450000 0.17449800 7833.61258376 0 11.85593498 0 2796.24602740 0 280.69823061 0 760.92043959 0 32791
0.17550000 0.17549800 7924.40512198 0 -33.23954087 0 2848.64084179 0 6.50752689 0 496.55399649 0 33633
0.17650000 0.17650100 7867.55164642 0 96.56750265 0 2836.83980823 0 84.39580129 0 649.09233724 0 33984
0.17750000 0.17750300 7813.22696377 0 146.99385139 0 2958.49914756 0 -107.96082380 0 518.61216898 0 34069
0.17850000 0.17849800 7643.13236737 0 29.52631904 0 2597.99088195 0 -118.67913471 0 436.62382290 0 34536
