### header ###
fiducial parameters:
Omega_m = 0.31
Omega_nu = 0
Omega_de = 0.69
Omega_k = 0
H_0 = 100
w_de = -1
zeff = 0
beta = 0
fgrowth = 0
b_1 = 2
gamma = 0.55
Lx = 3500 Ly = 3500 Lz = 3500
nx = 700 ny = 700 nz = 700
xoffset = 1379.75464 yoffset = 22.6059522 zoffset = 368.141391
bins = 400 dk = 0.001
kx_ny = 0.628318531 ky_ny = 0.628318531 kz_ny = 0.628318531
############################
A(data) = 3.30612587 (not used)
A(ran) = 3.30498123 (used)
Ngal = 186232
weighted Ngal = 0
Nran = 9399747
weighted Nran = 0
SN(data) = 6702.58428
SN(ran) = 131.456894
SN(data+ran) = 6834.04118
############################
13 columns: k_central k_mean P_0(k) sigma^{lin}_{P_0(k)} P^img_1(k) sigma^{lin}_{P_1(k)} P_2(k) sigma^{lin}_{P_2(k)} P^img_3(k) sigma^{lin}_{P_3(k)} P_4(k) sigma^{lin}_{P_4(k)} N_modes
### header ###
0.00050000 0 0 0 0 0 0 0 0 0 0 0 0
0.00150000 0.00179520 14998.51472111 0 -24551.36265262 0 -37722.49176454 0 30743.91064472 0 -18520.19157611 0 3
0.00250000 0.00253879 44762.29629151 0 -39981.76858289 0 -55559.35469667 0 21410.33567688 0 6285.31476338 0 6
0.00350000 0.00331552 92788.06637307 0 -64865.64532002 0 -97688.48992071 0 2569.47541460 0 -7460.98163989 0 7
0.00450000 0.00420575 131101.27528708 0 -45592.69420703 0 -110464.43968537 0 -47753.59210845 0 -24469.84235505 0 24
0.00550000 0.00557378 157918.68038818 0 7174.81766743 0 -110858.84264884 0 -111416.61894337 0 -22369.61330093 0 45
0.00650000 0.00659388 118847.72089868 0 24039.06026558 0 -33944.38643610 0 -66789.52434265 0 -56535.49094008 0 40
0.00750000 0.00754703 90364.30710398 0 31293.81218941 0 -14984.98346084 0 -78036.55260800 0 -408.56642198 0 57
0.00850000 0.00846663 68741.90774145 0 16471.75841174 0 18949.19907407 0 -7303.87483512 0 -52332.70368049 0 75
0.00950000 0.00948925 55710.63862304 0 312.60538599 0 41171.29945559 0 17678.48063971 0 -27606.54376397 0 112
0.01050000 0.01054430 56449.97781161 0 1524.77339165 0 7275.10427023 0 6479.51053074 0 -12752.65825107 0 105
0.01150000 0.01145670 58263.16668871 0 2935.24090756 0 25775.71988373 0 13133.08630639 0 -1783.74174920 0 144
0.01250000 0.01249090 53259.59500946 0 534.55354636 0 17898.41907519 0 1962.23238169 0 4924.14761791 0 169
0.01350000 0.01339930 53766.24088605 0 -1237.62230266 0 25530.04987133 0 13175.78741464 0 15899.11991331 0 180
0.01450000 0.01448870 59065.39296397 0 -4232.06801953 0 14639.04902802 0 19687.09640703 0 21127.62106667 0 267
0.01550000 0.01550050 62321.76838797 0 -5634.30586730 0 -6023.03013794 0 2022.49085471 0 4945.52035442 0 238
0.01650000 0.01653350 70002.31136265 0 -2177.94507113 0 894.11240550 0 17941.00927148 0 27017.82302996 0 315
0.01750000 0.01747870 71766.25532529 0 -461.79529438 0 -4172.54156551 0 -8411.15339124 0 18796.36238012 0 297
0.01850000 0.01844180 64862.98343275 0 3765.58336709 0 -3425.72691020 0 1313.91864647 0 27584.25045811 0 388
0.01950000 0.01947590 61792.60738157 0 2016.49051716 0 -3973.94259296 0 -4390.27285280 0 23781.30084850 0 399
0.02050000 0.02045430 62899.61974897 0 -89.38927998 0 -3370.67020855 0 3648.01667944 0 17012.67608691 0 462
0.02150000 0.02154770 64130.18805038 0 -1227.34076309 0 -2113.23902814 0 -2589.50611629 0 10968.17339167 0 571
0.02250000 0.02255340 60174.40174683 0 125.30390664 0 -2781.31727631 0 1758.78655606 0 7288.42479777 0 510
0.02350000 0.02348930 64982.10288797 0 2851.34709384 0 -3102.08578325 0 -11668.49374938 0 -645.18823591 0 555
0.02450000 0.02439640 60016.79583819 0 -496.22126058 0 -1137.49097662 0 86.58254168 0 -9674.85109793 0 592
0.02550000 0.02547300 57749.42244607 0 2068.76332837 0 3685.97075539 0 -5914.79114693 0 -2478.00631337 0 837
0.02650000 0.02652900 56683.33659540 0 2611.12285914 0 2019.74023786 0 463.32366132 0 -13655.70350659 0 723
0.02750000 0.02749970 55605.71589991 0 -754.85577310 0 3306.36344864 0 503.67232669 0 -4829.07387767 0 826
0.02850000 0.02848090 54787.29647710 0 787.84764754 0 8689.29842831 0 -4386.32438669 0 -20035.80363909 0 831
0.02950000 0.02946900 54114.61538219 0 2883.72229773 0 6080.49362933 0 -9326.68733453 0 -15206.36375192 0 996
0.03050000 0.03053250 49302.81049818 0 3335.36692866 0 17510.89265382 0 -6498.43211274 0 -19686.98549506 0 1041
0.03150000 0.03150510 50209.73767263 0 -63.45695240 0 19037.26317784 0 -4839.89888589 0 -16674.06184408 0 1036
0.03250000 0.03246190 48460.10135405 0 -60.15022294 0 22424.29290189 0 5100.61965255 0 -16315.26162280 0 1059
0.03350000 0.03345080 52290.66804406 0 -1329.14685988 0 18918.14372261 0 4028.81074426 0 -17518.87831563 0 1302
0.03450000 0.03451200 51555.54351033 0 -563.50489775 0 16557.71518809 0 5237.92867077 0 -8961.54294860 0 1339
0.03550000 0.03553350 52592.90316090 0 -92.18980721 0 17010.67967146 0 3719.05579589 0 -9288.57798182 0 1365
0.03650000 0.03647120 51896.70872846 0 636.01470692 0 11368.03322405 0 1239.94036283 0 -2304.45126352 0 1308
0.03750000 0.03744890 49468.51298058 0 3253.55825997 0 15013.93148487 0 -654.23532527 0 -1750.77871187 0 1579
0.03850000 0.03847530 45892.04561266 0 2317.26159600 0 15128.72537328 0 314.68942189 0 2878.60925594 0 1662
0.03950000 0.03950240 44079.96585526 0 324.27332518 0 15566.16218092 0 3723.56991305 0 2461.60243308 0 1683
0.04050000 0.04050350 43465.51354433 0 307.81177066 0 15302.30260552 0 3035.21695685 0 5951.62501199 0 1822
0.04150000 0.04152450 41172.96313513 0 485.79775369 0 11693.78167842 0 2117.77532769 0 2491.99231272 0 1887
0.04250000 0.04250150 42312.02906171 0 923.40647488 0 12854.58635102 0 1730.99201651 0 6723.00666854 0 1920
0.04350000 0.04349210 38615.33311887 0 1038.47431586 0 10488.06874938 0 -1620.80097483 0 4406.25526761 0 2005
0.04450000 0.04448520 39112.44056609 0 2109.17965005 0 14694.39410079 0 -1562.83837958 0 3642.38235139 0 2151
0.04550000 0.04548030 36888.98831388 0 143.52563411 0 15161.00075640 0 -1336.72214740 0 4210.67310062 0 2274
0.04650000 0.04648670 37374.22818036 0 -343.98460039 0 13186.54587568 0 1667.11781329 0 365.28080765 0 2311
0.04750000 0.04749250 37495.01131513 0 -484.82949220 0 12443.54659212 0 1084.14453753 0 -2495.45276617 0 2568
0.04850000 0.04851840 37672.02681842 0 606.83044039 0 10621.08547438 0 -177.80186916 0 -1375.10878003 0 2493
0.04950000 0.04949480 38146.84095978 0 16.09532319 0 13089.94155026 0 24.85160135 0 -3805.37858174 0 2644
0.05050000 0.05050630 37350.04937102 0 555.79318851 0 11033.82218641 0 -1837.88897270 0 -6106.10320309 0 2829
0.05150000 0.05149060 36848.72726896 0 617.42253347 0 13813.86397507 0 -855.81339332 0 -5469.75686938 0 2784
0.05250000 0.05249300 35328.01325539 0 827.47427600 0 11459.97924675 0 -1085.53537363 0 -6694.77957231 0 3055
0.05350000 0.05348950 35918.50858091 0 694.06159527 0 15251.83765941 0 156.76075943 0 -4698.79667831 0 3009
0.05450000 0.05448610 34767.46416162 0 -223.49316411 0 14088.03836363 0 -101.43786905 0 -7698.35543697 0 3336
0.05550000 0.05550870 35439.25796078 0 840.12600436 0 16382.91792419 0 -451.65239477 0 -7880.28434052 0 3349
0.05650000 0.05647670 34685.16748027 0 644.99413997 0 14585.36763479 0 -373.13004773 0 -8398.38742356 0 3324
0.05750000 0.05747970 33585.69712679 0 788.03508877 0 17236.49644132 0 -936.11809570 0 -6168.04753804 0 3639
0.05850000 0.05849280 32500.31259344 0 228.67718956 0 16557.16062825 0 505.80183651 0 -7486.25847773 0 3846
0.05950000 0.05951020 33664.77736103 0 -343.41007639 0 14199.72671690 0 4242.73775100 0 -5152.74827821 0 3787
0.06050000 0.06049470 32481.67938256 0 -29.59364261 0 14474.01201743 0 1429.06745319 0 -5640.63894076 0 3930
0.06150000 0.06148310 32692.07938867 0 780.11597415 0 11815.11937303 0 29.84363819 0 -4246.84149387 0 4083
0.06250000 0.06249100 33661.89364983 0 22.46943407 0 14656.24038329 0 350.81899595 0 -1041.36135443 0 4303
0.06350000 0.06350600 30789.16272827 0 243.64254160 0 11026.90127951 0 190.18297231 0 -4395.72972170 0 4470
0.06450000 0.06451750 32400.04817303 0 1053.47737797 0 14865.53126970 0 194.82352911 0 -1787.19111145 0 4479
0.06550000 0.06550280 30351.83683260 0 142.13479801 0 12186.23082292 0 409.34058753 0 -3173.63509476 0 4636
0.06650000 0.06648880 31204.08440610 0 324.55060510 0 14984.31798902 0 492.10642652 0 460.13605131 0 4653
0.06750000 0.06749660 30351.39318472 0 -30.04494341 0 12182.45981596 0 902.38754755 0 -1468.37465517 0 5220
0.06850000 0.06852730 29445.57512996 0 1398.53338799 0 15254.83228259 0 666.03414058 0 1128.76220462 0 5029
0.06950000 0.06949320 28251.71869045 0 977.11892346 0 14054.32112491 0 -1224.52359907 0 926.13490933 0 5040
0.07050000 0.07048030 27614.86216168 0 500.45809782 0 16182.83273124 0 1582.18142706 0 2868.27226039 0 5475
0.07150000 0.07148790 26530.14310015 0 111.31679817 0 14421.77247980 0 2197.38793938 0 2311.21689366 0 5509
0.07250000 0.07249820 26358.34045942 0 -159.94947855 0 11052.48867087 0 2289.14541173 0 2446.36312848 0 5916
0.07350000 0.07351270 26766.60741908 0 -258.67222259 0 11064.93299385 0 2267.02956502 0 1866.09388654 0 5721
0.07450000 0.07449140 26149.93686876 0 110.69424929 0 8463.06019296 0 436.21899421 0 2594.66352287 0 6028
0.07550000 0.07549160 26278.37292942 0 504.09490130 0 7660.66754974 0 -262.31346254 0 1397.37990351 0 6183
0.07650000 0.07648840 25010.31638233 0 301.52084376 0 6524.17478085 0 -38.72624509 0 538.77596503 0 6330
0.07750000 0.07749960 24937.44721838 0 118.43512837 0 6058.35560022 0 1561.56289193 0 -624.46655266 0 6583
0.07850000 0.07848650 24339.52079091 0 216.63880439 0 5207.38351437 0 -614.42680118 0 -1507.89258990 0 6549
0.07950000 0.07947320 23922.38087368 0 933.79892642 0 5600.99900287 0 177.04766776 0 -2424.19182578 0 6828
0.08050000 0.08048110 22667.63376293 0 447.58525285 0 5219.58383102 0 -645.71617689 0 -1916.35919111 0 7147
0.08150000 0.08149960 21981.31049577 0 419.28717295 0 5588.51031510 0 111.52420355 0 -2103.56750440 0 7386
0.08250000 0.08250610 21835.01760803 0 696.53825955 0 6064.67758249 0 -408.63407828 0 -2837.35000329 0 7227
0.08350000 0.08350160 20860.43413219 0 244.29248574 0 5353.26602783 0 353.46979202 0 -1444.52858173 0 7798
0.08450000 0.08449610 20431.75937014 0 133.86298333 0 5406.90305627 0 967.48843715 0 -1067.80720443 0 7371
0.08550000 0.08548940 20633.28641869 0 -361.36006953 0 4242.19428235 0 2215.47768160 0 -206.12434968 0 8256
0.08650000 0.08650700 20883.83655775 0 -307.16626300 0 3518.52695507 0 1397.80136899 0 627.12067609 0 8037
0.08750000 0.08749060 21302.30741860 0 512.91573023 0 2659.28083629 0 -6.78169019 0 1676.37896274 0 8155
0.08850000 0.08849210 19862.00458291 0 606.39788371 0 3815.17210864 0 -830.03412425 0 2694.40665703 0 8718
0.08950000 0.08949900 19626.42755973 0 375.94499352 0 4219.03586312 0 -342.20446328 0 2099.06447844 0 8571
0.09050000 0.09049190 18623.56153167 0 250.05103520 0 4642.22048268 0 -323.79751283 0 1362.36499474 0 8932
0.09150000 0.09150830 18787.82215847 0 463.43013681 0 5236.33153841 0 -292.51590095 0 1483.21467669 0 9285
0.09250000 0.09250820 18702.41994197 0 -146.21192201 0 4470.09619724 0 227.66012680 0 685.32173207 0 9204
0.09350000 0.09350330 18536.93928350 0 -107.35690812 0 4566.58961069 0 624.74161434 0 757.35018329 0 9349
0.09450000 0.09448040 18379.66611078 0 377.78835045 0 3943.23106861 0 -689.62511649 0 -1147.33995951 0 9564
0.09550000 0.09549270 18091.40590209 0 367.66985147 0 4876.02291435 0 -726.83719137 0 -77.81539414 0 10155
0.09650000 0.09649430 17749.79703609 0 276.16747665 0 5454.43992639 0 254.69824672 0 -1144.60043386 0 9913
0.09750000 0.09749140 17463.97689073 0 -15.52567931 0 5207.89370943 0 243.32533337 0 -441.25328851 0 10476
0.09850000 0.09850240 17833.75739699 0 -15.85774975 0 4267.99240645 0 386.78109294 0 -1559.67738845 0 10575
0.09950000 0.09950330 17489.04299584 0 217.55382814 0 5725.22040869 0 -68.93267633 0 -500.42038775 0 10882
0.10050000 0.10051200 17107.61673279 0 565.99930794 0 5602.21903453 0 -893.65655731 0 -160.03598989 0 10875
0.10150000 0.10150300 16694.91329434 0 461.64223586 0 6136.78145385 0 -246.56729024 0 -239.78391418 0 11118
0.10250000 0.10250800 16429.72277531 0 178.36862932 0 6958.06240547 0 527.31764947 0 1367.83295484 0 11575
0.10350000 0.10349800 15895.68164225 0 -19.03471220 0 5830.64223568 0 1172.52806778 0 952.69278042 0 11364
0.10450000 0.10450100 16226.53204722 0 77.67875059 0 6401.62814577 0 935.82861546 0 2382.23382772 0 12093
0.10550000 0.10551000 15869.72824139 0 123.20212482 0 4890.00891370 0 839.89198010 0 2993.92443061 0 12067
0.10650000 0.10649700 15518.13729814 0 248.91751487 0 5719.94099894 0 -0.72979521 0 4393.58912069 0 12054
0.10750000 0.10749900 15721.32802623 0 124.13822184 0 4748.60724381 0 463.47782895 0 3870.84991732 0 12807
0.10850000 0.10850100 15439.94435965 0 -28.40865913 0 5134.75835676 0 15.19937630 0 3105.75696944 0 12736
0.10950000 0.10950300 15120.85062345 0 178.60598094 0 5166.90064551 0 -153.56094911 0 3324.32009650 0 12933
0.11050000 0.11050200 15079.70228277 0 66.53176493 0 4612.34079810 0 -236.28575067 0 2113.05047779 0 13428
0.11150000 0.11150900 15037.44482240 0 273.42462365 0 5178.85695582 0 -415.76904528 0 1009.22350215 0 13453
0.11250000 0.11250000 14915.44165597 0 81.47548913 0 5405.81611897 0 -550.84207819 0 102.69427984 0 13668
0.11350000 0.11349100 14595.12788811 0 141.42717965 0 5038.17621373 0 -75.56365934 0 423.84121842 0 13791
0.11450000 0.11448600 14697.72145988 0 -154.00237875 0 5040.97119536 0 584.79445029 0 -202.16479237 0 14205
0.11550000 0.11549300 14693.17406913 0 46.40490256 0 4457.88478940 0 404.00128532 0 -384.94217248 0 14776
0.11650000 0.11649800 14841.57428429 0 83.35422698 0 4520.38368420 0 478.93341190 0 109.99827668 0 14553
0.11750000 0.11747300 14392.15898395 0 334.98076671 0 4414.62912130 0 -310.64778972 0 -628.77215531 0 14568
0.11850000 0.11849100 14155.80557699 0 304.69403520 0 4261.62605940 0 85.75192194 0 957.37548378 0 16015
0.11950000 0.11950300 13788.68695800 0 189.52415521 0 4607.42739785 0 81.21806245 0 95.86420985 0 15270
0.12050000 0.12050700 13773.38110621 0 91.10464450 0 4746.91029067 0 825.82501501 0 1565.84409395 0 15999
0.12150000 0.12150000 13623.53903544 0 -263.59116843 0 3898.62227448 0 510.50006753 0 850.63602258 0 15670
0.12250000 0.12250700 13691.30624879 0 134.28777617 0 4082.01521602 0 150.97115462 0 1782.39971437 0 16887
0.12350000 0.12352200 13502.75590067 0 405.65720102 0 3931.38567027 0 -472.41733369 0 854.07096628 0 16407
0.12450000 0.12449800 13109.01840901 0 238.71139544 0 4752.24515640 0 -836.80640911 0 1196.48505318 0 16306
0.12550000 0.12549900 12804.56505278 0 215.88127564 0 4926.78732278 0 -360.86207479 0 -299.47673616 0 17523
0.12650000 0.12650100 12725.48481854 0 194.91891341 0 5545.43210616 0 -441.83779459 0 -169.81288000 0 17154
0.12750000 0.12750600 12516.08302016 0 150.43988629 0 5153.26956446 0 -66.13170545 0 -578.69207373 0 18007
0.12850000 0.12850300 12654.39024611 0 -102.19584145 0 5658.26285271 0 493.84774444 0 -203.83179928 0 17496
0.12950000 0.12949900 12496.11886565 0 -49.25911118 0 4937.13540953 0 367.91829429 0 -901.19302563 0 18405
0.13050000 0.13049000 12751.77095531 0 73.48372717 0 4871.51988839 0 213.63863562 0 -451.55811959 0 18100
0.13150000 0.13148800 12498.44801701 0 50.81420791 0 4642.63085697 0 339.21427658 0 149.47938863 0 19059
0.13250000 0.13249300 12444.87753575 0 118.66360703 0 4637.38472081 0 296.45327587 0 413.47205839 0 18957
0.13350000 0.13349100 12299.02829588 0 91.01170027 0 4818.06031910 0 334.08681623 0 423.93438447 0 19468
0.13450000 0.13450700 12255.77262779 0 -59.68261807 0 4190.56476055 0 506.18559192 0 1074.73032956 0 19953
0.13550000 0.13551000 12202.53488243 0 21.79608751 0 3479.67449216 0 626.51398761 0 690.29280654 0 19956
0.13650000 0.13649900 12026.29576293 0 281.51232446 0 3849.38845123 0 -509.20239749 0 823.62008506 0 19723
0.13750000 0.13749600 11659.84261576 0 425.26089163 0 3941.26792675 0 -397.74695936 0 291.83711970 0 20946
0.13850000 0.13851100 11161.73696081 0 245.84303508 0 3970.14940360 0 -58.69627793 0 365.12553089 0 20955
0.13950000 0.13949800 10967.43028148 0 35.68248791 0 4271.15339758 0 103.86051920 0 -203.47355361 0 20506
0.14050000 0.14048300 11036.85008318 0 79.47607906 0 3619.37920892 0 245.11877991 0 -567.88259319 0 21447
0.14150000 0.14148400 10764.79411323 0 4.34731665 0 3192.36812641 0 610.36853222 0 4.20983017 0 21771
0.14250000 0.14249400 10671.96079478 0 43.34905598 0 2770.42572091 0 401.16970274 0 -100.64396117 0 22470
0.14350000 0.14350900 10676.04235525 0 109.47909775 0 2635.37930687 0 164.90280711 0 -104.87935655 0 22519
0.14450000 0.14449900 10505.09373669 0 156.78848742 0 2614.08420873 0 -2.59003849 0 -83.01794189 0 22218
0.14550000 0.14550500 10204.23392827 0 206.00123740 0 2667.85433153 0 -337.17127811 0 -76.37675498 0 23559
0.14650000 0.14650700 10202.94734943 0 48.76499836 0 2721.05880329 0 -155.86680895 0 -280.29894751 0 23044
0.14750000 0.14750500 10001.16520335 0 31.55722812 0 2903.69754344 0 88.54224527 0 -700.54661812 0 23649
0.14850000 0.14849900 10075.05475742 0 132.27250568 0 2907.20236167 0 -204.98861112 0 -614.28927034 0 23640
0.14950000 0.14949500 9855.22723390 0 187.62312405 0 3225.95227077 0 -359.59435098 0 -937.14735878 0 24457
0.15050000 0.15050000 9718.93860580 0 165.10799425 0 3619.41248251 0 -124.06723818 0 -620.24191574 0 24591
0.15150000 0.15149900 9845.25624785 0 -52.34579129 0 3093.74520315 0 176.39550538 0 -873.77004118 0 25020
0.15250000 0.15250500 9707.49249055 0 -45.55298772 0 3535.40775682 0 307.87388137 0 -634.90004163 0 25297
0.15350000 0.15350100 9866.15206290 0 99.81855429 0 3086.36955718 0 263.50576622 0 -463.24713206 0 25452
0.15450000 0.15450400 9689.20310679 0 18.00067991 0 2968.96923748 0 135.69192170 0 -168.75034333 0 26061
0.15550000 0.15549900 9673.10978001 0 101.12498638 0 3371.08058284 0 -92.65508292 0 -596.68088606 0 26128
0.15650000 0.15649500 9590.24744761 0 108.89104249 0 3117.65782377 0 -67.26589125 0 -175.98956758 0 26331
0.15750000 0.15749700 9403.88206529 0 86.29439238 0 3105.47968952 0 33.95980320 0 -484.18176630 0 27345
0.15850000 0.15849900 9382.45387279 0 53.43150856 0 2901.91186073 0 210.70945050 0 -94.17380052 0 26980
0.15950000 0.15949700 9174.18337649 0 150.27240921 0 2920.94435469 0 223.57634808 0 -755.54675467 0 27777
0.16050000 0.16050000 9082.93609920 0 181.14253768 0 3100.37773892 0 -123.22874369 0 -4.23255603 0 28224
0.16150000 0.16150500 8834.49328756 0 134.70258694 0 2832.00404637 0 96.47733121 0 -265.18164607 0 28075
0.16250000 0.16249700 8693.30235041 0 53.71200493 0 2834.33319772 0 234.91155136 0 -297.42486472 0 28590
0.16350000 0.16349900 8621.08756708 0 93.93223425 0 2725.05163419 0 -54.41330132 0 135.56991854 0 29163
0.16450000 0.16449100 8390.40176175 0 138.73534615 0 2630.67663936 0 150.13155101 0 -360.01581646 0 28996
0.16550000 0.16550500 8349.41978903 0 134.63714887 0 2885.55234523 0 -232.58129088 0 -60.83843171 0 30777
0.16650000 0.16650700 8089.07612307 0 171.35233813 0 2897.56411153 0 -20.17699458 0 -637.17817348 0 29211
0.16750000 0.16749900 8013.63380142 0 89.64870308 0 2967.38319632 0 32.61732472 0 -115.80207822 0 30922
0.16850000 0.16850800 7922.00942343 0 -17.82865545 0 2647.13597563 0 212.54171624 0 -361.80149917 0 30867
0.16950000 0.16949900 7947.40826445 0 -63.90559131 0 2615.55933792 0 427.76084742 0 -121.28556599 0 30852
0.17050000 0.17049200 8122.87100017 0 3.52073410 0 2322.82937687 0 183.68796738 0 -494.27253728 0 31257
0.17150000 0.17149500 8056.88946952 0 -19.29635354 0 1931.01066228 0 307.28715705 0 20.69373344 0 32608
0.17250000 0.17250900 8060.81575324 0 -16.94635073 0 1798.84795944 0 334.04688793 0 567.61085886 0 32361
0.17350000 0.17350400 8096.16339792 0 13.37254525 0 1568.00687736 0 84.54885981 0 25.27107042 0 32508
0.17450000 0.17449800 8124.41267654 0 49.71540302 0 1579.63045176 0 155.44977995 0 326.57253030 0 32791
0.17550000 0.17549800 7943.13815362 0 122.42241368 0 1520.60310160 0 -266.58135513 0 110.94857043 0 33633
0.17650000 0.17650100 7813.28241975 0 233.23678062 0 1862.98835139 0 -307.08418814 0 58.71857124 0 33984
0.17750000 0.17750300 7582.31933450 0 198.15310644 0 2018.68657415 0 -283.61854276 0 -101.78879452 0 34069
0.17850000 0.17849800 7393.00369379 0 69.40893233 0 2392.23808737 0 13.90248264 0 -147.09699953 0 34536
