### header ###
fiducial parameters:
Omega_m = 0.31
Omega_nu = 0
Omega_de = 0.69
Omega_k = 0
H_0 = 100
w_de = -1
zeff = 0
beta = 0
fgrowth = 0
b_1 = 2
gamma = 0.55
Lx = 3500 Ly = 3500 Lz = 3500
nx = 700 ny = 700 nz = 700
xoffset = 1379.75464 yoffset = 22.6059522 zoffset = 368.141391
bins = 400 dk = 0.001
kx_ny = 0.628318531 ky_ny = 0.628318531 kz_ny = 0.628318531
############################
A(data) = 3.39157635 (not used)
A(ran) = 3.39840792 (used)
Ngal = 190980
weighted Ngal = 0
Nran = 9399747
weighted Nran = 0
SN(data) = 6534.40684
SN(ran) = 135.172976
SN(data+ran) = 6669.57981
############################
13 columns: k_central k_mean P_0(k) sigma^{lin}_{P_0(k)} P^img_1(k) sigma^{lin}_{P_1(k)} P_2(k) sigma^{lin}_{P_2(k)} P^img_3(k) sigma^{lin}_{P_3(k)} P_4(k) sigma^{lin}_{P_4(k)} N_modes
### header ###
0.00050000 0 0 0 0 0 0 0 0 0 0 0 0
0.00150000 0.00179520 70204.72570695 0 -30538.50167724 0 -3632.51118610 0 43036.83878228 0 203773.01593122 0 3
0.00250000 0.00253879 67913.94988927 0 -24982.69930193 0 5325.24966434 0 -47958.44651608 0 -136768.87692762 0 6
0.00350000 0.00331552 99793.48818951 0 -12282.28058849 0 -26717.02976873 0 32096.14937664 0 24288.39037297 0 7
0.00450000 0.00420575 112257.33167205 0 1075.94148827 0 -3291.01323207 0 -22759.57978563 0 3559.55329258 0 24
0.00550000 0.00557378 83310.63858082 0 24112.48398937 0 33434.85684829 0 -28958.89340787 0 37639.41869940 0 45
0.00650000 0.00659388 70654.14100729 0 4830.06099419 0 38198.52593756 0 55271.31631193 0 -12844.49336180 0 40
0.00750000 0.00754703 59660.99024009 0 -8582.66766085 0 20493.98098502 0 24911.82655343 0 -2396.56365418 0 57
0.00850000 0.00846663 74501.23358075 0 -9023.55383074 0 2339.23325715 0 22250.82658162 0 18800.68794693 0 75
0.00950000 0.00948925 79210.33398103 0 -4742.45162950 0 4327.11957738 0 5706.21009712 0 7526.37533709 0 112
0.01050000 0.01054430 90615.96636273 0 -3514.10156748 0 -49864.24688770 0 -14917.10533551 0 -5803.93463343 0 105
0.01150000 0.01145670 87797.36048228 0 2120.84758924 0 -8286.15560164 0 -17366.37435759 0 -15710.79138913 0 144
0.01250000 0.01249090 83761.38482479 0 5861.86395509 0 -10794.77361858 0 -34762.25129906 0 -16528.21260421 0 169
0.01350000 0.01339930 71094.57243811 0 -1576.10345113 0 -13421.01377917 0 3461.82875627 0 -39587.58744335 0 180
0.01450000 0.01448870 82272.05889859 0 -3021.57478460 0 3386.12024590 0 1586.17425796 0 -35123.38067169 0 267
0.01550000 0.01550050 78443.48862403 0 429.31805147 0 -20154.70127037 0 -11720.95511094 0 -38737.22537333 0 238
0.01650000 0.01653350 79205.45385437 0 1985.06915620 0 -2378.15226724 0 -66.74649050 0 -20682.42042117 0 315
0.01750000 0.01747870 79461.32776797 0 2882.65754283 0 -15165.10449927 0 -10577.25306404 0 -21312.28949586 0 297
0.01850000 0.01844180 78542.42210081 0 -605.57824425 0 -6179.33837654 0 8695.93096409 0 -29057.05050086 0 388
0.01950000 0.01947590 69760.41235721 0 5090.14956263 0 577.94785442 0 -6816.02853735 0 -11814.01025334 0 399
0.02050000 0.02045430 64518.82359144 0 8232.85130911 0 -524.41064675 0 -15830.68722814 0 -17126.02811972 0 462
0.02150000 0.02154770 55261.99970649 0 5641.92551961 0 12620.45118344 0 -3918.77497934 0 -7754.62107909 0 571
0.02250000 0.02255340 46599.10941811 0 2185.15434915 0 16455.23252829 0 2478.88251793 0 -18450.98250715 0 510
0.02350000 0.02348930 50770.28676640 0 -1118.93540412 0 11420.05093774 0 5132.58448215 0 -5033.14081032 0 555
0.02450000 0.02439640 50238.13113682 0 -2086.07668681 0 8425.93795678 0 7148.43170989 0 -16295.29746830 0 592
0.02550000 0.02547300 51307.65525854 0 -209.64913207 0 7615.43764859 0 808.87212048 0 -6869.82084255 0 837
0.02650000 0.02652900 52725.44296443 0 240.73664800 0 1339.71677057 0 -5283.03656876 0 -16181.72361155 0 723
0.02750000 0.02749970 49379.78340500 0 2272.35333955 0 15956.23957759 0 -5260.55471254 0 3214.19560200 0 826
0.02850000 0.02848090 49288.05920624 0 697.07063700 0 15221.66960371 0 923.72146488 0 -11343.85441470 0 831
0.02950000 0.02946900 50478.69919863 0 -316.66476407 0 16446.35957073 0 -656.13191994 0 -3030.96902842 0 996
0.03050000 0.03053250 50281.49771689 0 -245.08994280 0 19180.45053044 0 3573.89421023 0 -3180.57818405 0 1041
0.03150000 0.03150510 52749.28903787 0 758.80202097 0 21602.65703196 0 307.91713704 0 2928.70819256 0 1036
0.03250000 0.03246190 52429.30800591 0 713.56213774 0 21805.73684808 0 -1309.39343812 0 6742.99300544 0 1059
0.03350000 0.03345080 51493.10007151 0 1204.92545406 0 27533.78551199 0 1266.12667882 0 2903.09861880 0 1302
0.03450000 0.03451200 51459.38283279 0 -275.52640547 0 22503.15131219 0 2951.54496707 0 10557.55509826 0 1339
0.03550000 0.03553350 52308.08122327 0 -932.30605131 0 25159.38206932 0 3900.99579063 0 7702.54790942 0 1365
0.03650000 0.03647120 51780.14024853 0 944.66053559 0 24608.14958099 0 3732.86433609 0 8784.77145164 0 1308
0.03750000 0.03744890 50849.47791261 0 1182.89833692 0 18277.73801082 0 1182.41032426 0 9241.77313070 0 1579
0.03850000 0.03847530 49226.72488711 0 2248.54053971 0 21551.19387812 0 -1335.93467241 0 9530.51026085 0 1662
0.03950000 0.03950240 45979.88789249 0 2365.75230906 0 23674.38170992 0 -1921.38350333 0 6316.23702047 0 1683
0.04050000 0.04050350 44160.26612117 0 676.06723734 0 23483.61312241 0 1241.36003604 0 3112.42277881 0 1822
0.04150000 0.04152450 43170.15496960 0 -35.04651868 0 21239.53124388 0 4444.38680271 0 4577.64753405 0 1887
0.04250000 0.04250150 43113.70077713 0 -853.04281232 0 16258.36378246 0 5597.57182301 0 4989.15312322 0 1920
0.04350000 0.04349210 43264.76287957 0 -236.18038429 0 14165.67674227 0 3569.22481632 0 2938.43517228 0 2005
0.04450000 0.04448520 43870.34223294 0 1402.91441078 0 14060.97584308 0 811.33103884 0 1855.77907338 0 2151
0.04550000 0.04548030 41109.63240056 0 1499.17490910 0 13580.94883916 0 -1632.57982599 0 5630.00248289 0 2274
0.04650000 0.04648670 39285.13050257 0 1408.42673567 0 15405.11800123 0 -989.60095651 0 1364.94924363 0 2311
0.04750000 0.04749250 38243.99984504 0 1240.88311457 0 15244.51746942 0 -1678.04264228 0 2321.28770049 0 2568
0.04850000 0.04851840 36588.74961249 0 -59.98241313 0 15031.23375211 0 1406.80742091 0 1545.89103064 0 2493
0.04950000 0.04949480 37035.94667344 0 173.84896656 0 14786.56194743 0 3552.08891703 0 3886.52177861 0 2644
0.05050000 0.05050630 37940.98834442 0 -1065.60671095 0 10969.80379762 0 5327.36808296 0 3796.01761151 0 2829
0.05150000 0.05149060 38754.86037648 0 -1267.40216647 0 10062.13351297 0 4072.42133066 0 5294.63796076 0 2784
0.05250000 0.05249300 38684.65309980 0 310.07992044 0 6424.38728191 0 983.18026259 0 5940.84436856 0 3055
0.05350000 0.05348950 37721.16082091 0 1436.48746395 0 9656.55062297 0 -2184.79943085 0 8186.22391713 0 3009
0.05450000 0.05448610 36260.22835889 0 1943.68790039 0 9099.98326891 0 -2518.17862872 0 9326.12168349 0 3336
0.05550000 0.05550870 34211.68428255 0 1651.73432312 0 13136.30275351 0 -1079.78569713 0 6396.35982722 0 3349
0.05650000 0.05647670 34249.94891202 0 6.36101218 0 14301.43299292 0 2038.25144557 0 7945.07911309 0 3324
0.05750000 0.05747970 32442.41654537 0 -38.74454556 0 12373.78296332 0 3132.84167239 0 9886.79278042 0 3639
0.05850000 0.05849280 32948.50786212 0 137.08497604 0 13691.30624879 0 2727.04804964 0 12106.37420489 0 3846
0.05950000 0.05951020 33727.66444773 0 -216.95268526 0 11824.87962635 0 1932.96271294 0 12615.46014482 0 3787
0.06050000 0.06049470 33312.63185793 0 -6.46274064 0 10240.41341272 0 2615.70352348 0 15821.48153467 0 3930
0.06150000 0.06148310 32219.26166277 0 327.14927254 0 9885.46183678 0 -83.52602963 0 12922.24265240 0 4083
0.06250000 0.06249100 32927.54549988 0 277.11022839 0 10407.38029158 0 79.78574528 0 14466.24817957 0 4303
0.06350000 0.06350600 32082.06355652 0 573.43262814 0 10463.63484250 0 -209.25761282 0 11266.99241985 0 4470
0.06450000 0.06451750 31169.92351950 0 735.87097128 0 11238.48804369 0 -1668.14929460 0 9582.49470095 0 4479
0.06550000 0.06550280 30325.88343174 0 432.11968782 0 8989.59258569 0 -104.02200703 0 7816.27704293 0 4636
0.06650000 0.06648880 30593.29219016 0 342.38081331 0 11239.15351551 0 -82.00099005 0 5250.01807544 0 4653
0.06750000 0.06749660 29897.54140560 0 255.25391569 0 9257.25644164 0 132.31797959 0 4016.12241495 0 5220
0.06850000 0.06852730 29642.88752367 0 159.86074897 0 10057.45302786 0 1375.27514799 0 2931.65845095 0 5029
0.06950000 0.06949320 29071.02540902 0 465.07385219 0 8691.71630925 0 -1352.60474143 0 952.37668131 0 5040
0.07050000 0.07048030 29037.52999423 0 81.71539172 0 8272.52452059 0 273.40022301 0 -173.38979101 0 5475
0.07150000 0.07148790 27938.72511257 0 749.17818938 0 10350.39372166 0 -1509.31226311 0 -1316.66926331 0 5509
0.07250000 0.07249820 27427.75366917 0 1011.27315535 0 11100.62446563 0 -1084.05691708 0 487.54572633 0 5916
0.07350000 0.07351270 26762.17094031 0 164.11644124 0 11584.08974060 0 -26.27149639 0 -1120.42162451 0 5721
0.07450000 0.07449140 26811.85950263 0 -25.19332113 0 11238.93169157 0 2312.63656687 0 89.19063664 0 6028
0.07550000 0.07549160 25815.87001668 0 -29.49526369 0 10649.70076250 0 2079.27778308 0 2317.57214951 0 6183
0.07650000 0.07648840 26836.59287183 0 88.72469546 0 9629.21082249 0 2017.36672172 0 4317.73642476 0 6330
0.07750000 0.07749960 26312.86655193 0 88.45151928 0 8602.05507312 0 1844.73224122 0 5434.76414301 0 6583
0.07850000 0.07848650 26245.98663433 0 399.52376911 0 9371.42922302 0 -193.42492918 0 6739.72110234 0 6549
0.07950000 0.07947320 25208.07242392 0 594.76099987 0 7798.64203978 0 -93.37634346 0 6614.96731907 0 6828
0.08050000 0.08048110 24578.09243726 0 902.93767091 0 10098.20208545 0 -1789.88627231 0 5582.45452157 0 7147
0.08150000 0.08149960 23806.92151345 0 687.15399781 0 10531.83461253 0 -326.83095519 0 4902.68615181 0 7386
0.08250000 0.08250610 22967.98337629 0 487.61449175 0 10987.50534795 0 548.67042183 0 4437.27734547 0 7227
0.08350000 0.08350160 22441.59516913 0 308.92089036 0 10303.82178567 0 546.29690568 0 3613.42323616 0 7798
0.08450000 0.08449610 22241.50997618 0 87.25733010 0 10343.15117005 0 960.05955344 0 3148.09206819 0 7371
0.08550000 0.08548940 21965.45008414 0 244.68178676 0 10280.51918088 0 132.19375819 0 3605.67048949 0 8256
0.08650000 0.08650700 21677.96625924 0 382.79824411 0 8985.57757239 0 -186.70699119 0 1814.65291509 0 8037
0.08750000 0.08749060 20885.50023729 0 282.36080103 0 9363.18846369 0 168.64164960 0 1874.40119305 0 8155
0.08850000 0.08849210 20805.75453123 0 20.06940997 0 8312.46392080 0 836.49141912 0 2232.66903687 0 8718
0.08950000 0.08949900 20568.51382851 0 58.13938893 0 7527.25154165 0 1599.37278233 0 417.69891355 0 8571
0.09050000 0.09049190 20633.39733066 0 -274.83209654 0 5989.95618864 0 1401.39491680 0 1763.46704118 0 8932
0.09150000 0.09150830 20171.33806579 0 51.15282215 0 4283.23171106 0 948.78646086 0 807.40586424 0 9285
0.09250000 0.09250820 20184.42567819 0 481.97129074 0 4666.35492724 0 209.34523328 0 1610.39743209 0 9204
0.09350000 0.09350330 19242.78305729 0 599.65776332 0 3862.72006996 0 -83.74341709 0 1249.83371050 0 9349
0.09450000 0.09448040 18648.62763677 0 507.50544436 0 4647.56643961 0 -26.95404865 0 1629.79593556 0 9564
0.09550000 0.09549270 17855.71796694 0 64.31053091 0 4220.04516204 0 132.23590473 0 1461.84194017 0 10155
0.09650000 0.09649430 18010.44016437 0 193.24081531 0 4990.12914855 0 -146.50472961 0 1416.75622458 0 9913
0.09750000 0.09749140 17922.48697257 0 96.38638340 0 4876.96566609 0 515.13951522 0 2153.92153854 0 10476
0.09850000 0.09850240 17987.81412260 0 -75.30035432 0 4515.80301986 0 193.82532139 0 2275.35905393 0 10575
0.09950000 0.09950330 18090.62951831 0 -3.73724536 0 4766.00933182 0 88.57174785 0 2533.56211888 0 10882
0.10050000 0.10051200 17828.76635836 0 266.07670567 0 5346.88858959 0 -132.69286205 0 2189.34682159 0 10875
0.10150000 0.10150300 17846.95592135 0 434.36565520 0 6018.17219368 0 -727.13443545 0 1985.53498647 0 11118
0.10250000 0.10250800 17242.48568768 0 317.22819687 0 6456.07483159 0 -843.29254109 0 2337.61394240 0 11575
0.10350000 0.10349800 16860.72668872 0 341.03212376 0 7103.74527738 0 -174.83608309 0 632.88698938 0 11364
0.10450000 0.10450100 16949.01261643 0 200.89706856 0 7284.99761791 0 -30.72439014 0 1655.59405966 0 12093
0.10550000 0.10551000 16387.79805085 0 364.11290461 0 7588.02020973 0 97.05362981 0 923.17577799 0 12067
0.10650000 0.10649700 16207.56610044 0 28.45712766 0 7221.35632982 0 297.60121475 0 1226.59765290 0 12054
0.10750000 0.10749900 15840.78021736 0 212.55391656 0 6694.20283007 0 178.40301203 0 567.00306127 0 12807
0.10850000 0.10850100 15733.97199075 0 196.18996458 0 7031.77450039 0 157.72458444 0 461.57347044 0 12736
0.10950000 0.10950300 15644.46603138 0 115.71778512 0 6675.11488012 0 -458.92932908 0 -321.67465773 0 12933
0.11050000 0.11050200 15189.83786847 0 231.00855916 0 6809.09653926 0 313.97293057 0 -595.84128245 0 13428
0.11150000 0.11150900 15235.31177596 0 99.04727246 0 6362.84223004 0 -192.47330448 0 -706.63346701 0 13453
0.11250000 0.11250000 14685.52114323 0 218.24148235 0 6595.94591630 0 500.64332081 0 -1468.65193510 0 13668
0.11350000 0.11349100 14772.14339140 0 183.61365636 0 5979.75228745 0 322.27025501 0 -35.16707999 0 13791
0.11450000 0.11448600 14383.50785033 0 -16.83000407 0 5754.95590771 0 865.38953277 0 -702.94231666 0 14205
0.11550000 0.11549300 14295.99830641 0 166.24151458 0 5562.01344559 0 660.20460746 0 402.47180926 0 14776
0.11650000 0.11649800 14129.74126416 0 73.86936809 0 4731.44916213 0 106.20941289 0 668.56515172 0 14553
0.11750000 0.11747300 14056.20662839 0 69.64328932 0 5276.92531924 0 724.15977643 0 1209.10683531 0 14568
0.11850000 0.11849100 14046.66819902 0 16.70090254 0 4420.85128279 0 33.94549556 0 746.44420933 0 16015
0.11950000 0.11950300 13945.84921876 0 118.41405510 0 4701.84675747 0 -47.77200350 0 962.78355141 0 15270
0.12050000 0.12050700 14050.77194189 0 200.83052138 0 4851.03444762 0 -338.14175784 0 1105.95204897 0 15999
0.12150000 0.12150000 13598.25110640 0 138.22182373 0 5023.21418905 0 -124.96007954 0 123.92194350 0 15670
0.12250000 0.12250700 13456.06196152 0 148.08078870 0 5154.16795141 0 -173.92438670 0 562.18171795 0 16887
0.12350000 0.12352200 13421.01377917 0 190.43696072 0 5203.52377783 0 91.28476554 0 -196.52602785 0 16407
0.12450000 0.12449800 13210.72468503 0 109.30696237 0 5571.71824292 0 112.65994212 0 111.91017721 0 16306
0.12550000 0.12549900 12879.98519203 0 -12.46317801 0 4802.45500499 0 727.17990935 0 583.50010761 0 17523
0.12650000 0.12650100 12941.31951116 0 95.16291346 0 4967.81366029 0 840.74267491 0 1359.92493141 0 17154
0.12750000 0.12750600 12963.28008111 0 116.24018050 0 3815.54920934 0 116.52633338 0 815.88508431 0 18007
0.12850000 0.12850300 12515.41754834 0 198.64888294 0 4290.30789471 0 313.44942607 0 1386.80999281 0 17496
0.12950000 0.12949900 12406.72381825 0 212.90661662 0 4051.68079237 0 -296.64182622 0 1616.48649922 0 18405
0.13050000 0.13049000 12156.72823904 0 -18.29126927 0 4336.35854444 0 133.10434546 0 1344.48598526 0 18100
0.13150000 0.13148800 12533.05255149 0 57.33605354 0 4424.89956968 0 -7.69482844 0 1331.14327533 0 19059
0.13250000 0.13249300 12234.03388177 0 14.09768770 0 4287.82346659 0 111.30903433 0 906.29386711 0 18957
0.13350000 0.13349100 12298.91738391 0 -23.64853922 0 3957.96017815 0 332.94996855 0 1354.96716638 0 19468
0.13450000 0.13450700 12277.06772593 0 134.36652367 0 3817.66762796 0 255.11860308 0 1475.39538284 0 19953
0.13550000 0.13551000 12275.95860623 0 -76.86754045 0 4031.43935794 0 373.44725596 0 1909.26082506 0 19956
0.13650000 0.13649900 12194.54922063 0 155.18470034 0 3604.00680995 0 381.08132682 0 1470.53743858 0 19723
0.13750000 0.13749600 12035.50145639 0 58.38938451 0 3827.80498197 0 -91.91419097 0 1821.75128114 0 20946
0.13850000 0.13851100 11723.61699821 0 157.19220699 0 3396.96743651 0 86.21531215 0 1941.11474270 0 20955
0.13950000 0.13949800 11810.01742244 0 167.62015036 0 3786.22408461 0 -287.29638367 0 1656.38153464 0 20506
0.14050000 0.14048300 11530.51925934 0 140.26593133 0 3480.88343262 0 -45.64227186 0 939.50312901 0 21447
0.14150000 0.14148400 11284.29468709 0 286.10962560 0 3673.74825636 0 22.25981045 0 1016.35292355 0 21771
0.14250000 0.14249400 10926.42612636 0 149.28196532 0 3402.98995646 0 131.20553254 0 995.60683966 0 22470
0.14350000 0.14350900 10930.40786606 0 15.19449617 0 3358.88026619 0 495.31178243 0 932.04984466 0 22519
0.14450000 0.14449900 10776.73933235 0 110.34942397 0 3206.98632399 0 24.92923973 0 782.61925730 0 22218
0.14550000 0.14550500 10533.37628891 0 125.00888080 0 2584.04924739 0 236.34564313 0 843.80606350 0 23559
0.14650000 0.14650700 10507.36743207 0 57.11234409 0 2954.16248955 0 130.55558840 0 760.44462724 0 23044
0.14750000 0.14750500 10371.96609972 0 41.04840899 0 2323.13993038 0 99.89974186 0 448.24074259 0 23649
0.14850000 0.14849900 10323.59738983 0 46.19283887 0 2953.29737619 0 137.60515318 0 659.05445034 0 23640
0.14950000 0.14949500 10176.88303660 0 227.11665815 0 2203.07772342 0 -416.90034737 0 40.18584661 0 24457
0.15050000 0.15050000 9920.05528007 0 189.89238295 0 2849.11776326 0 -209.06684423 0 94.73601329 0 24591
0.15150000 0.15149900 9705.87317580 0 167.42938177 0 2787.12906351 0 -114.23156473 0 107.27694059 0 25020
0.15250000 0.15250500 9568.04287132 0 13.21105742 0 2500.07779530 0 602.76329847 0 329.48840598 0 25297
0.15350000 0.15350100 9705.07460962 0 -54.89820845 0 2404.57149837 0 729.39149403 0 205.54428008 0 25452
0.15450000 0.15450400 9551.27298154 0 30.77285867 0 1696.27657006 0 422.36387099 0 812.56992554 0 26061
0.15550000 0.15549900 9529.64514749 0 114.89814567 0 1877.19617468 0 115.16655263 0 1365.54816827 0 26128
0.15650000 0.15649500 9285.49462907 0 94.49710891 0 1380.26618662 0 108.32661147 0 1267.81254076 0 26331
0.15750000 0.15749700 9293.44701728 0 161.00425138 0 1930.52264961 0 -169.41581514 0 1127.90818245 0 27345
0.15850000 0.15849900 9166.27535307 0 156.54669933 0 1891.27090361 0 -476.59206022 0 1218.36798476 0 26980
0.15950000 0.15949700 8976.54933807 0 76.02472039 0 2204.91886211 0 112.92613085 0 1130.89171443 0 27777
0.16050000 0.16050000 9035.64323541 0 49.52175073 0 2182.60337385 0 -248.63801671 0 776.76421443 0 28224
0.16150000 0.16150500 9052.10257169 0 -76.35900907 0 2245.23536302 0 147.65821409 0 594.53917593 0 28075
0.16250000 0.16249700 9020.06010370 0 -21.79298197 0 2558.78350074 0 285.13803674 0 808.45952795 0 28590
0.16350000 0.16349900 9131.28262670 0 89.47545858 0 1939.97234941 0 -196.54710112 0 640.95361692 0 29163
0.16450000 0.16449100 9030.95165911 0 109.54686496 0 2267.86140479 0 56.95196539 0 690.13642067 0 28996
0.16550000 0.16550500 8882.64017351 0 84.49063102 0 2306.94678284 0 -96.67819279 0 695.30713668 0 30777
0.16650000 0.16650700 8927.19351165 0 9.44483076 0 2348.74950413 0 162.63465733 0 1031.27169256 0 29211
0.16750000 0.16749900 8899.15496577 0 -18.91537092 0 1918.78816324 0 362.15752659 0 863.07590908 0 30922
0.16850000 0.16850800 8911.13345847 0 52.88371434 0 1895.80720316 0 177.34047536 0 704.04256340 0 30867
0.16950000 0.16949900 8730.10294188 0 114.64193902 0 1761.41516974 0 87.79580771 0 1153.59539458 0 30852
0.17050000 0.17049200 8667.47095272 0 135.57324590 0 1893.52241659 0 31.53083107 0 1293.95449196 0 31257
0.17150000 0.17149500 8515.05572426 0 75.31432923 0 1792.84762189 0 -37.82719266 0 1073.00786668 0 32608
0.17250000 0.17250900 8377.54706449 0 170.57151787 0 2026.74987433 0 -97.58833641 0 1514.50294328 0 32361
0.17350000 0.17350400 8213.75226796 0 210.96122067 0 2304.14071001 0 -44.06166538 0 1300.63139253 0 32508
0.17450000 0.17449800 8040.69632198 0 171.61630862 0 2414.48702845 0 -311.78463741 0 1251.50848124 0 32791
0.17550000 0.17549800 7888.65819421 0 142.46975216 0 2862.80430029 0 -40.27867993 0 1101.78841364 0 33633
0.17650000 0.17650100 7538.23182663 0 221.96146981 0 2806.21701346 0 -363.55945389 0 1148.03870491 0 33984
0.17750000 0.17750300 7644.15275749 0 -30.72572108 0 3182.51914352 0 -23.18049071 0 1216.94831155 0 34069
0.17850000 0.17849800 7473.17086533 0 15.90000721 0 3125.45493522 0 246.41866820 0 897.93110461 0 34536
