### header ###
fiducial parameters:
Omega_m = 0.31
Omega_nu = 0
Omega_de = 0.69
Omega_k = 0
H_0 = 100
w_de = -1
zeff = 0
beta = 0
fgrowth = 0
b_1 = 2
gamma = 0.55
Lx = 3500 Ly = 3500 Lz = 3500
nx = 700 ny = 700 nz = 700
xoffset = 1379.75464 yoffset = 22.6059522 zoffset = 368.141391
bins = 400 dk = 0.001
kx_ny = 0.628318531 ky_ny = 0.628318531 kz_ny = 0.628318531
############################
A(data) = 3.37054081 (not used)
A(ran) = 3.37263099 (used)
Ngal = 189171
weighted Ngal = 0
Nran = 9399747
weighted Nran = 0
SN(data) = 6598.00244
SN(ran) = 134.147689
SN(data+ran) = 6732.15013
############################
13 columns: k_central k_mean P_0(k) sigma^{lin}_{P_0(k)} P^img_1(k) sigma^{lin}_{P_1(k)} P_2(k) sigma^{lin}_{P_2(k)} P^img_3(k) sigma^{lin}_{P_3(k)} P_4(k) sigma^{lin}_{P_4(k)} N_modes
### header ###
0.00050000 0 0 0 0 0 0 0 0 0 0 0 0
0.00150000 0.00179520 34026.01764564 0 -21388.92966677 0 -43941.43680538 0 66391.12854827 0 163.77926886 0 3
0.00250000 0.00253879 52056.42196451 0 -18355.93094931 0 8716.22785450 0 -61001.80503916 0 -18879.99000511 0 6
0.00350000 0.00331552 54724.07665450 0 1754.52753644 0 -24873.78374790 0 -2574.78809794 0 50703.73958471 0 7
0.00450000 0.00420575 53602.09117122 0 7743.31914940 0 -5286.02010074 0 -18301.69499623 0 13701.39923802 0 24
0.00550000 0.00557378 49404.84951010 0 -6065.42069268 0 -740.90526558 0 16604.85277512 0 8854.71253960 0 45
0.00650000 0.00659388 61034.30224622 0 -10972.77623841 0 -24243.47102533 0 21004.06513267 0 -15878.93393486 0 40
0.00750000 0.00754703 62122.57049078 0 -788.25469447 0 -12944.97960615 0 -10304.65362544 0 18428.24555341 0 57
0.00850000 0.00846663 65811.94624364 0 -3518.48259028 0 -34127.94574559 0 -4720.03632047 0 3495.25762387 0 75
0.00950000 0.00948925 63206.40225656 0 -2187.72750684 0 -35859.94706102 0 -2941.36324827 0 20958.92396109 0 112
0.01050000 0.01054430 64424.88115329 0 -663.48427440 0 -12139.53688377 0 -19663.47215753 0 -12497.11707338 0 105
0.01150000 0.01145670 70143.39138783 0 -68.22106513 0 -29936.24968295 0 -17043.17687852 0 -13043.80217096 0 144
0.01250000 0.01249090 69653.27139469 0 -3575.59116336 0 -6723.94942028 0 -12901.50211411 0 -23028.20857572 0 169
0.01350000 0.01339930 76787.68383163 0 -4423.83481477 0 -18021.64227329 0 -18089.40948664 0 -36385.44797243 0 180
0.01450000 0.01448870 78264.58761725 0 5276.57040094 0 13996.97963669 0 -28435.83255979 0 -41382.03219760 0 267
0.01550000 0.01550050 72422.63236069 0 9338.36636492 0 24385.10561036 0 -29453.00623191 0 -68344.51015480 0 238
0.01650000 0.01653350 71389.93101284 0 1750.71216469 0 51667.23186360 0 -7370.51074638 0 -34627.71508008 0 315
0.01750000 0.01747870 73776.20203625 0 -5879.96478851 0 28212.01220538 0 20542.78225159 0 -46947.81665016 0 297
0.01850000 0.01844180 77732.54289965 0 -6468.40824260 0 37694.76377217 0 15325.92685502 0 -24337.41346348 0 388
0.01950000 0.01947590 86373.13988216 0 354.61329443 0 25920.68182784 0 2793.34013380 0 -41845.97696595 0 399
0.02050000 0.02045430 80524.86264333 0 8470.92385160 0 43734.80780623 0 -8171.41716921 0 -16350.08798122 0 462
0.02150000 0.02154770 71457.36549028 0 6899.44542960 0 35566.58490174 0 -6265.69443597 0 -15899.78538512 0 571
0.02250000 0.02255340 64678.75865144 0 2774.64037575 0 45659.35230069 0 2370.57697973 0 -9763.88013584 0 510
0.02350000 0.02348930 63573.18813964 0 1702.44327557 0 36911.05979581 0 11732.71177971 0 -7238.81387382 0 555
0.02450000 0.02439640 63024.61753858 0 -1265.59430137 0 37801.68291075 0 13642.50498222 0 -2855.59502227 0 592
0.02550000 0.02547300 63918.78983655 0 -1273.28050085 0 25347.48876956 0 9400.95398930 0 4669.30518563 0 837
0.02650000 0.02652900 62188.34128868 0 1201.56482139 0 26472.02522814 0 6406.50827243 0 6788.18963301 0 723
0.02750000 0.02749970 62122.45957881 0 2413.58864149 0 16305.72319343 0 3264.71600410 0 18623.67244364 0 826
0.02850000 0.02848090 60839.76265175 0 -1931.18812143 0 25300.24027056 0 6236.71313835 0 12422.47331792 0 831
0.02950000 0.02946900 63975.02220507 0 1788.05622481 0 22985.17473156 0 44.29347140 0 15056.74350509 0 996
0.03050000 0.03053250 58333.04122948 0 4126.23581825 0 23120.59824630 0 -5801.19510778 0 11316.12642233 0 1041
0.03150000 0.03150510 55402.96881970 0 2511.66809611 0 30177.48321657 0 -779.23422399 0 19271.50925738 0 1036
0.03250000 0.03246190 53284.66111456 0 -2150.39453791 0 25859.90206857 0 11096.07707488 0 21129.72839409 0 1059
0.03350000 0.03345080 60399.66395684 0 -2853.39896528 0 22649.66602387 0 11781.29122234 0 15432.73508163 0 1302
0.03450000 0.03451200 57379.19829193 0 -189.02505135 0 16287.42271846 0 5029.25889138 0 17895.20262808 0 1339
0.03550000 0.03553350 57817.41148336 0 2186.54074877 0 15184.07044606 0 -765.66081717 0 13712.60134694 0 1365
0.03650000 0.03647120 55446.44631174 0 3226.09645633 0 18741.23913129 0 -6954.60195202 0 17741.03499050 0 1308
0.03750000 0.03744890 50284.49234007 0 4555.97533521 0 20114.66204939 0 -5129.86713890 0 6048.12951664 0 1579
0.03850000 0.03847530 46371.07440885 0 3235.64597690 0 27727.10507480 0 -3083.20856605 0 10367.89563044 0 1662
0.03950000 0.03950240 42650.19965666 0 269.20775057 0 26657.69186505 0 2739.55891980 0 3360.69922249 0 1683
0.04050000 0.04050350 43292.15813603 0 636.91531211 0 28920.62877840 0 1919.12089915 0 -2509.25021517 0 1822
0.04150000 0.04152450 44306.33718497 0 -538.47761184 0 22892.00867719 0 5116.60206735 0 3853.11509340 0 1887
0.04250000 0.04250150 40578.69680265 0 759.50853022 0 22785.31136255 0 1451.03911434 0 -1743.48070428 0 1920
0.04350000 0.04349210 41829.00743462 0 1163.23364473 0 17508.45259049 0 273.32480287 0 3664.43165092 0 2005
0.04450000 0.04448520 38841.03897677 0 1942.51223351 0 19641.28976364 0 1393.74199091 0 -2626.68380846 0 2151
0.04550000 0.04548030 37500.88964951 0 2006.98536137 0 19889.39983937 0 -1935.46932345 0 1700.33594815 0 2274
0.04650000 0.04648670 33865.08437792 0 989.81168925 0 19931.99003565 0 1731.93476825 0 278.50106449 0 2311
0.04750000 0.04749250 33758.60888721 0 674.65754621 0 17592.19112745 0 2965.61969600 0 1634.80915658 0 2568
0.04850000 0.04851840 33128.07434071 0 -627.37355538 0 16736.50528290 0 4048.69726039 0 2154.16554487 0 2493
0.04950000 0.04949480 32919.78166202 0 -394.27430559 0 13425.67208188 0 4018.61793426 0 4915.85140259 0 2644
0.05050000 0.05050630 34272.46404182 0 -787.84432018 0 9872.08585326 0 4419.32069761 0 4433.70598005 0 2829
0.05150000 0.05149060 34214.23525785 0 -273.78286931 0 8989.52603850 0 -139.71248060 0 6428.06955930 0 2784
0.05250000 0.05249300 34238.08133129 0 403.79277082 0 7192.24193783 0 368.38523368 0 5800.03053210 0 3055
0.05350000 0.05348950 34966.77297078 0 -274.75334904 0 10153.08132795 0 -481.53762494 0 6686.69408974 0 3009
0.05450000 0.05448610 34092.45391536 0 -32.55798682 0 9376.59772080 0 -695.87278773 0 3664.46492451 0 3336
0.05550000 0.05550870 34407.66573262 0 1183.70799430 0 9636.20936777 0 -785.12586781 0 3466.01013752 0 3349
0.05650000 0.05647670 32485.67221347 0 879.96336556 0 10734.49296317 0 -1889.55176808 0 -142.50524399 0 3324
0.05750000 0.05747970 32104.80051026 0 790.09139668 0 13652.81979538 0 67.64676295 0 4865.30881810 0 3639
0.05850000 0.05849280 31873.21631799 0 -111.00957202 0 12030.39950580 0 838.97251987 0 -1264.07480739 0 3846
0.05950000 0.05951020 32169.46218847 0 -62.17835921 0 13486.11910525 0 838.54772703 0 3084.67260404 0 3787
0.06050000 0.06049470 31888.96581765 0 444.10039876 0 11080.26102803 0 -926.24582130 0 -1159.34063460 0 3930
0.06150000 0.06148310 31924.67947182 0 296.70504604 0 13167.02536905 0 -85.93969591 0 1479.63222007 0 4083
0.06250000 0.06249100 31214.84286714 0 733.89119263 0 11898.19243818 0 -1419.76193895 0 -2981.76847876 0 4303
0.06350000 0.06350600 30432.02618653 0 760.53446594 0 14940.17502516 0 90.90577934 0 -677.84515621 0 4470
0.06450000 0.06451750 30091.97008810 0 -419.78073122 0 10928.81073370 0 1795.88660986 0 -4414.80658045 0 4479
0.06550000 0.06550280 30246.58137356 0 -156.43135088 0 13730.90182190 0 2535.65835511 0 733.95663069 0 4636
0.06650000 0.06648880 29252.81012700 0 -47.46821561 0 9134.13306431 0 1179.62643382 0 -2184.74397486 0 4653
0.06750000 0.06749660 30141.43682649 0 256.45952879 0 9010.48840074 0 2408.45341731 0 2992.31620705 0 5220
0.06850000 0.06852730 29832.54699148 0 -82.69041885 0 8534.68714285 0 925.37516234 0 1881.17791439 0 5029
0.06950000 0.06949320 28783.87432003 0 820.61326157 0 7996.70863488 0 199.47406799 0 2860.64151689 0 5040
0.07050000 0.07048030 28302.29454854 0 889.42748391 0 8736.20310021 0 -165.62373491 0 4495.26212311 0 5475
0.07150000 0.07148790 27014.16293497 0 249.41772785 0 9015.74562809 0 -423.64934071 0 2156.96052651 0 5509
0.07250000 0.07249820 27422.87354251 0 260.35032068 0 9877.63145174 0 267.34775684 0 5435.27433807 0 5916
0.07350000 0.07351270 26731.55923673 0 393.06980161 0 8990.12496314 0 -127.35577808 0 2743.98430738 0 5721
0.07450000 0.07449140 26387.73213133 0 -103.10953425 0 11167.39347126 0 745.00679021 0 5569.53327713 0 6028
0.07550000 0.07549160 27334.03305496 0 -375.37934247 0 8844.33117925 0 1390.58099978 0 4114.03550161 0 6183
0.07650000 0.07648840 27824.59669598 0 -597.27204686 0 8660.36149547 0 1961.70000423 0 5313.82573148 0 6330
0.07750000 0.07749960 28241.18205335 0 -91.98084906 0 7825.33855083 0 -411.46122439 0 4053.49974867 0 6583
0.07850000 0.07848650 28703.68496609 0 554.29476780 0 8328.52397398 0 -1486.88586288 0 3886.90997050 0 6549
0.07950000 0.07947320 27378.17601881 0 558.35081853 0 8437.71680794 0 -589.69454110 0 2085.49994457 0 6828
0.08050000 0.08048110 27190.95661432 0 684.90359395 0 10650.94297656 0 -926.51422827 0 2669.83965579 0 7147
0.08150000 0.08149960 26281.70028851 0 425.68790271 0 9884.76309138 0 -277.12242871 0 256.33641651 0 7386
0.08250000 0.08250610 25697.85968115 0 516.31074562 0 10704.00326276 0 1082.72042785 0 559.00298091 0 7227
0.08350000 0.08350160 25015.19650899 0 480.14900709 0 11139.88730283 0 -58.65989880 0 596.38918758 0 7798
0.08450000 0.08449610 24445.10898585 0 469.26077904 0 10192.36634754 0 -34.22477189 0 -114.58648303 0 7371
0.08550000 0.08548940 23857.27554760 0 504.23354126 0 9998.88041678 0 999.99340805 0 347.65135010 0 8256
0.08650000 0.08650700 23119.71095054 0 184.28467377 0 9614.57044252 0 763.63778284 0 1946.30542287 0 8037
0.08750000 0.08749060 23218.20077944 0 -40.45769184 0 9023.24327723 0 1092.66368591 0 1960.29142222 0 8155
0.08850000 0.08849210 22909.20003246 0 397.68928513 0 8701.33237700 0 447.58747108 0 2254.54087726 0 8718
0.08950000 0.08949900 22097.54623979 0 817.64636638 0 8470.28056218 0 -805.24197172 0 2371.46427548 0 8571
0.09050000 0.09049190 21425.97426458 0 560.51692929 0 9559.14773137 0 468.62968994 0 4357.95310490 0 8932
0.09150000 0.09150830 20939.95801431 0 21.39292250 0 9135.14236324 0 1378.08122082 0 3092.66935704 0 9285
0.09250000 0.09250820 20863.87240324 0 93.65306882 0 8235.86811468 0 1087.09146856 0 4123.98430527 0 9204
0.09350000 0.09350330 20346.57897758 0 691.71026151 0 9430.67839712 0 242.26945142 0 4742.22980556 0 9349
0.09450000 0.09448040 19293.35891537 0 610.70126812 0 8076.21033461 0 -160.01158925 0 4500.10897618 0 9564
0.09550000 0.09549270 18802.12980254 0 584.27981875 0 8878.13714755 0 46.77468307 0 5300.64938951 0 10155
0.09650000 0.09649430 17950.76952479 0 357.94730823 0 8494.08227083 0 162.54592775 0 3961.86427948 0 9913
0.09750000 0.09749140 17584.31637762 0 56.52683981 0 8710.41606730 0 575.91261978 0 4126.21363586 0 10476
0.09850000 0.09850240 17678.36972774 0 42.48760271 0 8202.28397032 0 400.94566056 0 3361.63088304 0 10575
0.09950000 0.09950330 17262.67166612 0 34.16809588 0 7121.91265798 0 654.28634477 0 3330.03206293 0 10882
0.10050000 0.10051200 17443.01452850 0 160.84453814 0 7176.24843183 0 228.01393598 0 2818.80552200 0 10875
0.10150000 0.10150300 16793.84677112 0 183.43841545 0 6174.93517135 0 362.60228359 0 2764.44756575 0 11118
0.10250000 0.10250800 16794.40133097 0 167.09553674 0 6649.86022467 0 164.92277126 0 2679.41135875 0 11575
0.10350000 0.10349800 16906.97697999 0 103.08258264 0 5661.24638469 0 102.59434815 0 1356.36465719 0 11364
0.10450000 0.10450100 16211.66984331 0 319.51852904 0 6682.04687821 0 -529.45381400 0 1031.70092188 0 12093
0.10550000 0.10551000 16434.60290197 0 96.95935463 0 6225.27811430 0 269.86656767 0 1598.41893939 0 12067
0.10650000 0.10649700 15989.29134450 0 -130.26610816 0 5539.05466791 0 661.53000550 0 786.24829694 0 12054
0.10750000 0.10749900 16379.92330101 0 -97.80528022 0 5452.57660531 0 561.94436634 0 654.06673907 0 12807
0.10850000 0.10850100 15910.65475813 0 295.22437125 0 5224.46395767 0 676.10162005 0 1322.63632727 0 12736
0.10950000 0.10950300 15649.01342213 0 314.57296432 0 4550.17463921 0 157.62032719 0 1802.18640972 0 12933
0.11050000 0.11050200 15281.00750738 0 268.53229667 0 4565.59140296 0 398.91264416 0 1466.35605733 0 13428
0.11150000 0.11150900 14935.29489851 0 145.36122720 0 4584.82353847 0 175.65572255 0 1895.21936972 0 13453
0.11250000 0.11250000 14748.07549402 0 8.04339148 0 3826.08584644 0 356.83707942 0 1040.23227058 0 13668
0.11350000 0.11349100 14621.96858472 0 97.86938734 0 4169.43603037 0 64.92775602 0 1874.43446664 0 13791
0.11450000 0.11448600 14630.28698243 0 192.71620169 0 3521.27757191 0 -238.24556517 0 1309.37125572 0 14205
0.11550000 0.11549300 14231.66936411 0 205.03963062 0 4074.89466758 0 -473.45879709 0 778.71182862 0 14776
0.11650000 0.11649800 13992.87589382 0 106.88298128 0 4178.14261997 0 142.98438370 0 596.54113698 0 14553
0.11750000 0.11747300 14087.04015591 0 34.37993774 0 4026.01576263 0 -201.56475862 0 238.92656466 0 14568
0.11850000 0.11849100 14145.71258776 0 -104.95366757 0 3828.28190344 0 581.47707328 0 591.66211944 0 16015
0.11950000 0.11950300 14222.79640655 0 82.74443298 0 4047.24431359 0 149.29416564 0 -185.30728213 0 15270
0.12050000 0.12050700 14122.75381008 0 71.44139417 0 3111.23602073 0 -15.80318106 0 768.27501229 0 15999
0.12150000 0.12150000 14095.24764165 0 -89.80996908 0 3925.17459998 0 623.34412352 0 113.12133591 0 15670
0.12250000 0.12250700 14192.18470298 0 74.56489705 0 2949.78146676 0 84.90976736 0 1065.36159550 0 16887
0.12350000 0.12352200 13940.85818013 0 197.64402050 0 3003.69577512 0 109.98396903 0 99.58575007 0 16407
0.12450000 0.12449800 13707.83213225 0 213.52217805 0 2958.59896833 0 -165.13794048 0 1136.55931607 0 16306
0.12550000 0.12549900 13485.67545737 0 229.69868880 0 3316.85572096 0 -76.58671134 0 184.93461791 0 17523
0.12650000 0.12650100 13499.87218947 0 105.05626114 0 3428.51080063 0 -131.82331221 0 178.82558664 0 17154
0.12750000 0.12750600 12933.55567329 0 237.30835902 0 3390.00216483 0 96.00307163 0 11.34673813 0 18007
0.12850000 0.12850300 12910.26415970 0 91.24017893 0 3285.13489768 0 -94.53759178 0 83.93352020 0 17496
0.12950000 0.12949900 12820.09272851 0 -12.47704201 0 3178.27121509 0 373.61584216 0 -224.21409191 0 18405
0.13050000 0.13049000 12870.33585069 0 29.42782921 0 2689.36016241 0 198.38713069 0 -549.79728744 0 18100
0.13150000 0.13148800 12542.81280481 0 255.80625729 0 2868.33880757 0 143.44245013 0 317.71620954 0 19059
0.13250000 0.13249300 12280.39508501 0 239.97801013 0 2574.77700674 0 -72.97364303 0 -711.85963901 0 18957
0.13350000 0.13349100 11866.24979096 0 205.96352733 0 2565.68222524 0 144.17114177 0 109.78055648 0 19468
0.13450000 0.13450700 11754.56143770 0 212.17681586 0 3030.74720448 0 201.00354405 0 184.72943077 0 19953
0.13550000 0.13551000 11333.65051351 0 193.55691442 0 2909.98625211 0 -341.04876056 0 361.73273375 0 19956
0.13650000 0.13649900 11465.74666916 0 188.44054527 0 2867.41823822 0 -187.03196326 0 248.48052171 0 19723
0.13750000 0.13749600 11005.67272855 0 -81.02673931 0 3360.66594890 0 276.00776342 0 -32.16879672 0 20946
0.13850000 0.13851100 11445.44977875 0 -86.26411342 0 2921.43236736 0 246.11809676 0 628.38063606 0 20955
0.13950000 0.13949800 11468.63038037 0 -26.72545908 0 2938.93427614 0 303.96090708 0 113.62598538 0 20506
0.14050000 0.14048300 11386.99917083 0 247.68306465 0 3400.02860687 0 -464.45939988 0 924.72854556 0 21447
0.14150000 0.14148400 11143.76922176 0 375.37046952 0 3342.18801479 0 -389.79678939 0 447.27137197 0 21771
0.14250000 0.14249400 10738.60779724 0 270.88141219 0 4449.44438852 0 -244.23148416 0 1112.70215144 0 22470
0.14350000 0.14350900 10541.52831867 0 75.12810803 0 4081.60484173 0 264.31320535 0 595.41759873 0 22519
0.14450000 0.14449900 10490.67518066 0 78.95568010 0 4476.02998761 0 212.47405994 0 1176.42107790 0 22218
0.14550000 0.14550500 10387.22758672 0 148.28819408 0 4278.86177946 0 15.05119791 0 955.30364819 0 23559
0.14650000 0.14650700 10362.52749112 0 23.89243464 0 4413.28708647 0 70.99164613 0 1203.67214881 0 23044
0.14750000 0.14750500 10188.85043811 0 -73.38268637 0 3862.02132455 0 485.68129612 0 1140.35250543 0 23649
0.14850000 0.14849900 10334.00093257 0 84.88691949 0 3488.93564161 0 209.46612732 0 923.37652865 0 23640
0.14950000 0.14949500 10103.70331913 0 18.05114486 0 3329.16694957 0 107.32984560 0 1140.39687022 0 24457
0.15050000 0.15050000 9968.34635158 0 229.54008468 0 3399.11912872 0 219.75986721 0 976.53109002 0 24591
0.15150000 0.15149900 9705.44061912 0 257.35569751 0 3449.12933576 0 -21.92651998 0 1197.30580176 0 25020
0.15250000 0.15250500 9456.05505574 0 163.83250660 0 3229.27962985 0 121.67486700 0 812.87936993 0 25297
0.15350000 0.15350100 9210.68450565 0 118.45065605 0 3594.75675169 0 41.21865887 0 1285.42536151 0 25452
0.15450000 0.15450400 8971.66921142 0 200.76286508 0 2973.70517858 0 -79.45600399 0 987.94614992 0 26061
0.15550000 0.15549900 8952.96945336 0 39.54566272 0 3637.09185044 0 94.59970248 0 1356.80830507 0 26128
0.15650000 0.15649500 8882.49598795 0 56.46983105 0 3443.02917744 0 123.12892292 0 908.15718820 0 26331
0.15750000 0.15749700 8839.35123182 0 3.12747353 0 3432.79200266 0 37.78704253 0 1034.29848021 0 27345
0.15850000 0.15849900 8894.49666305 0 -39.47645365 0 3271.90309973 0 142.51855343 0 1243.68918740 0 26980
0.15950000 0.15949700 9033.25862807 0 -70.38728681 0 3130.19087632 0 129.41541335 0 980.04699946 0 27777
0.16050000 0.16050000 9083.20228793 0 87.67968288 0 3327.96910030 0 -232.94840950 0 708.58884503 0 28224
0.16150000 0.16150500 9063.10503906 0 173.17351267 0 3456.22770181 0 -374.94789491 0 365.42610233 0 28075
0.16250000 0.16249700 8769.63196781 0 86.50368327 0 3559.18728308 0 -86.12314430 0 327.27903955 0 28590
0.16350000 0.16349900 8802.07371888 0 84.97542724 0 3615.61929315 0 34.40234196 0 217.91318292 0 29163
0.16450000 0.16449100 8691.22829658 0 -10.53037057 0 3280.94242524 0 466.27281058 0 469.64231622 0 28996
0.16550000 0.16550500 8818.13377206 0 -73.50635321 0 2908.83276763 0 952.03174509 0 841.89837763 0 30777
0.16650000 0.16650700 8653.69568611 0 -3.39370662 0 2352.77560863 0 427.02661018 0 955.23488276 0 29211
0.16750000 0.16749900 8609.85218457 0 102.26693602 0 2003.10344244 0 306.67159562 0 1471.59110229 0 30922
0.16850000 0.16850800 8524.73833919 0 166.74727316 0 2267.18484178 0 -84.01781330 0 1182.93161051 0 30867
0.16950000 0.16949900 8289.41641354 0 88.20074732 0 2071.48067163 0 -204.76235070 0 1899.81112526 0 30852
0.17050000 0.17049200 8113.96476902 0 75.21561758 0 2297.11998234 0 78.70901188 0 1134.90672773 0 31257
0.17150000 0.17149500 8308.54872828 0 48.91816779 0 2126.29336694 0 -99.43712803 0 887.32459297 0 32608
0.17250000 0.17250900 8206.18807164 0 18.07687643 0 2276.70108876 0 -244.17380993 0 821.00145346 0 32361
0.17350000 0.17350400 8187.10012169 0 119.22593071 0 2319.05836990 0 -100.68522042 0 554.06739827 0 32508
0.17450000 0.17449800 8104.29324528 0 50.42967611 0 2608.57188384 0 -79.49271586 0 589.43057062 0 32791
0.17550000 0.17549800 8097.09505846 0 -10.01560594 0 2411.01548380 0 -33.47777978 0 310.01226414 0 33633
0.17650000 0.17650100 8231.55363906 0 -9.19089781 0 2546.87155522 0 351.75398385 0 468.77720285 0 33984
0.17750000 0.17750300 8191.85824518 0 -5.87516230 0 2307.51243388 0 186.78352045 0 513.88953732 0 34069
0.17850000 0.17849800 8134.99367843 0 80.75744504 0 2307.97826415 0 132.07619150 0 652.86223508 0 34536
