### header ###
fiducial parameters:
Omega_m = 0.31
Omega_nu = 0
Omega_de = 0.69
Omega_k = 0
H_0 = 100
w_de = -1
zeff = 0
beta = 0
fgrowth = 0
b_1 = 2
gamma = 0.55
Lx = 3500 Ly = 3500 Lz = 3500
nx = 700 ny = 700 nz = 700
xoffset = 1379.75464 yoffset = 22.6059522 zoffset = 368.141391
bins = 400 dk = 0.001
kx_ny = 0.628318531 ky_ny = 0.628318531 kz_ny = 0.628318531
############################
A(data) = 3.33856568 (not used)
A(ran) = 3.34399866 (used)
Ngal = 188040
weighted Ngal = 0
Nran = 9399747
weighted Nran = 0
SN(data) = 6679.32739
SN(ran) = 133.008827
SN(data+ran) = 6812.33622
############################
13 columns: k_central k_mean P_0(k) sigma^{lin}_{P_0(k)} P^img_1(k) sigma^{lin}_{P_1(k)} P_2(k) sigma^{lin}_{P_2(k)} P^img_3(k) sigma^{lin}_{P_3(k)} P_4(k) sigma^{lin}_{P_4(k)} N_modes
### header ###
0.00050000 0 0 0 0 0 0 0 0 0 0 0 0
0.00150000 0.00179520 91667.96639327 0 -97904.65734923 0 -164134.18715797 0 190191.84526812 0 78778.11003596 0 3
0.00250000 0.00253879 135642.01131768 0 -73998.46962309 0 -23218.31169141 0 -187487.81145214 0 -63180.44885570 0 6
0.00350000 0.00331552 167589.09500734 0 -9599.89678896 0 -108965.90806569 0 -70840.69493996 0 -5180.86446247 0 7
0.00450000 0.00420575 185516.90575445 0 14736.98429707 0 -35905.31005654 0 -138458.06622283 0 -5680.33433464 0 24
0.00550000 0.00557378 127145.04533564 0 36371.02941640 0 35550.94631405 0 -86055.15526566 0 13247.32563496 0 45
0.00650000 0.00659388 112033.28949369 0 26947.17210540 0 93538.94040647 0 25620.88677433 0 -59376.05739049 0 40
0.00750000 0.00754703 67524.75978835 0 10306.66113209 0 90560.84311390 0 1085.63297616 0 -43216.07252496 0 57
0.00850000 0.00846663 83248.74970185 0 4584.57953214 0 71056.30780864 0 48386.34489435 0 -19379.98116354 0 75
0.00950000 0.00948925 68173.92754573 0 -684.88695715 0 52726.99573200 0 34835.12046301 0 12136.54226059 0 112
0.01050000 0.01054430 69475.81224351 0 2716.14540304 0 44575.52053491 0 9178.45348732 0 -19668.13046025 0 105
0.01150000 0.01145670 68549.14273849 0 3300.67366461 0 42552.81894746 0 12679.78908712 0 6655.23945519 0 144
0.01250000 0.01249090 65072.82887901 0 -1186.22569601 0 29175.50448427 0 8694.60002045 0 -6069.81280667 0 169
0.01350000 0.01339930 62629.88183919 0 -7804.27636783 0 12243.46139917 0 19259.64167665 0 22795.29343980 0 180
0.01450000 0.01448870 76730.23143144 0 -3572.00870675 0 4823.19554328 0 7170.69174216 0 -9303.51782411 0 267
0.01550000 0.01550050 74593.29051542 0 2105.30882232 0 7064.09424829 0 -12240.79951191 0 -8343.30853951 0 238
0.01650000 0.01653350 72665.64048582 0 2108.84691414 0 10398.87334352 0 -3712.88909039 0 3430.34084813 0 315
0.01750000 0.01747870 76500.53274264 0 1215.48427356 0 12067.99866345 0 -5125.09792421 0 10853.21313530 0 297
0.01850000 0.01844180 76524.60064002 0 -3145.89601120 0 20151.81755916 0 11695.66718190 0 -2766.71016993 0 388
0.01950000 0.01947590 79633.90679248 0 3039.65343563 0 19660.03388648 0 -8742.41417050 0 -8838.02028819 0 399
0.02050000 0.02045430 76093.48581464 0 5294.91524069 0 25927.66928192 0 -5145.43917942 0 7992.47179765 0 462
0.02150000 0.02154770 68957.96425800 0 3927.32629218 0 37280.06391827 0 -1165.39642814 0 8358.03764906 0 571
0.02250000 0.02255340 64526.58742931 0 6530.70749586 0 46531.67494066 0 498.82325539 0 13737.55654007 0 510
0.02350000 0.02348930 59912.20585097 0 2121.55742585 0 40839.78357881 0 8045.44335427 0 13760.84805366 0 555
0.02450000 0.02439640 57989.43594803 0 415.16790241 0 42480.06069548 0 10110.38021970 0 14233.99851547 0 592
0.02550000 0.02547300 62421.92189641 0 -3529.76233757 0 31785.70677406 0 15916.86582842 0 30086.31357766 0 837
0.02650000 0.02652900 64197.73343979 0 -2156.46142264 0 31651.17055508 0 5995.00268326 0 17019.10898114 0 723
0.02750000 0.02749970 66850.85866178 0 2619.01979137 0 28963.32988665 0 -2639.17249622 0 31550.12975088 0 826
0.02850000 0.02848090 63368.33373201 0 2007.80610995 0 39035.57857124 0 -2107.84870642 0 17770.53757438 0 831
0.02950000 0.02946900 60756.13502676 0 1841.60452368 0 32607.45355596 0 -2695.30504398 0 19724.14100484 0 996
0.03050000 0.03053250 63824.51466249 0 -1502.73518332 0 41958.33079103 0 7345.63319163 0 19734.45581800 0 1041
0.03150000 0.03150510 64521.70730265 0 -668.11706737 0 33368.86422645 0 4494.57446890 0 6975.37576390 0 1036
0.03250000 0.03246190 66879.58486187 0 -1304.06966358 0 34298.30653071 0 7726.16106772 0 21982.19779153 0 1059
0.03350000 0.03345080 62960.39950825 0 1340.27133042 0 22430.83670809 0 2674.25395217 0 2721.11425928 0 1302
0.03450000 0.03451200 63869.21218619 0 3655.49214618 0 27739.08356750 0 -196.44949859 0 22884.57757524 0 1339
0.03550000 0.03553350 57949.95128689 0 1501.12695976 0 19936.64833837 0 4660.75387278 0 5607.14352598 0 1365
0.03650000 0.03647120 54889.00275312 0 1712.85790950 0 21812.94612610 0 3683.59723925 0 15134.27097176 0 1308
0.03750000 0.03744890 50672.35149734 0 2277.63274930 0 17387.22580785 0 1400.20815873 0 4127.57785308 0 1579
0.03850000 0.03847530 49463.07829408 0 1558.95646065 0 16777.98635948 0 2895.01313623 0 11161.18240097 0 1662
0.03950000 0.03950240 46128.50993160 0 462.93990590 0 8292.61067826 0 3417.71906600 0 2434.49554774 0 1683
0.04050000 0.04050350 45975.22958977 0 -336.13536031 0 11099.07169806 0 3086.62465471 0 5643.70011112 0 1822
0.04150000 0.04152450 46127.84445978 0 530.97996270 0 2865.17781644 0 1915.36098338 0 7727.81365607 0 1887
0.04250000 0.04250150 44510.41520882 0 1922.85863252 0 13154.82505241 0 -3442.18624647 0 2974.72556869 0 1920
0.04350000 0.04349210 41380.25760609 0 3058.91884473 0 10093.80997146 0 -5475.56865658 0 604.09535122 0 2005
0.04450000 0.04448520 39034.02580367 0 1825.00100185 0 17492.59217886 0 -1447.15719541 0 2765.42359109 0 2151
0.04550000 0.04548030 37938.88101700 0 636.35409755 0 15179.41214334 0 646.32064712 0 3856.95264755 0 2274
0.04650000 0.04648670 37563.66582424 0 375.70431454 0 18378.77881502 0 1786.57000442 0 4461.32306045 0 2311
0.04750000 0.04749250 36998.34751579 0 91.91707468 0 18498.89647797 0 2838.78076770 0 3080.62431716 0 2568
0.04850000 0.04851840 37638.86413955 0 74.66793427 0 16268.01312381 0 1870.53036532 0 6740.41984775 0 2493
0.04950000 0.04949480 36283.85260838 0 540.67588707 0 15372.62079418 0 1633.88858723 0 1761.72572326 0 2644
0.05050000 0.05050630 35271.00450307 0 905.43208111 0 14445.50764127 0 -1568.76107875 0 4297.70572307 0 2829
0.05150000 0.05149060 33752.39781692 0 1506.48400789 0 18035.17353357 0 -386.48052150 0 3327.21489891 0 2784
0.05250000 0.05249300 32981.89236493 0 238.71915928 0 14072.28886397 0 1113.07925213 0 2202.01296851 0 3055
0.05350000 0.05348950 31876.76550101 0 568.39833384 0 16001.82439705 0 1171.35240090 0 -596.03537840 0 3009
0.05450000 0.05448610 32580.05829950 0 382.96461207 0 11671.93202043 0 14.74630090 0 -1658.43340608 0 3336
0.05550000 0.05550870 31969.93155537 0 -270.73389927 0 15489.85474592 0 -94.43122720 0 792.65124494 0 3349
0.05650000 0.05647670 30821.65993532 0 80.91372001 0 12241.02133584 0 790.78570561 0 -1433.99194463 0 3324
0.05750000 0.05747970 32118.44268251 0 73.19191778 0 11845.28742873 0 700.45234295 0 -3064.48662560 0 3639
0.05850000 0.05849280 32202.62486735 0 -280.42316892 0 12070.21690284 0 1479.48803451 0 -837.59942969 0 3846
0.05950000 0.05951020 31214.06648335 0 504.37218122 0 12179.24336884 0 10.49870521 0 -579.91986923 0 3787
0.06050000 0.06049470 32241.22223273 0 -11.39797946 0 12123.89829607 0 1150.35676508 0 1964.81663057 0 3930
0.06150000 0.06148310 31959.83856615 0 -742.57449072 0 10919.43867228 0 2444.76599612 0 1013.74094667 0 4083
0.06250000 0.06249100 32549.89024380 0 598.88137954 0 10449.67102554 0 -261.40065703 0 1318.61022278 0 4303
0.06350000 0.06350600 32004.09244197 0 845.72484058 0 11443.56427527 0 -295.91535282 0 962.49850765 0 4470
0.06450000 0.06451750 30944.43948554 0 981.09179021 0 12508.76283017 0 -539.77528188 0 2983.26579035 0 4479
0.06550000 0.06550280 29443.57871451 0 1057.39478873 0 12932.44655360 0 -1544.88173172 0 2087.67381917 0 4636
0.06650000 0.06648880 28713.66704335 0 709.62032635 0 13000.99015074 0 494.34906654 0 269.54381383 0 4653
0.06750000 0.06749660 27915.87724686 0 269.97415228 0 13790.12881360 0 -320.78181638 0 1571.19005088 0 5220
0.06850000 0.06852730 27740.41451114 0 23.93069927 0 13031.38003038 0 1747.54008236 0 278.61530382 0 5029
0.06950000 0.06949320 28103.09665135 0 -84.37616987 0 12050.80730818 0 677.91281251 0 -1601.97921361 0 5040
0.07050000 0.07048030 27360.31919172 0 336.71764815 0 12840.50053090 0 -796.82153499 0 -2361.22710070 0 5475
0.07150000 0.07148790 27223.01017350 0 127.30808593 0 10486.21651948 0 953.30945097 0 -2196.15681652 0 5509
0.07250000 0.07249820 27169.66151618 0 -329.21888989 0 10837.46363564 0 856.74838122 0 -2933.36649528 0 5916
0.07350000 0.07351270 27482.21144618 0 36.14598903 0 9751.23617132 0 -487.73205844 0 -4781.27081882 0 5721
0.07450000 0.07449140 26785.35154193 0 1026.43482157 0 9341.21680254 0 281.77962231 0 -4449.46657092 0 6028
0.07550000 0.07549160 26104.79569718 0 398.28155505 0 10287.32917581 0 -6.84265850 0 -1568.79435234 0 6183
0.07650000 0.07648840 25027.84047351 0 166.99460685 0 7995.78806553 0 1541.26600152 0 -4148.90622482 0 6330
0.07750000 0.07749960 25146.84901677 0 468.79383965 0 8956.99555785 0 2022.53521949 0 -1303.01599987 0 6583
0.07850000 0.07848650 23663.40142494 0 20.22191392 0 6510.46606142 0 248.66241734 0 -1312.02205179 0 6549
0.07950000 0.07947320 23763.44402141 0 743.16676064 0 7955.73775335 0 1178.65040849 0 1059.66959323 0 6828
0.08050000 0.08048110 23166.62671363 0 203.86396375 0 5305.10805068 0 68.43933989 0 -722.74675793 0 7147
0.08150000 0.08149960 22864.28068482 0 -144.07797572 0 5920.55856934 0 466.87506258 0 64.14715758 0 7386
0.08250000 0.08250610 22841.76555502 0 53.59942928 0 5892.30929071 0 1408.78165397 0 938.81769304 0 7227
0.08350000 0.08350160 22918.18390199 0 -86.95409678 0 3954.45535992 0 -15.00694403 0 -290.09358354 0 7798
0.08450000 0.08449610 22681.27593518 0 216.79740851 0 5282.83692721 0 -338.08297450 0 1504.86469313 0 7371
0.08550000 0.08548940 22572.02764524 0 496.00276400 0 5137.47570001 0 -208.41911833 0 -1688.43509382 0 8256
0.08650000 0.08650700 21900.78840593 0 569.93335550 0 6675.18142730 0 -1355.37754066 0 801.97894157 0 8037
0.08750000 0.08749060 21563.28328280 0 477.55810348 0 7268.84883515 0 -394.76453650 0 -635.73077228 0 8155
0.08850000 0.08849210 21268.59017988 0 264.95427654 0 7902.25600167 0 258.33172284 0 1379.45652924 0 8718
0.08950000 0.08949900 20996.96676662 0 133.16645616 0 8393.50729690 0 16.64633385 0 47.43427655 0 8571
0.09050000 0.09049190 21075.60335298 0 385.85941447 0 8295.15056236 0 777.00267517 0 1857.87530960 0 8932
0.09150000 0.09150830 19812.64875649 0 347.17331951 0 8310.92224442 0 -108.98942140 0 1785.10596642 0 9285
0.09250000 0.09250820 20091.37053580 0 321.02249535 0 8727.04177153 0 156.62766506 0 2405.27024378 0 9204
0.09350000 0.09350330 19419.46582467 0 407.98967974 0 9047.47754256 0 -305.55471209 0 1407.08470084 0 9349
0.09450000 0.09448040 18960.73391889 0 621.84570282 0 9983.38601464 0 -1163.22255354 0 328.08869693 0 9564
0.09550000 0.09549270 18030.62614282 0 577.80699621 0 9916.17336113 0 -27.27491698 0 206.58352524 0 10155
0.09650000 0.09649430 18042.16098764 0 -382.42225254 0 9559.50264967 0 844.24638402 0 594.59241368 0 9913
0.09750000 0.09749140 18239.69520529 0 -368.74347934 0 8334.34685238 0 1563.91422568 0 -550.56479827 0 10476
0.09850000 0.09850240 18934.22595819 0 73.71420225 0 8099.62385136 0 168.19134700 0 -1842.09253634 0 10575
0.09950000 0.09950330 17829.54274215 0 345.49078494 0 7025.04214384 0 -176.80366143 0 -1302.86072311 0 10882
0.10050000 0.10051200 18014.10025936 0 329.87437963 0 7094.72813426 0 -610.63472094 0 -1531.38374503 0 10875
0.10150000 0.10150300 17584.20546565 0 31.68843698 0 7823.85233044 0 426.10271348 0 -2097.55607565 0 11118
0.10250000 0.10250800 17247.92037418 0 196.04910638 0 6624.16192134 0 1176.50980748 0 -1329.25777185 0 11575
0.10350000 0.10349800 16912.30075453 0 164.92720774 0 5757.67325096 0 1018.00773013 0 -1662.89206725 0 11364
0.10450000 0.10450100 16899.21314213 0 117.22286055 0 5271.97864540 0 985.34193688 0 403.08847981 0 12093
0.10550000 0.10551000 16554.83147689 0 103.48186573 0 4388.05461341 0 1046.66960129 0 329.24218141 0 12067
0.10650000 0.10649700 16002.71169280 0 205.47329642 0 4765.61004873 0 182.98145813 0 2441.78246414 0 12054
0.10750000 0.10749900 15736.63387802 0 399.38512915 0 4293.70180097 0 -237.44810811 0 1602.15667276 0 12807
0.10850000 0.10850100 15563.94394153 0 110.01624442 0 4709.75478090 0 445.70640408 0 2143.46253982 0 12736
0.10950000 0.10950300 15500.94594287 0 71.49119364 0 4484.78094200 0 13.58904541 0 1439.04953044 0 12933
0.11050000 0.11050200 15403.01067381 0 180.75101843 0 4742.85091259 0 -65.11186989 0 1519.31652276 0 13428
0.11150000 0.11150900 15162.10987610 0 286.50669045 0 5093.18855059 0 -895.49658688 0 732.37391689 0 13453
0.11250000 0.11250000 14801.31323937 0 307.55334578 0 5291.35496647 0 -547.32838700 0 342.74793193 0 13668
0.11350000 0.11349100 14419.66515238 0 448.65111687 0 6057.26866292 0 -456.58021357 0 148.41574284 0 13791
0.11450000 0.11448600 14125.08296144 0 308.58149973 0 6388.68471893 0 -311.07036433 0 -509.96658096 0 14205
0.11550000 0.11549300 13922.55770516 0 -178.61263565 0 5963.32622477 0 862.41709198 0 -56.66791983 0 14776
0.11650000 0.11649800 13990.21400655 0 29.27144334 0 5945.41394170 0 656.37703540 0 -617.75305114 0 14553
0.11750000 0.11747300 13978.90098566 0 -9.45185149 0 4841.76220697 0 20.34103338 0 -661.54220581 0 14568
0.11850000 0.11849100 13941.41273998 0 107.92411194 0 5267.68635218 0 -18.62766527 0 -580.03078120 0 16015
0.11950000 0.11950300 13591.26365232 0 162.24202896 0 4207.70065984 0 129.74814926 0 -1182.42141545 0 15270
0.12050000 0.12050700 13895.38427264 0 -5.15462269 0 5336.71796199 0 249.08388282 0 -670.46951024 0 15999
0.12150000 0.12150000 13249.98752222 0 148.06193366 0 4463.92949174 0 -73.01190765 0 -1789.12097972 0 15670
0.12250000 0.12250700 13467.15315847 0 309.80042228 0 5004.89153169 0 133.46702760 0 -103.36662820 0 16887
0.12350000 0.12352200 13110.12752871 0 -1.58097249 0 4228.69629566 0 200.67635374 0 -254.67606433 0 16407
0.12450000 0.12449800 12861.24106919 0 29.18837027 0 4907.41100171 0 678.99974981 0 -78.58800692 0 16306
0.12550000 0.12549900 13249.43296238 0 44.98578391 0 4490.83673553 0 359.78401044 0 -46.12784446 0 17523
0.12650000 0.12650100 12683.22735817 0 157.46061395 0 4466.46937584 0 -111.68502591 0 1200.99917034 0 17154
0.12750000 0.12750600 12735.91054367 0 164.22846233 0 4623.94219011 0 119.44442729 0 1408.37127968 0 18007
0.12850000 0.12850300 12966.71835217 0 -229.35153433 0 3749.53440510 0 674.68971068 0 1018.85287934 0 17496
0.12950000 0.12949900 12775.72794072 0 17.36038511 0 4432.09775649 0 156.70197608 0 912.46833645 0 18405
0.13050000 0.13049000 13239.89453300 0 21.68539736 0 3398.13201219 0 -11.71108395 0 1029.65015957 0 18100
0.13150000 0.13148800 12678.56905545 0 234.34368208 0 3957.59416866 0 -372.84056749 0 794.93270415 0 19059
0.13250000 0.13249300 12644.07543294 0 206.85969604 0 3649.15907272 0 -202.70604278 0 110.17240847 0 18957
0.13350000 0.13349100 12366.79550924 0 -18.30069679 0 4136.81682014 0 409.71657911 0 180.55137688 0 19468
0.13450000 0.13450700 12204.19856198 0 144.40960251 0 3392.76387287 0 159.05441896 0 -53.31505099 0 19953
0.13550000 0.13551000 12238.47036055 0 56.76485689 0 3122.93723351 0 487.77420499 0 277.02038970 0 19956
0.13650000 0.13649900 12139.20414786 0 -99.62157464 0 2553.65936775 0 887.81926035 0 787.73784469 0 19723
0.13750000 0.13749600 11964.62870790 0 88.57751528 0 2555.34522969 0 404.86307132 0 899.14115420 0 20946
0.13850000 0.13851100 11871.01900565 0 255.28940752 0 2230.69480382 0 88.98400764 0 1514.50294328 0 20955
0.13950000 0.13949800 11438.68414861 0 375.05991600 0 2662.34200665 0 -216.03211592 0 1328.15974335 0 20506
0.14050000 0.14048300 11115.81940545 0 351.32364541 0 2616.19153615 0 -383.32618509 0 2389.16582581 0 21447
0.14150000 0.14148400 10774.86492006 0 143.81844171 0 3377.00328201 0 -161.62092193 0 1595.14703629 0 21771
0.14250000 0.14249400 10735.57990047 0 -15.28965864 0 3245.17331508 0 267.04829452 0 1539.81305472 0 22470
0.14350000 0.14350900 10853.67896558 0 20.19695873 0 3167.04692378 0 110.80150116 0 1348.94464643 0 22519
0.14450000 0.14449900 10727.66078585 0 42.99912871 0 2956.99074477 0 15.70990409 0 1225.48853320 0 22218
0.14550000 0.14550500 10638.59847436 0 102.50683861 0 2999.05965480 0 -206.68667337 0 879.97334763 0 23559
0.14650000 0.14650700 10370.03623145 0 270.46327406 0 3099.55699035 0 -636.71456145 0 82.45595094 0 23044
0.14750000 0.14750500 10259.86737217 0 200.94032423 0 3621.61963070 0 -292.74216137 0 232.13986125 0 23649
0.14850000 0.14849900 10099.78812661 0 60.33954967 0 3342.21019718 0 32.28270331 0 -704.98531514 0 23640
0.14950000 0.14949500 10096.70477386 0 -104.72541074 0 3597.32990938 0 438.41616033 0 -212.09252276 0 24457
0.15050000 0.15050000 10270.39291807 0 -66.47974721 0 2705.98586664 0 485.38072469 0 -596.14296301 0 24591
0.15150000 0.15149900 10184.84651601 0 12.76763137 0 2987.01461491 0 187.27153311 0 -82.19253502 0 25020
0.15250000 0.15250500 10009.39487148 0 223.10275397 0 2606.52001241 0 112.97604123 0 -102.80241901 0 25297
0.15350000 0.15350100 9861.12775068 0 174.90263027 0 2880.23966189 0 -105.84129606 0 720.66050379 0 25452
0.15450000 0.15450400 9618.78509736 0 84.85231496 0 3046.24160662 0 196.94083861 0 627.74511047 0 26061
0.15550000 0.15549900 9712.39479960 0 -31.46783307 0 2715.92357911 0 496.11367597 0 1006.90655111 0 26128
0.15650000 0.15649500 9710.23201620 0 17.91505587 0 2671.40351455 0 261.80770396 0 1205.10291321 0 26331
0.15750000 0.15749700 9712.39479960 0 178.25771735 0 2326.34528630 0 -93.80169086 0 1124.63627935 0 27345
0.15850000 0.15849900 9252.56486533 0 275.82143131 0 3059.76177570 0 -406.66428171 0 1300.20992704 0 26980
0.15950000 0.15949700 9084.58868755 0 363.17126199 0 2833.62336112 0 -506.69245962 0 962.43750606 0 27777
0.16050000 0.16050000 8724.87898812 0 119.91691228 0 3495.29089746 0 33.21691483 0 1233.33000945 0 28224
0.16150000 0.16150500 8684.54030482 0 23.39832182 0 3308.38204649 0 65.83191040 0 438.64685722 0 28075
0.16250000 0.16249700 8724.82353214 0 -35.44003434 0 3383.11453153 0 182.07308910 0 515.65969235 0 28590
0.16350000 0.16349900 8617.81566398 0 -20.77802654 0 2941.74034897 0 139.19008522 0 351.37133756 0 29163
0.16450000 0.16449100 8740.11829273 0 27.32704560 0 3024.50286060 0 -41.00659518 0 122.65311057 0 28996
0.16550000 0.16550500 8687.94530228 0 41.45634322 0 2974.21537364 0 129.63945553 0 208.14738401 0 30777
0.16650000 0.16650700 8729.61492922 0 -22.80516461 0 2769.97098183 0 82.75752059 0 -197.66953025 0 29211
0.16750000 0.16749900 8705.62467022 0 -45.45704887 0 2546.23935699 0 76.35789995 0 72.19138090 0 30922
0.16850000 0.16850800 8823.60173216 0 28.43594347 0 2574.95446589 0 99.77851507 0 -230.88433775 0 30867
0.16950000 0.16949900 8690.92883426 0 37.88697422 0 2333.00000447 0 97.35486672 0 -172.06882945 0 30852
0.17050000 0.17049200 8810.27011343 0 114.38129589 0 2481.47785801 0 -51.93963166 0 -603.27238441 0 31257
0.17150000 0.17149500 8509.62103775 0 154.39167976 0 2209.13351695 0 40.76425253 0 -175.79768987 0 32608
0.17250000 0.17250900 8301.45036223 0 176.34448588 0 2409.57362820 0 94.46139526 0 -211.10651535 0 32361
0.17350000 0.17350400 8151.45301470 0 187.04970917 0 2204.95213570 0 65.26747939 0 -138.53570460 0 32508
0.17450000 0.17449800 7777.22493847 0 150.49090579 0 2399.86883087 0 388.95385842 0 336.73428495 0 32791
0.17550000 0.17549800 7680.83134580 0 143.48016020 0 2095.44874823 0 262.82698496 0 791.86044260 0 33633
0.17650000 0.17650100 7570.32975060 0 2.80937800 0 2160.60953030 0 358.93331564 0 1135.00654850 0 33984
0.17750000 0.17750300 7548.38027184 0 -75.54735528 0 1518.32940623 0 264.34647894 0 1154.95961181 0 34069
0.17850000 0.17849800 7621.06088544 0 84.84078011 0 1888.68665472 0 -30.02619929 0 1371.75923856 0 34536
