### header ###
fiducial parameters:
Omega_m = 0.31
Omega_nu = 0
Omega_de = 0.69
Omega_k = 0
H_0 = 100
w_de = -1
zeff = 0
beta = 0
fgrowth = 0
b_1 = 2
gamma = 0.55
Lx = 3500 Ly = 3500 Lz = 3500
nx = 700 ny = 700 nz = 700
xoffset = 1379.75464 yoffset = 22.6059522 zoffset = 368.141391
bins = 400 dk = 0.001
kx_ny = 0.628318531 ky_ny = 0.628318531 kz_ny = 0.628318531
############################
A(data) = 3.2852658 (not used)
A(ran) = 3.28374167 (used)
Ngal = 184345
weighted Ngal = 0
Nran = 9399747
weighted Nran = 0
SN(data) = 6685.39261
SN(ran) = 130.612082
SN(data+ran) = 6816.00469
############################
13 columns: k_central k_mean P_0(k) sigma^{lin}_{P_0(k)} P^img_1(k) sigma^{lin}_{P_1(k)} P_2(k) sigma^{lin}_{P_2(k)} P^img_3(k) sigma^{lin}_{P_3(k)} P_4(k) sigma^{lin}_{P_4(k)} N_modes
### header ###
0.00050000 0 0 0 0 0 0 0 0 0 0 0 0
0.00150000 0.00179520 22747.82311687 0 -12241.35407175 0 -15705.02396671 0 9614.52607773 0 -74671.15071800 0 3
0.00250000 0.00253879 41835.77306476 0 -7688.85028119 0 -4474.31085208 0 -21712.57079372 0 47565.48540821 0 6
0.00350000 0.00331552 45229.45750697 0 -2893.46036866 0 -15034.67202316 0 2877.03430598 0 19517.06835782 0 7
0.00450000 0.00420575 43531.06251829 0 655.63725256 0 -2307.92280817 0 -16921.72827193 0 5707.27485203 0 24
0.00550000 0.00557378 47753.92484436 0 -1080.72290328 0 -1393.75308210 0 -3408.59101092 0 -15432.18052179 0 45
0.00650000 0.00659388 46510.71257843 0 -7882.03674963 0 10940.73377042 0 -1248.11457498 0 -10505.48192858 0 40
0.00750000 0.00754703 59429.18422387 0 -5060.38079002 0 1925.29869585 0 -17410.85005735 0 -14538.67369564 0 57
0.00850000 0.00846663 58009.51101450 0 -3699.80147799 0 -2911.84957320 0 1434.40231892 0 -14091.69845863 0 75
0.00950000 0.00948925 67161.41217633 0 -3387.26263918 0 -7355.57090409 0 -5953.36632991 0 -16099.31601822 0 112
0.01050000 0.01054430 72904.54486809 0 701.86203408 0 16326.24190778 0 -23030.09407920 0 -20939.62527840 0 105
0.01150000 0.01145670 73376.91894611 0 5247.37837057 0 -735.39183157 0 -11316.57007021 0 -33369.97334615 0 144
0.01250000 0.01249090 66887.90325958 0 3701.78680224 0 24438.45426768 0 -7720.41582770 0 -13629.52828179 0 169
0.01350000 0.01339930 59177.85770103 0 3645.05532985 0 28763.24469370 0 -578.89504264 0 -9816.92933084 0 180
0.01450000 0.01448870 62694.65442937 0 -2545.87334750 0 22074.58746211 0 16949.34535233 0 -19717.15355076 0 267
0.01550000 0.01550050 75322.75853871 0 -5949.90587646 0 19433.44073283 0 7135.51046544 0 -6228.94930049 0 238
0.01650000 0.01653350 71812.50561657 0 508.12987875 0 6972.19259038 0 7038.62886010 0 -5310.98638507 0 315
0.01750000 0.01747870 74604.60353631 0 376.47626185 0 13805.43466539 0 -12324.42713690 0 -5990.98766996 0 297
0.01850000 0.01844180 73914.62017416 0 -5587.26810105 0 4558.33776016 0 1360.64585921 0 -15820.59423891 0 388
0.01950000 0.01947590 82012.96853788 0 -702.19698823 0 16175.29071732 0 -4807.11330771 0 -17303.70909483 0 399
0.02050000 0.02045430 78668.19627420 0 1762.08064156 0 -1364.79396687 0 -3505.78316977 0 -21307.96392905 0 462
0.02150000 0.02154770 84512.36977016 0 -2615.40406116 0 12719.71739613 0 -307.22504635 0 -32305.77299897 0 571
0.02250000 0.02255340 81424.69145174 0 835.45993780 0 8510.36414795 0 -9786.45072163 0 -28056.18088825 0 510
0.02350000 0.02348930 80618.25052164 0 6390.15984813 0 7709.09171562 0 -8555.31676918 0 -38678.33111754 0 555
0.02450000 0.02439640 73458.99380353 0 4669.66010393 0 19104.69765528 0 -12469.27816904 0 -36034.07885311 0 592
0.02550000 0.02547300 66234.29902343 0 2831.48276011 0 19216.94056840 0 3850.23138220 0 -28004.71773441 0 837
0.02650000 0.02652900 66355.41489410 0 1677.02225216 0 29373.70417373 0 3371.46877473 0 -30065.57303936 0 723
0.02750000 0.02749970 65923.74550888 0 186.54727795 0 10357.82482361 0 2512.52211827 0 -12193.77283685 0 826
0.02850000 0.02848090 61222.07621055 0 2754.73167723 0 26609.00151045 0 5626.79712697 0 -18405.61951164 0 831
0.02950000 0.02946900 57665.79482108 0 3776.03127461 0 15244.51746942 0 -6747.38511944 0 -7390.14216498 0 996
0.03050000 0.03053250 55809.23936391 0 1926.94019300 0 27266.82040145 0 3332.73831499 0 -10962.25069250 0 1041
0.03150000 0.03150510 49923.91752728 0 3766.81448995 0 26299.11346772 0 -2005.08876669 0 -6921.55018511 0 1036
0.03250000 0.03246190 50678.89530354 0 324.68924506 0 22137.69637274 0 3358.03733523 0 -3688.56609548 0 1059
0.03350000 0.03345080 48911.29124591 0 -962.66820296 0 25711.39094143 0 2410.80475106 0 -11577.54593440 0 1302
0.03450000 0.03451200 46860.52893018 0 1940.59345644 0 20394.60386036 0 409.43375358 0 -8110.87032507 0 1339
0.03550000 0.03553350 47609.62837206 0 701.19101667 0 17660.51290065 0 2129.35453730 0 -8286.15560164 0 1365
0.03650000 0.03647120 47522.67338799 0 -1678.68593170 0 16227.64116691 0 6402.93690701 0 -3105.98988458 0 1308
0.03750000 0.03744890 46538.21874686 0 -495.38831169 0 7862.70479335 0 6419.32969610 0 -10897.74429105 0 1579
0.03850000 0.03847530 48607.39244952 0 552.56565020 0 9243.13734792 0 1660.27454477 0 -4097.04378789 0 1662
0.03950000 0.03950240 43818.10269531 0 830.17720069 0 5130.38842516 0 -347.65356834 0 -3412.79457456 0 1683
0.04050000 0.04050350 44203.96543714 0 2084.44628086 0 8282.42895946 0 -1522.54406107 0 130.28385407 0 1822
0.04150000 0.04152450 41670.29240629 0 370.60680043 0 5902.55755669 0 2377.23169790 0 1564.30241758 0 1887
0.04250000 0.04250150 42349.07365952 0 -557.52452436 0 12099.49766279 0 1472.35639488 0 1645.05742256 0 1920
0.04350000 0.04349210 41997.59362823 0 1204.19343506 0 10138.45203917 0 -138.04880106 0 4968.96714477 0 2005
0.04450000 0.04448520 40290.99115381 0 1984.73642029 0 13909.02644489 0 -3398.89730478 0 2459.79456798 0 2151
0.04550000 0.04548030 39135.73207968 0 1752.83058330 0 17945.00210238 0 -2446.18566932 0 7384.25273940 0 2274
0.04650000 0.04648670 38747.31836255 0 561.88669212 0 19716.70990289 0 -421.88805864 0 3868.88677546 0 2311
0.04750000 0.04749250 37104.60118255 0 692.69737804 0 23930.92109533 0 -696.29758057 0 6786.43722389 0 2568
0.04850000 0.04851840 36647.31113238 0 1529.81988627 0 22629.14730952 0 -411.58877315 0 4265.26397200 0 2493
0.04950000 0.04949480 35467.65142497 0 1185.99278087 0 24649.18700970 0 -730.77123893 0 2660.06831127 0 2644
0.05050000 0.05050630 35219.87408514 0 -603.38773286 0 21436.28907774 0 4138.66905003 0 4083.14651811 0 2829
0.05150000 0.05149060 34669.75071651 0 -1552.21301290 0 21842.33779801 0 5081.25442268 0 2803.04493113 0 2784
0.05250000 0.05249300 36807.91166419 0 -887.45214173 0 13039.92025203 0 3281.70771783 0 2768.48476144 0 3055
0.05350000 0.05348950 37604.03778113 0 -314.58294640 0 11348.40180545 0 2644.88446265 0 748.76116038 0 3009
0.05450000 0.05448610 37228.37894050 0 273.35918558 0 8542.89462860 0 312.01644343 0 959.03694508 0 3336
0.05550000 0.05550870 36882.44450768 0 521.86188969 0 7910.48566981 0 -846.34816584 0 1080.27814628 0 3349
0.05650000 0.05647670 35950.34031615 0 1002.09740811 0 7279.13037472 0 -616.76038902 0 -1987.01011567 0 3324
0.05750000 0.05747970 34147.68807616 0 766.96846929 0 10478.98505907 0 -821.70685358 0 -2647.55744112 0 3639
0.05850000 0.05849280 33816.06128741 0 841.64217098 0 10058.08522609 0 -625.49914309 0 -2169.54903504 0 3846
0.05950000 0.05951020 32720.36194089 0 1034.12434842 0 9349.18028194 0 -1512.59525740 0 -2422.04013357 0 3787
0.06050000 0.06049470 31800.90171388 0 407.18667708 0 13919.56308199 0 452.05833257 0 -2866.28693613 0 3930
0.06150000 0.06148310 31247.22916223 0 283.28691597 0 11187.46853773 0 515.13286050 0 -3234.01557095 0 4083
0.06250000 0.06249100 31466.94577377 0 401.14086562 0 13291.69042275 0 -85.22231729 0 -2320.35603995 0 4303
0.06350000 0.06350600 30400.52718720 0 47.87415342 0 12163.27204524 0 1200.53334007 0 -985.47503124 0 4470
0.06450000 0.06451750 30570.33341248 0 473.38781343 0 11503.23491485 0 701.78994130 0 -1838.80954205 0 4479
0.06550000 0.06550280 30278.74584471 0 938.85096663 0 12608.69451468 0 -1729.55016091 0 -3262.98577738 0 4636
0.06650000 0.06648880 28569.81421893 0 1065.23071938 0 13531.37118880 0 -610.80552537 0 -2498.99085799 0 4653
0.06750000 0.06749660 27916.43180671 0 868.14902257 0 14287.34717279 0 -1638.97944663 0 -3819.84150256 0 5220
0.06850000 0.06852730 26198.07266352 0 332.88896696 0 13856.67599529 0 321.26539256 0 -5294.90414949 0 5029
0.06950000 0.06949320 27131.17506277 0 177.59002730 0 15334.91072455 0 1419.72866536 0 -6305.77802175 0 5040
0.07050000 0.07048030 26272.05094716 0 -29.62358884 0 13329.40049237 0 61.38844416 0 -5163.20727693 0 5475
0.07150000 0.07148790 26691.52001575 0 -79.23484553 0 13586.05078976 0 1433.33756401 0 -4288.15620250 0 5509
0.07250000 0.07249820 26606.00688727 0 -365.25862526 0 10626.66434644 0 1756.13575999 0 -3443.91647320 0 5916
0.07350000 0.07351270 26845.90947726 0 -250.16749277 0 10510.65042636 0 875.36273706 0 -4873.90449573 0 5721
0.07450000 0.07449140 26943.40109844 0 447.80929502 0 9162.39343414 0 -103.39435619 0 -4640.87844785 0 6028
0.07550000 0.07549160 26126.53444320 0 892.21248346 0 11337.42152047 0 -402.85556467 0 -3075.43363698 0 6183
0.07650000 0.07648840 25150.17637585 0 711.79641919 0 10813.79502135 0 -197.27024716 0 -3622.26292012 0 6330
0.07750000 0.07749960 24679.57688934 0 -48.77287311 0 10815.14814738 0 894.78785940 0 -2939.42228881 0 6583
0.07850000 0.07848650 24967.39345014 0 -291.31028785 0 11352.39463635 0 1714.61031862 0 -2700.19626183 0 6549
0.07950000 0.07947320 25012.86735763 0 -157.41846741 0 8706.26795964 0 919.57557546 0 -843.50992855 0 6828
0.08050000 0.08048110 25119.56467227 0 122.21279005 0 9336.49195264 0 690.15749394 0 -1678.12028066 0 7147
0.08150000 0.08149960 25424.68350032 0 163.46760622 0 8736.44710654 0 599.04109277 0 -490.33738060 0 7386
0.08250000 0.08250610 24131.89358403 0 502.29036355 0 8353.21297839 0 -1060.25077195 0 -2610.40193134 0 7227
0.08350000 0.08350160 23871.69410363 0 743.42962200 0 9046.66788518 0 55.23072253 0 -1115.97405454 0 7798
0.08450000 0.08449610 22896.22333203 0 495.07221258 0 9126.14740251 0 -586.37050938 0 -2323.22865996 0 7371
0.08550000 0.08548940 22826.68152717 0 378.07117597 0 9160.24174193 0 427.47802190 0 -3866.82381283 0 8256
0.08650000 0.08650700 21393.36614555 0 518.48018374 0 8448.73036651 0 -88.39617421 0 -3757.23169579 0 8037
0.08750000 0.08749060 20672.99290376 0 728.21582715 0 8436.64096183 0 -367.83067383 0 -4836.43843244 0 8155
0.08850000 0.08849210 20392.60744491 0 388.01665228 0 7952.49912385 0 -36.67315362 0 -4519.70712119 0 8718
0.08950000 0.08949900 19547.68006139 0 204.64145665 0 8457.34822653 0 -260.31261061 0 -6060.34092448 0 8571
0.09050000 0.09049190 19429.66972587 0 267.26790022 0 7553.20494251 0 191.46289644 0 -5550.11259127 0 8932
0.09150000 0.09150830 19458.61774990 0 -464.20097499 0 6663.52457931 0 879.78479728 0 -5774.01058406 0 9285
0.09250000 0.09250820 19397.83799062 0 -88.53459234 0 6860.53751070 0 785.56397009 0 -6194.41131319 0 9204
0.09350000 0.09350330 19976.79847132 0 445.52339933 0 6576.18140334 0 -372.24164286 0 -4984.76100923 0 9349
0.09450000 0.09448040 18954.30102466 0 353.84578360 0 6129.98255012 0 459.38739552 0 -5191.72274428 0 9564
0.09550000 0.09549270 18776.84187349 0 173.76910995 0 7790.53437481 0 -62.83185254 0 -3028.47350911 0 10155
0.09650000 0.09649430 18711.40381150 0 328.13084347 0 7398.95966655 0 -155.99546684 0 -3246.32679956 0 9913
0.09750000 0.09749140 18439.55857430 0 274.99402801 0 8815.31660804 0 188.39285312 0 -2184.56651571 0 10476
0.09850000 0.09850240 17733.16024067 0 422.44040024 0 8285.15739391 0 -9.69382814 0 -1552.77866395 0 10575
0.09950000 0.09950330 17434.47430685 0 329.34200218 0 8650.34614463 0 300.21651899 0 -583.13964371 0 10882
0.10050000 0.10051200 17233.83455406 0 440.28280877 0 9313.99900522 0 377.85378851 0 -133.77092639 0 10875
0.10150000 0.10150300 16694.24782253 0 25.92633834 0 8383.84686436 0 1217.21450028 0 866.56187228 0 11118
0.10250000 0.10250800 16814.80913335 0 -251.71915122 0 8290.12625015 0 1222.60482200 0 1897.06050842 0 11575
0.10350000 0.10349800 16901.32046955 0 -106.07642944 0 6611.09649134 0 985.27982618 0 528.63195631 0 11364
0.10450000 0.10450100 17013.45247070 0 67.88511278 0 6302.28429471 0 627.49666766 0 2268.17195831 0 12093
0.10550000 0.10551000 16657.97960850 0 211.38490440 0 6047.46404482 0 156.77961446 0 1397.44645069 0 12067
0.10650000 0.10649700 16486.06605581 0 428.90213159 0 5645.36379066 0 -270.11833784 0 2158.08073740 0 12054
0.10750000 0.10749900 15809.39213000 0 492.12084507 0 6054.01894222 0 -332.19243980 0 -21.65234559 0 12807
0.10850000 0.10850100 15072.82574067 0 346.23389513 0 6050.23684406 0 -449.27000566 0 859.28826532 0 12736
0.10950000 0.10950300 14999.95657672 0 29.63068721 0 5988.92470733 0 40.55096881 0 -114.25041976 0 12933
0.11050000 0.11050200 15187.50871711 0 -202.64615032 0 5983.97803349 0 852.05791403 0 -577.76484967 0 13428
0.11150000 0.11150900 15066.83649431 0 -55.84539667 0 5171.45912746 0 337.88333295 0 -631.64921180 0 13453
0.11250000 0.11250000 15138.37471463 0 243.02698017 0 5273.50923058 0 -355.66806726 0 -1037.66465848 0 13668
0.11350000 0.11349100 14898.47212464 0 283.66734403 0 5495.42189912 0 -276.74310977 0 -356.81600614 0 13791
0.11450000 0.11448600 14767.26326474 0 0.39630732 0 5526.02251150 0 256.31201587 0 -864.60427602 0 14205
0.11550000 0.11549300 14656.57311920 0 -34.25538360 0 5509.91809353 0 477.17878454 0 -341.24285651 0 14776
0.11650000 0.11649800 14868.63680485 0 62.81100109 0 4883.80893460 0 -73.92449134 0 -1340.49315436 0 14553
0.11750000 0.11747300 14794.32578530 0 299.82389062 0 5908.35825270 0 -382.63853088 0 -834.06910170 0 14568
0.11850000 0.11849100 14198.17394933 0 165.02924675 0 5336.06358137 0 -244.49101817 0 -1245.09776941 0 16015
0.11950000 0.11950300 14351.45429115 0 -54.09576035 0 5404.04152746 0 305.41718124 0 -1980.62158623 0 15270
0.12050000 0.12050700 14499.07812253 0 -302.74420278 0 4445.46264882 0 1232.99727354 0 -719.47707307 0 15999
0.12150000 0.12150000 14165.67674227 0 83.17621327 0 3863.50754494 0 741.14261719 0 -1557.03768358 0 15670
0.12250000 0.12250700 14542.22287866 0 159.57459609 0 2614.58331259 0 693.49372598 0 -399.93747076 0 16887
0.12350000 0.12352200 13765.06270850 0 266.06450535 0 3193.27760456 0 288.65727354 0 -692.57315664 0 16407
0.12450000 0.12449800 13321.08209466 0 555.70889541 0 2560.73555141 0 -397.93329147 0 -295.61256314 0 16306
0.12550000 0.12549900 12840.61144287 0 350.26887258 0 3033.59764210 0 -166.11174757 0 -817.09180653 0 17523
0.12650000 0.12650100 12313.77958783 0 271.28402264 0 3473.68524580 0 -164.03880286 0 286.16286334 0 17154
0.12750000 0.12750600 12036.38875215 0 221.50562161 0 3052.86305120 0 -342.06582332 0 -437.41795260 0 18007
0.12850000 0.12850300 12019.53013279 0 38.39561651 0 4020.75853528 0 455.33134479 0 106.98690579 0 17496
0.12950000 0.12949900 12019.19739688 0 -73.05893433 0 3184.77065650 0 346.38362629 0 -161.21054764 0 18405
0.13050000 0.13049000 12056.79655453 0 -71.75083856 0 3412.67257139 0 298.78797283 0 -34.32481449 0 18100
0.13150000 0.13148800 12198.43113956 0 115.67231121 0 3364.95824212 0 -11.88821036 0 803.28104809 0 19059
0.13250000 0.13249300 11924.58948691 0 83.86630755 0 3481.10525656 0 -166.43893788 0 -198.99603741 0 18957
0.13350000 0.13349100 11825.10145029 0 240.17321520 0 3490.15567327 0 -335.35010357 0 383.01341333 0 19468
0.13450000 0.13450700 11799.81352124 0 145.95682448 0 3966.73331494 0 105.93812221 0 -110.13303472 0 19953
0.13550000 0.13551000 11517.43164694 0 34.49628440 0 3414.63571325 0 68.92535614 0 479.47798967 0 19956
0.13650000 0.13649900 11601.39200784 0 41.03920330 0 3473.07522997 0 577.64173738 0 -77.59967036 0 19723
0.13750000 0.13749600 11415.17081108 0 107.71537561 0 3287.09803954 0 -34.48264222 0 -413.24136150 0 20946
0.13850000 0.13851100 11174.93548518 0 186.47740341 0 3080.60213476 0 181.48969214 0 394.41294556 0 20955
0.13950000 0.13949800 11133.23258466 0 68.21285765 0 3258.77112254 0 -17.23372364 0 615.18432993 0 20506
0.14050000 0.14048300 10924.49625809 0 33.97588544 0 2745.20433905 0 384.58059946 0 618.70800320 0 21447
0.14150000 0.14148400 11091.07494506 0 75.88264216 0 3148.84626959 0 491.59068586 0 930.39614720 0 21771
0.14250000 0.14249400 10628.20602282 0 182.79068954 0 2946.64265802 0 -45.06796968 0 1129.03948454 0 22470
0.14350000 0.14350900 10580.29205200 0 353.43208195 0 3122.28285289 0 -305.54583913 0 1410.83352540 0 22519
0.14450000 0.14449900 10346.50071153 0 150.72382093 0 3722.73807328 0 -189.68275933 0 1642.86136556 0 22218
0.14550000 0.14550500 10064.80649144 0 64.22002675 0 3331.51828332 0 55.77208385 0 1608.63393178 0 23559
0.14650000 0.14650700 10213.93872560 0 -1.29174734 0 3923.73274437 0 89.22812489 0 1236.03626150 0 23044
0.14750000 0.14750500 10201.22821390 0 -94.45152409 0 3205.63319796 0 273.32147551 0 1512.93908451 0 23649
0.14850000 0.14849900 10275.19540635 0 -61.14355054 0 3631.26897205 0 253.25860936 0 888.72097467 0 23640
0.14950000 0.14949500 10447.49715094 0 1.18238814 0 2509.93786938 0 -10.64270222 0 633.72659299 0 24457
0.15050000 0.15050000 10485.46231809 0 46.72954189 0 3137.31142476 0 -118.93423223 0 235.81104744 0 24591
0.15150000 0.15149900 10156.48632541 0 228.36774516 0 2801.45888997 0 -477.34404338 0 -89.37397413 0 25020
0.15250000 0.15250500 9976.88657323 0 163.35891249 0 3026.25526972 0 -117.93491539 0 -378.73332043 0 25297
0.15350000 0.15350100 9828.31999011 0 37.59427753 0 2921.01090187 0 239.52548929 0 -177.88838049 0 25452
0.15450000 0.15450400 9755.70592369 0 -50.60890985 0 2198.15323197 0 588.42792641 0 -468.45888550 0 26061
0.15550000 0.15549900 10020.77443955 0 -73.20711272 0 2377.24278909 0 547.67665059 0 -84.52922839 0 26128
0.15650000 0.15649500 9777.24502816 0 115.41055896 0 1679.00757642 0 124.01843692 0 -247.58324388 0 26331
0.15750000 0.15749700 9663.85972176 0 297.08880146 0 2196.62264679 0 -324.21343271 0 -31.84060820 0 27345
0.15850000 0.15849900 9253.29688433 0 183.04467795 0 2248.27435098 0 -270.97790560 0 233.37431147 0 26980
0.15950000 0.15949700 9166.02025554 0 147.54286564 0 2854.19753146 0 -135.00094013 0 298.17462964 0 27777
0.16050000 0.16050000 8951.51650656 0 170.31974770 0 2729.70993691 0 -23.58598487 0 53.35209559 0 28224
0.16150000 0.16150500 9009.26836907 0 -30.14809154 0 3003.38522161 0 123.30860031 0 343.94799944 0 28075
0.16250000 0.16249700 8922.70157689 0 35.95355676 0 2910.56299435 0 62.43489860 0 -236.78707277 0 28590
0.16350000 0.16349900 8873.02410576 0 212.52618856 0 3211.63353551 0 -232.93620919 0 496.24233386 0 29163
0.16450000 0.16449100 8607.80031314 0 115.08447777 0 2906.52579866 0 -28.62061190 0 233.83015966 0 28996
0.16550000 0.16550500 8661.75898629 0 -2.09957467 0 3347.32323897 0 465.10934402 0 726.05637110 0 30777
0.16650000 0.16650700 8680.72493307 0 -87.09717322 0 2503.77116388 0 437.32478655 0 128.24751031 0 29211
0.16750000 0.16749900 8731.55588869 0 -54.66762246 0 2543.93238803 0 315.82626958 0 870.25413175 0 30922
0.16850000 0.16850800 8800.12166822 0 20.91267367 0 2020.00642659 0 205.39122157 0 462.57722376 0 30867
0.16950000 0.16949900 8718.34627312 0 124.34340899 0 2087.35217446 0 -256.91204963 0 631.50169888 0 30852
0.17050000 0.17049200 8502.83322522 0 196.36853285 0 2137.25146953 0 -237.41039804 0 -84.83246171 0 31257
0.17150000 0.17149500 8271.12702977 0 176.69385858 0 2237.78207867 0 -205.94799965 0 262.16594962 0 32608
0.17250000 0.17250900 8043.91276909 0 102.57859866 0 2127.36921305 0 66.54718169 0 -309.30020930 0 32361
0.17350000 0.17350400 8110.18267086 0 25.56199252 0 2343.61427995 0 212.88887070 0 -415.29212381 0 32508
0.17450000 0.17449800 7979.80565073 0 62.79990989 0 1981.83052669 0 174.52663870 0 -248.51934090 0 32791
0.17550000 0.17549800 7878.24356028 0 96.11165445 0 1813.65470737 0 131.03472811 0 -132.51983938 0 33633
0.17650000 0.17650100 7720.30491573 0 80.58054045 0 1650.49210906 0 125.25288714 0 -48.93469367 0 33984
0.17750000 0.17750300 7717.22156298 0 59.56050400 0 1548.17581721 0 45.44418308 0 -120.72546054 0 34069
