### header ###
fiducial parameters:
Omega_m = 0.31
Omega_nu = 0
Omega_de = 0.69
Omega_k = 0
H_0 = 100
w_de = -1
zeff = 0
beta = 0
fgrowth = 0
b_1 = 2
gamma = 0.55
Lx = 3500 Ly = 3500 Lz = 3500
nx = 700 ny = 700 nz = 700
xoffset = 1379.75464 yoffset = 22.6059522 zoffset = 368.141391
bins = 400 dk = 0.001
kx_ny = 0.628318531 ky_ny = 0.628318531 kz_ny = 0.628318531
############################
A(data) = 3.31717289 (not used)
A(ran) = 3.30805178 (used)
Ngal = 185360
weighted Ngal = 0
Nran = 9399747
weighted Nran = 0
SN(data) = 6709.4082
SN(ran) = 131.579026
SN(data+ran) = 6840.98723
############################
13 columns: k_central k_mean P_0(k) sigma^{lin}_{P_0(k)} P^img_1(k) sigma^{lin}_{P_1(k)} P_2(k) sigma^{lin}_{P_2(k)} P^img_3(k) sigma^{lin}_{P_3(k)} P_4(k) sigma^{lin}_{P_4(k)} N_modes
### header ###
0.00050000 0 0 0 0 0 0 0 0 0 0 0 0
0.00150000 0.00179520 70700.39129857 0 -22661.53360461 0 -50162.15643773 0 67682.69843289 0 -179428.94774957 0 3
0.00250000 0.00253879 111609.60577027 0 -18735.58262085 0 4850.13606067 0 -41803.49768164 0 104006.36843832 0 6
0.00350000 0.00331552 107687.98035332 0 -2696.74689958 0 -28540.75528292 0 7723.04444138 0 27057.52951504 0 7
0.00450000 0.00420575 105277.08687268 0 2854.46372019 0 -3181.06619672 0 -17049.27703684 0 43947.86969961 0 24
0.00550000 0.00557378 104420.62464434 0 -4749.01761809 0 -24400.52237412 0 14197.84121342 0 13237.56538164 0 45
0.00650000 0.00659388 97011.15052308 0 1573.02009838 0 -32501.08897722 0 29726.40423669 0 8410.21063950 0 40
0.00750000 0.00754703 108614.87168228 0 -2703.81199204 0 -47635.69268489 0 -6274.61175832 0 23249.58886680 0 57
0.00850000 0.00846663 89129.52414773 0 8288.39602342 0 -21924.52356740 0 -18651.62225995 0 1178.37312857 0 75
0.00950000 0.00948925 84899.34163168 0 15483.64367563 0 -6091.18554319 0 -21393.69888146 0 11063.05858156 0 112
0.01050000 0.01054430 59373.50641519 0 7763.78240777 0 7646.77027997 0 -16330.45656262 0 15499.39317529 0 105
0.01150000 0.01145670 56834.50960981 0 5831.51844024 0 21535.00073058 0 924.83058457 0 -8319.86174916 0 144
0.01250000 0.01249090 56078.08997794 0 -1560.04339795 0 18649.07128465 0 4677.22430025 0 14275.47959206 0 169
0.01350000 0.01339930 50551.45745061 0 -2571.29437090 0 13801.88548237 0 14471.23921819 0 -6553.01189292 0 180
0.01450000 0.01448870 62384.21182679 0 -2725.52855566 0 14550.20854046 0 1698.93845733 0 21422.97964140 0 267
0.01550000 0.01550050 64908.23551630 0 -2353.82927234 0 -8902.84833435 0 6457.01758333 0 -25636.52536203 0 238
0.01650000 0.01653350 68570.21601269 0 -564.74045709 0 14178.20979482 0 -11415.61445896 0 9878.80711862 0 315
0.01750000 0.01747870 66785.53151175 0 3896.23766714 0 12529.17063256 0 -7311.86049692 0 -35379.36549726 0 297
0.01850000 0.01844180 64475.67883532 0 4168.81492334 0 27914.43539126 0 -13427.89032127 0 1826.83104934 0 388
0.01950000 0.01947590 60330.23306395 0 1506.88329098 0 29550.49785309 0 -10363.95825552 0 -32666.90237160 0 399
0.02050000 0.02045430 65471.89014521 0 -1927.25074651 0 40115.97206597 0 6930.63387541 0 -19617.99825005 0 462
0.02150000 0.02154770 68850.71238351 0 -3220.11830117 0 32196.63562100 0 2156.38378426 0 -26633.62396768 0 571
0.02250000 0.02255340 71785.11036010 0 -2025.87366977 0 32517.50394871 0 2997.51797842 0 -20638.72110519 0 510
0.02350000 0.02348930 72353.86693961 0 331.39831009 0 27567.72457465 0 3524.41638065 0 -18680.45937201 0 555
0.02450000 0.02439640 77035.68299539 0 878.46383573 0 29821.78853044 0 -4346.90627274 0 -21693.49393497 0 592
0.02550000 0.02547300 73657.63714087 0 1852.16334317 0 26850.90051589 0 7982.80027391 0 -14152.70004184 0 837
0.02650000 0.02652900 71462.80017679 0 2835.51995580 0 33848.11484659 0 -3402.35775823 0 -13613.33513425 0 723
0.02750000 0.02749970 63348.59140144 0 3068.25763256 0 26660.13192838 0 -1632.91256190 0 -7679.31185181 0 826
0.02850000 0.02848090 64768.81917066 0 2818.21768856 0 32935.30933775 0 2752.94599452 0 -18362.58566748 0 831
0.02950000 0.02946900 58630.95077951 0 3949.12049419 0 35182.27492749 0 -7620.81687911 0 -6554.38720134 0 996
0.03050000 0.03053250 54763.78313957 0 2534.23868190 0 31604.47661593 0 3807.80755387 0 -20463.36928144 0 1041
0.03150000 0.03150510 54298.50742760 0 511.46167431 0 41746.04528145 0 -1248.68022602 0 -10701.34137549 0 1036
0.03250000 0.03246190 49640.87018116 0 548.27446610 0 29082.56025384 0 5883.51397153 0 -16126.04580287 0 1059
0.03350000 0.03345080 55972.27995905 0 -2054.00094524 0 30048.82533197 0 12291.15354605 0 -4679.79745794 0 1302
0.03450000 0.03451200 54622.03764258 0 -2917.49499244 0 18191.44849857 0 8724.18024271 0 -8131.13394189 0 1339
0.03550000 0.03553350 57015.40703203 0 1422.47928220 0 15562.83482184 0 1775.15716276 0 -6193.29110230 0 1365
0.03650000 0.03647120 53954.68032220 0 3468.98257830 0 17290.17783455 0 -6914.28545111 0 -4168.39345785 0 1308
0.03750000 0.03744890 51226.02404900 0 3136.56831456 0 19337.61279120 0 -3247.14754814 0 -1561.57398313 0 1579
0.03850000 0.03847530 46881.38038044 0 829.59602197 0 18991.34562247 0 2702.29249806 0 -9506.16508355 0 1662
0.03950000 0.03950240 47219.77279933 0 -189.47091747 0 16794.73406688 0 2302.27738892 0 -7341.01925370 0 1683
0.04050000 0.04050350 45294.45192109 0 614.54214963 0 14541.77923078 0 4929.52684843 0 -8165.89375313 0 1822
0.04150000 0.04152450 44572.41499976 0 1854.64777129 0 15913.31664540 0 -1798.77032106 0 -4210.45127668 0 1887
0.04250000 0.04250150 42903.52259496 0 1822.48330014 0 15082.91872989 0 -502.18388806 0 -6888.97533968 0 1920
0.04350000 0.04349210 38673.67281482 0 2921.86492404 0 17837.75022789 0 -1936.41207519 0 -4339.66372113 0 2005
0.04450000 0.04448520 36168.50416012 0 1736.03851112 0 17124.25352821 0 -234.98586238 0 -3914.92633400 0 2151
0.04550000 0.04548030 35665.51837852 0 -383.83638015 0 19828.39825615 0 3403.99925538 0 -2829.78580698 0 2274
0.04650000 0.04648670 36074.45081000 0 -158.79488495 0 18196.32862522 0 703.04768303 0 -3358.09279121 0 2311
0.04750000 0.04749250 35819.35328019 0 -345.40538272 0 17248.47493403 0 268.03319281 0 -5454.91684786 0 2568
0.04850000 0.04851840 37913.14944008 0 -690.36489932 0 13570.85584994 0 -135.07081467 0 -6489.20423688 0 2493
0.04950000 0.04949480 37899.28544389 0 -198.68992037 0 15059.07265645 0 493.16341758 0 -10889.48134933 0 2644
0.05050000 0.05050630 39409.35190839 0 -71.65944710 0 14863.64576622 0 -924.14736684 0 -10353.56580398 0 2829
0.05150000 0.05149060 37193.77440602 0 403.27148456 0 11375.68614994 0 -1161.90270110 0 -13270.39532461 0 2784
0.05250000 0.05249300 36485.04692103 0 1588.08194383 0 15991.17684798 0 -2588.17517266 0 -15537.76871673 0 3055
0.05350000 0.05348950 35271.33723898 0 1738.36766248 0 15466.67414430 0 -2852.17893361 0 -17565.35043084 0 3009
0.05450000 0.05448610 32915.67791915 0 1152.58609566 0 18204.31428703 0 833.47350443 0 -12610.02545831 0 3336
0.05550000 0.05550870 33358.88214920 0 -570.34040243 0 14810.18619693 0 2201.62477662 0 -14897.58482888 0 3349
0.05650000 0.05647670 33331.15415683 0 -607.74324590 0 14493.31070012 0 3708.31951724 0 -11438.68414861 0 3324
0.05750000 0.05747970 33929.96788006 0 -543.41430360 0 10055.92244268 0 2670.63822197 0 -10254.14431454 0 3639
0.05850000 0.05849280 34184.28902609 0 -110.40521269 0 10860.94369958 0 2377.23169790 0 -5624.92271468 0 3846
0.05950000 0.05951020 34638.25171718 0 -305.57689448 0 7451.42102812 0 2689.54871276 0 -5013.18774701 0 3787
0.06050000 0.06049470 34493.06794912 0 213.27262612 0 7426.85402688 0 1379.65617078 0 -1187.87828435 0 3930
0.06150000 0.06148310 33329.49047729 0 667.25639048 0 7328.51947474 0 507.95352872 0 -420.75121095 0 4083
0.06250000 0.06249100 32818.29720994 0 978.14929566 0 9441.91377963 0 -946.12124623 0 -271.87074695 0 4303
0.06350000 0.06350600 32065.98132095 0 1058.90208240 0 11019.71418389 0 -1947.19271862 0 155.70376836 0 4470
0.06450000 0.06451750 30491.47500218 0 1344.60798843 0 12520.96314682 0 -1731.20274925 0 346.60655935 0 4479
0.06550000 0.06550280 29135.68708722 0 622.81950991 0 13641.72859844 0 -769.44069709 0 1154.81542625 0 4636
0.06650000 0.06648880 29421.50723258 0 22.66308637 0 14605.55361324 0 884.68045162 0 -536.53110677 0 4653
0.06750000 0.06749660 29089.32588398 0 -206.60459851 0 14197.06482963 0 2521.67235575 0 -312.31812398 0 5220
0.06850000 0.06852730 29908.07804270 0 209.26870402 0 12139.75870771 0 1344.96290673 0 2830.56219076 0 5029
0.06950000 0.06949320 28536.42971611 0 -101.34181928 0 12223.38633270 0 1084.24657655 0 1144.30097154 0 5040
0.07050000 0.07048030 29265.45409152 0 386.09232961 0 11932.68606068 0 158.04733827 0 3832.72947341 0 5475
0.07150000 0.07148790 28727.53103953 0 450.81168204 0 10930.85151394 0 53.58512164 0 460.07615885 0 5509
0.07250000 0.07249820 27912.21715187 0 219.62011813 0 11034.78712054 0 -243.97527751 0 1310.25855148 0 5916
0.07350000 0.07351270 28099.99111620 0 -108.53290774 0 9680.92907386 0 1601.32483299 0 -290.54610438 0 5721
0.07450000 0.07449140 27395.14555014 0 105.17881887 0 9509.83626974 0 -155.81911681 0 -1146.91849402 0 6028
0.07550000 0.07549160 27247.63263073 0 562.94922878 0 7526.41970188 0 984.27607285 0 -1970.31786426 0 6183
0.07650000 0.07648840 26858.66435375 0 593.61527922 0 8227.68281133 0 -581.80204536 0 -1656.15971070 0 6330
0.07750000 0.07749960 25326.85914324 0 613.37979219 0 7505.26878930 0 960.10613646 0 -1922.60353499 0 6583
0.07850000 0.07848650 24757.99165176 0 539.36934407 0 7571.01740481 0 805.01792954 0 -1526.05997050 0 6549
0.07950000 0.07947320 23547.60932880 0 499.63624012 0 6858.79619278 0 -377.84158820 0 -1127.25380183 0 6828
0.08050000 0.08048110 23967.52204526 0 292.62237644 0 7984.37522387 0 817.90922775 0 185.49361424 0 7147
0.08150000 0.08149960 23093.75754968 0 117.33266340 0 6603.89830452 0 253.72222139 0 -162.94299261 0 7386
0.08250000 0.08250610 22817.69765764 0 591.79410469 0 6867.85770069 0 -709.78780342 0 406.42249361 0 7227
0.08350000 0.08350160 21936.28023616 0 696.69353630 0 8789.84012865 0 -625.81302397 0 -992.50463187 0 7798
0.08450000 0.08449610 22161.09879830 0 315.79743247 0 9099.37325308 0 -632.23039052 0 -24.61890804 0 7371
0.08550000 0.08548940 21271.91753897 0 -33.70049102 0 9607.39443810 0 102.89392138 0 -1483.33667986 0 8256
0.08650000 0.08650700 21256.16803930 0 395.82596405 0 8968.86313859 0 -216.76413492 0 -1062.23942356 0 8037
0.08750000 0.08749060 21121.07726047 0 439.83472442 0 10057.47521025 0 -394.65362453 0 -2296.78724643 0 8155
0.08850000 0.08849210 20138.61903480 0 431.18580904 0 10342.65206619 0 52.82559647 0 -1838.04424946 0 8718
0.08950000 0.08949900 20096.36157442 0 -14.32328265 0 9691.03315428 0 1514.94659116 0 -1359.76965466 0 8571
0.09050000 0.09049190 19913.80047266 0 -116.09266758 0 8636.98125231 0 720.58730189 0 -451.42058875 0 8932
0.09150000 0.09150830 19945.74311987 0 342.36084916 0 8303.82387838 0 750.25403549 0 -698.36608880 0 9285
0.09250000 0.09250820 19398.28163850 0 349.38046771 0 8060.70484127 0 -22.96631970 0 -902.05037516 0 9204
0.09350000 0.09350330 18734.36258918 0 179.62304370 0 7770.81422664 0 721.71305838 0 -268.27165354 0 9349
0.09450000 0.09448040 19133.64567932 0 28.35564321 0 7768.87326717 0 412.77220386 0 308.70572114 0 9564
0.09550000 0.09549270 18813.99738327 0 -106.72814817 0 6825.36732518 0 37.62122914 0 114.65081197 0 10155
0.09650000 0.09649430 19225.70261399 0 -63.89782747 0 7634.27050101 0 311.48295685 0 -276.72314562 0 9913
0.09750000 0.09749140 19083.29164517 0 60.61849327 0 6771.06482492 0 771.57464338 0 416.06185288 0 10476
0.09850000 0.09850240 18968.05410888 0 208.73189009 0 6718.88074328 0 380.63656983 0 1368.21005553 0 10575
0.09950000 0.09950330 18661.27160129 0 184.65955623 0 6491.36702028 0 518.28497867 0 1034.06112859 0 10882
0.10050000 0.10051200 18996.11483716 0 149.77441447 0 6726.25638925 0 729.43142233 0 2890.28828633 0 10875
0.10150000 0.10150300 17673.26777715 0 355.39189645 0 6754.71640062 0 195.00209738 0 1526.55907436 0 11118
0.10250000 0.10250800 17963.19166537 0 591.41589487 0 6659.49847482 0 -897.69264388 0 2329.16245032 0 11575
0.10350000 0.10349800 16727.52141337 0 655.58179657 0 7324.23827271 0 -278.08958108 0 1966.39158054 0 11364
0.10450000 0.10450100 16106.63620821 0 410.46967138 0 7660.50118179 0 -210.35453220 0 2523.18075854 0 12093
0.10550000 0.10551000 16006.48269977 0 41.57745909 0 7774.19704171 0 1007.13502976 0 1757.81053073 0 12067
0.10650000 0.10649700 15595.55385283 0 -159.13982117 0 6029.87340646 0 1429.52219226 0 2052.25962731 0 12054
0.10750000 0.10749900 15644.68785532 0 310.50582240 0 6080.71545327 0 -35.26812079 0 1524.40738215 0 12807
0.10850000 0.10850100 15399.12875488 0 356.74945896 0 5318.51730779 0 -643.56670292 0 729.47467800 0 12736
0.10950000 0.10950300 14971.67402450 0 201.93964108 0 6016.86343244 0 74.41261492 0 1101.88379793 0 12933
0.11050000 0.11050200 14278.69603917 0 37.11835427 0 5248.73149660 0 567.19272074 0 -104.17184910 0 13428
0.11150000 0.11150900 14731.99325845 0 -126.92654876 0 4671.80070494 0 737.62448952 0 1068.02902837 0 13453
0.11250000 0.11250000 14817.83912283 0 -425.96296439 0 3714.56386113 0 1664.16755490 0 -381.82776438 0 13668
0.11350000 0.11349100 14926.08920504 0 10.83226186 0 3413.94805904 0 345.96437905 0 1999.17715872 0 13791
0.11450000 0.11448600 14959.58461982 0 322.51315222 0 2182.23736435 0 -236.64732369 0 1251.56393723 0 14205
0.11550000 0.11549300 14563.40706483 0 276.51019464 0 3263.38506047 0 -179.04075586 0 1868.82232099 0 14776
0.11650000 0.11649800 14576.93832511 0 237.66549557 0 4096.15649213 0 -672.22524672 0 1427.21522330 0 14553
0.11750000 0.11747300 14206.04869916 0 226.45562281 0 4255.51480988 0 -274.21653511 0 1255.78968327 0 14568
0.11850000 0.11849100 13777.70667302 0 300.83429866 0 4987.94418275 0 -433.79113120 0 1692.19500959 0 16015
0.11950000 0.11950300 13674.11489352 0 72.24772418 0 5293.88375937 0 276.86622206 0 1258.37393215 0 15270
0.12050000 0.12050700 13924.11047274 0 -135.55882734 0 4890.88511826 0 514.37865911 0 1553.81014526 0 15999
0.12150000 0.12150000 13928.87968743 0 80.82454678 0 5164.23875824 0 102.71446582 0 1045.13568875 0 15670
0.12250000 0.12250700 13590.70909247 0 229.46244630 0 4967.93566346 0 -81.27174385 0 1619.63639915 0 16887
0.12350000 0.12352200 13628.41916210 0 -47.06993073 0 4435.13674446 0 93.11847313 0 1280.77814999 0 16407
0.12450000 0.12449800 13554.77361436 0 -68.34018459 0 4208.01121335 0 614.97137895 0 774.37960709 0 16306
0.12550000 0.12549900 13428.11214521 0 211.37159496 0 4134.66512793 0 -174.13955592 0 376.77239681 0 17523
0.12650000 0.12650100 12930.11740224 0 313.70896008 0 3596.81971432 0 18.22438935 0 -100.69997172 0 17154
0.12750000 0.12750600 12821.31276018 0 356.47883375 0 4053.04500959 0 3.17553169 0 134.22455635 0 18007
0.12850000 0.12850300 12169.59402750 0 181.49412862 0 3453.99837122 0 -152.75461909 0 -465.65059443 0 17496
0.12950000 0.12949900 12247.89787795 0 73.65464252 0 3768.02343042 0 610.25872937 0 -307.93599207 0 18405
0.13050000 0.13049000 11880.44652306 0 -4.22753172 0 2920.80016913 0 235.63358828 0 -431.50079903 0 18100
0.13150000 0.13148800 11838.96544647 0 97.05340798 0 3004.87144200 0 379.84022189 0 561.12805424 0 19059
0.13250000 0.13249300 11748.35036740 0 184.86030690 0 2833.37935479 0 262.82698496 0 93.40617878 0 18957
0.13350000 0.13349100 11740.69744151 0 116.45645884 0 3059.91705245 0 -1.95703061 0 534.55132812 0 19468
0.13450000 0.13450700 11528.85557980 0 44.78059677 0 2930.57151364 0 95.22191863 0 630.06982535 0 19953
0.13550000 0.13551000 11163.73337626 0 142.11372474 0 2885.88508114 0 -69.76917440 0 958.36370942 0 19956
0.13650000 0.13649900 11448.00075405 0 85.90708779 0 3099.72335830 0 -157.74454860 0 1264.82900878 0 19723
0.13750000 0.13749600 11395.53939248 0 -64.34014441 0 3003.67359273 0 556.40653170 0 355.35640462 0 20946
0.13850000 0.13851100 11270.20886697 0 53.14114103 0 3256.91889265 0 -39.92231977 0 1538.50429348 0 20955
0.13950000 0.13949800 11178.92831608 0 200.16283132 0 2810.70894822 0 -219.12545075 0 973.11167401 0 20506
0.14050000 0.14048300 11216.74929768 0 82.22525405 0 3194.35345066 0 107.58738320 0 1311.29003279 0 21447
0.14150000 0.14148400 11011.11850626 0 52.44295018 0 3161.39041333 0 170.27094643 0 1310.50255781 0 21771
0.14250000 0.14249400 10922.86585214 0 139.07362765 0 3123.33651660 0 107.87386881 0 1097.35858958 0 22470
0.14350000 0.14350900 10873.04419545 0 7.20164727 0 2900.48109632 0 136.81989643 0 1463.42798133 0 22519
0.14450000 0.14449900 10702.29521843 0 4.43916285 0 2752.18070193 0 255.77852930 0 1115.78550419 0 22218
0.14550000 0.14550500 10929.62039108 0 31.60492026 0 2888.07004694 0 61.69921950 0 1297.47040140 0 23559
0.14650000 0.14650700 10751.30721774 0 152.12907558 0 2530.00184466 0 -122.02091235 0 563.70675753 0 23044
0.14750000 0.14750500 10508.68728450 0 166.56426841 0 3023.43810569 0 -31.55844815 0 1191.87111525 0 23649
0.14850000 0.14849900 10405.36169373 0 159.34057184 0 2869.54774803 0 -233.58726245 0 649.50271153 0 23640
0.14950000 0.14949500 10283.61362483 0 94.58106927 0 3055.15892896 0 258.06886147 0 988.33545094 0 24457
0.15050000 0.15050000 10227.27034433 0 75.74943689 0 3032.29997205 0 59.40500541 0 848.65513481 0 24591
0.15150000 0.15149900 9951.98683608 0 147.28887723 0 2761.30875702 0 52.15324811 0 921.27252859 0 25020
0.15250000 0.15250500 10029.79158267 0 67.59840534 0 3101.30939947 0 -51.00708382 0 922.59349015 0 25297
0.15350000 0.15350100 9747.42079957 0 82.19386596 0 3194.59745700 0 97.71821433 0 769.98305662 0 25452
0.15450000 0.15450400 9681.67218406 0 287.25756448 0 3129.21485099 0 -314.41768757 0 618.56381764 0 26061
0.15550000 0.15549900 9423.90167578 0 97.84897954 0 3228.14832776 0 -150.50976083 0 414.93165991 0 26128
0.15650000 0.15649500 9125.70375463 0 227.67121800 0 3437.66103812 0 -55.00313117 0 312.24603120 0 26331
0.15750000 0.15749700 8988.40582761 0 180.27187872 0 3553.91896453 0 2.41865732 0 93.38920925 0 27345
0.15850000 0.15849900 8950.56266362 0 2.74345193 0 3347.95543720 0 186.34874553 0 487.34275743 0 26980
0.15950000 0.15949700 8875.80799619 0 -55.91782218 0 2887.85931420 0 583.48236169 0 296.42332964 0 27777
0.16050000 0.16050000 8784.19470940 0 24.26864804 0 2774.44073420 0 406.54116942 0 820.12081242 0 28224
0.16150000 0.16150500 8807.98532686 0 101.56652693 0 2342.32770110 0 182.84059993 0 624.09277932 0 28075
0.16250000 0.16249700 8654.11715159 0 98.81990292 0 2418.61295371 0 118.75344572 0 838.97806547 0 28590
0.16350000 0.16349900 8472.04406249 0 12.56521702 0 1902.81683963 0 226.56098918 0 956.23087225 0 29163
0.16450000 0.16449100 8616.59563232 0 -131.92313298 0 1714.82105136 0 457.91115720 0 1188.75448891 0 28996
0.16550000 0.16550500 8602.67618015 0 -85.65531762 0 1186.14805763 0 377.18055286 0 831.21311849 0 30777
0.16650000 0.16650700 8996.51349258 0 -38.63585183 0 1257.47554520 0 58.89680677 0 1131.18008555 0 29211
0.16750000 0.16749900 8734.75015341 0 46.75261158 0 1075.44793001 0 -22.83366898 0 704.69916226 0 30922
0.16850000 0.16850800 8833.97200131 0 107.84114978 0 1020.36793684 0 -66.04475047 0 1163.98784613 0 30867
0.16950000 0.16949900 8522.13190791 0 183.31752140 0 1381.25330314 0 -443.41274455 0 797.43376906 0 30852
0.17050000 0.17049200 8580.68233660 0 155.44534347 0 1747.19625525 0 -121.13805307 0 1192.11512159 0 31257
0.17150000 0.17149500 8311.51007786 0 103.19926204 0 1891.86982825 0 -68.38443846 0 520.31910419 0 32608
0.17250000 0.17250900 8335.00123300 0 150.38775766 0 2009.90234617 0 -110.69591297 0 1579.89664049 0 32361
0.17350000 0.17350400 8034.07487740 0 103.69980775 0 2223.79607932 0 -141.32514063 0 460.55086208 0 32508
0.17450000 0.17449800 8110.99232824 0 130.48460474 0 2398.50461364 0 -135.28820214 0 1169.58890058 0 32791
0.17550000 0.17549800 8000.79019536 0 6.61416875 0 2169.57121744 0 143.57110802 0 612.37271150 0 33633
0.17650000 0.17650100 7840.75531459 0 62.78782048 0 2640.40361908 0 -27.58901967 0 896.73103710 0 33984
0.17750000 0.17750300 7878.67611696 0 9.58413620 0 1962.02164894 0 247.58768036 0 491.87572962 0 34069
