### header ###
fiducial parameters:
Omega_m = 0.31
Omega_nu = 0
Omega_de = 0.69
Omega_k = 0
H_0 = 100
w_de = -1
zeff = 0
beta = 0
fgrowth = 0
b_1 = 2
gamma = 0.55
Lx = 3500 Ly = 3500 Lz = 3500
nx = 700 ny = 700 nz = 700
xoffset = 1379.75464 yoffset = 22.6059522 zoffset = 368.141391
bins = 400 dk = 0.001
kx_ny = 0.628318531 ky_ny = 0.628318531 kz_ny = 0.628318531
############################
A(data) = 3.33507819 (not used)
A(ran) = 3.3317556 (used)
Ngal = 187143
weighted Ngal = 0
Nran = 9399747
weighted Nran = 0
SN(data) = 6677.6772
SN(ran) = 132.521854
SN(data+ran) = 6810.19906
############################
13 columns: k_central k_mean P_0(k) sigma^{lin}_{P_0(k)} P^img_1(k) sigma^{lin}_{P_1(k)} P_2(k) sigma^{lin}_{P_2(k)} P^img_3(k) sigma^{lin}_{P_3(k)} P_4(k) sigma^{lin}_{P_4(k)} N_modes
### header ###
0.00050000 0 0 0 0 0 0 0 0 0 0 0 0
0.00150000 0.00179520 52372.74290148 0 -28045.86607509 0 -56366.68292253 0 98740.60086322 0 -39445.28738651 0 3
0.00250000 0.00253879 87177.69530879 0 -20572.39574744 0 18266.64681388 0 -75165.15263007 0 62709.73845722 0 6
0.00350000 0.00331552 89285.57728880 0 -10781.43090866 0 -61580.87643183 0 1107.83311598 0 49334.86405736 0 7
0.00450000 0.00420575 94461.83890453 0 -9071.86708465 0 -25422.68708487 0 -27619.07681652 0 9728.11102568 0 24
0.00550000 0.00557378 123010.24711335 0 -15007.49859064 0 -40015.04217374 0 -14353.67253054 0 -4823.67246475 0 45
0.00650000 0.00659388 124751.56503422 0 3136.42412900 0 -14574.27643784 0 -4166.44140719 0 -33777.79665793 0 40
0.00750000 0.00754703 126457.39112485 0 9293.60229404 0 -38269.06595015 0 -38314.42894567 0 18069.99989198 0 57
0.00850000 0.00846663 97306.28727387 0 11506.56227393 0 16540.30200888 0 8997.10132602 0 12402.17642750 0 75
0.00950000 0.00948925 109402.56848954 0 2859.94277148 0 11414.94898714 0 13074.41387453 0 23573.22999375 0 112
0.01050000 0.01054430 94000.22328755 0 6102.85348238 0 7760.87651417 0 4844.94538050 0 11230.39146992 0 105
0.01150000 0.01145670 93387.76739206 0 5796.29279873 0 16065.82060344 0 1085.48546325 0 25840.38156194 0 144
0.01250000 0.01249090 82312.20903154 0 3858.66069188 0 13840.48284775 0 6004.74075418 0 22855.51863923 0 169
0.01350000 0.01339930 77680.08153808 0 9419.25446426 0 30285.62238682 0 -6163.14522899 0 28646.89803772 0 180
0.01450000 0.01448870 67540.17655211 0 5681.55436630 0 29051.50490239 0 -5618.50091165 0 8511.31799088 0 267
0.01550000 0.01550050 68022.53270739 0 7917.86131578 0 45298.99931184 0 2902.42205579 0 8370.87016393 0 238
0.01650000 0.01653350 54694.01951077 0 2233.97779811 0 33103.89553136 0 -330.89698799 0 -7651.47294747 0 315
0.01750000 0.01747870 56749.21830528 0 -1699.73702351 0 42454.99459038 0 4482.70688817 0 -5873.38770872 0 297
0.01850000 0.01844180 56691.21134524 0 384.73809446 0 31265.52963719 0 2718.13072730 0 -13059.10802275 0 388
0.01950000 0.01947590 60092.65962532 0 -1572.32135297 0 34185.84179366 0 1084.91204836 0 -15931.50620840 0 399
0.02050000 0.02045430 57807.87305398 0 1568.53925481 0 27974.32785478 0 1875.09993846 0 -14966.01751405 0 462
0.02150000 0.02154770 59310.61932850 0 -2165.36765379 0 24610.70055629 0 11202.21982967 0 1553.83232766 0 571
0.02250000 0.02255340 61791.72008582 0 -6100.72397257 0 6854.81445308 0 20066.41534266 0 -9697.42168372 0 510
0.02350000 0.02348930 66764.12550164 0 -1717.34984427 0 8667.23803758 0 -3789.62908207 0 -7631.56424895 0 555
0.02450000 0.02439640 68810.34042662 0 1854.18194102 0 1934.53766291 0 1264.29663132 0 -5580.50247091 0 592
0.02550000 0.02547300 64951.49118439 0 1177.61892717 0 4962.65625371 0 -5208.59245484 0 3101.57558819 0 837
0.02650000 0.02652900 67274.65329717 0 -1561.00833208 0 5745.41747833 0 -796.85591770 0 -12890.63274110 0 723
0.02750000 0.02749970 66588.77367789 0 1489.09301107 0 7594.38655678 0 -1040.03595639 0 -12747.22356456 0 826
0.02850000 0.02848090 62445.10249804 0 4642.39794183 0 7672.91223117 0 -8098.38163731 0 -17246.25669464 0 831
0.02950000 0.02946900 58303.98229348 0 1801.77603544 0 15670.19760830 0 -322.62628243 0 -5099.13343216 0 996
0.03050000 0.03053250 55479.60899061 0 2649.04366151 0 12835.06584439 0 1968.21053684 0 -5665.03957405 0 1041
0.03150000 0.03150510 53163.32341995 0 1909.20536908 0 15738.51938150 0 900.81481582 0 -11263.33232486 0 1036
0.03250000 0.03246190 50506.98175085 0 3150.38794596 0 14098.68591270 0 -460.60299070 0 -5890.01341294 0 1059
0.03350000 0.03345080 46448.71278749 0 2263.69111474 0 17940.34379966 0 -735.16113468 0 -6756.42444495 0 1302
0.03450000 0.03451200 43773.29425964 0 1833.96268898 0 18156.73305212 0 -1554.45343469 0 -6865.73928207 0 1339
0.03550000 0.03553350 41965.42915708 0 331.08664746 0 15852.42597416 0 -1178.75022926 0 -14106.56066254 0 1365
0.03650000 0.03647120 41400.22176060 0 -427.80632133 0 16255.48007125 0 1363.71812077 0 -10152.00548184 0 1308
0.03750000 0.03744890 43131.00304437 0 -338.77284695 0 11891.64863198 0 1891.92528423 0 -13303.11435561 0 1579
0.03850000 0.03847530 44427.12031974 0 -832.57733571 0 15161.66622822 0 2946.06591578 0 -10815.01505301 0 1662
0.03950000 0.03950240 42010.79215260 0 449.95765987 0 9049.80669392 0 1863.38763448 0 -10031.05597912 0 1683
0.04050000 0.04050350 43472.94464628 0 1373.41182690 0 11637.99295777 0 -2114.64761015 0 -10250.80586426 0 1822
0.04150000 0.04152450 41091.88648544 0 923.70704632 0 13018.51424192 0 442.07403708 0 -2684.11402626 0 1887
0.04250000 0.04250150 40878.71368009 0 -241.06383831 0 13877.19470965 0 3190.53807891 0 -7519.77607491 0 1920
0.04350000 0.04349210 40791.42596011 0 -1947.19271862 0 5991.07639954 0 5123.33442390 0 2267.61739846 0 2005
0.04450000 0.04448520 43852.92905373 0 -985.66579983 0 6670.74494852 0 3558.38871690 0 -3135.44810367 0 2151
0.04550000 0.04548030 44570.30767234 0 24.62966650 0 5653.81528274 0 -1998.00149184 0 557.20066140 0 2274
0.04650000 0.04648670 43446.76942149 0 1018.91609916 0 3821.74918843 0 36.56623448 0 -1719.92300196 0 2311
0.04750000 0.04749250 42372.58699705 0 906.86728199 0 8541.12003708 0 -2920.76689554 0 221.77070122 0 2568
0.04850000 0.04851840 41417.41311587 0 -45.46425815 0 6705.18311505 0 241.72931013 0 -4093.96043513 0 2493
0.04950000 0.04949480 43211.30331028 0 -108.58071080 0 8793.88841553 0 664.64885008 0 -6207.46565200 0 2644
0.05050000 0.05050630 40494.07096993 0 697.25142351 0 4536.66556132 0 -2677.80313519 0 -5746.95915471 0 2829
0.05150000 0.05149060 41495.93879026 0 1264.84009998 0 8066.62754044 0 -1395.58312960 0 -8820.21891709 0 2784
0.05250000 0.05249300 40071.49636620 0 237.30059519 0 7069.75075874 0 -1822.80494485 0 -8993.51886941 0 3055
0.05350000 0.05348950 39522.70394120 0 640.52660584 0 8662.76828521 0 521.26740153 0 -12948.41787720 0 3009
0.05450000 0.05448610 38434.43569665 0 1215.53972954 0 9159.39881096 0 -1273.59105437 0 -12056.35290666 0 3336
0.05550000 0.05550870 37243.24114441 0 1204.65926533 0 9926.57690387 0 -2214.18001156 0 -11906.06718801 0 3349
0.05650000 0.05647670 34684.61292042 0 1890.32815187 0 13357.01757277 0 -190.97044729 0 -9620.72605683 0 3324
0.05750000 0.05747970 33146.81846355 0 1911.34597009 0 13249.43296238 0 94.54535562 0 -9713.62592247 0 3639
0.05850000 0.05849280 31293.81218941 0 921.39674999 0 16125.93489090 0 530.99881773 0 -4402.27352790 0 3846
0.05950000 0.05951020 30476.94553417 0 -149.67792106 0 14142.82887656 0 3918.24260188 0 -757.53762452 0 3787
0.06050000 0.06049470 31396.18393724 0 -592.91542470 0 12705.74248798 0 3555.80446801 0 1126.63269480 0 3930
0.06150000 0.06148310 31300.46690758 0 -522.01716645 0 10261.84160522 0 2164.76872916 0 1446.75791232 0 4083
0.06250000 0.06249100 31767.07356319 0 608.35880733 0 11216.74929768 0 -10.10354804 0 3098.63642100 0 4303
0.06350000 0.06350600 30744.79794047 0 478.36554262 0 10708.19573521 0 -133.77979935 0 4163.46896641 0 4470
0.06450000 0.06451750 30730.82303232 0 208.84391118 0 11796.81889807 0 317.72286426 0 1321.32756603 0 4479
0.06550000 0.06550280 30350.83862487 0 240.89636124 0 10042.05844650 0 598.49096940 0 2605.63271665 0 4636
0.06650000 0.06648880 28815.59514330 0 336.86516107 0 9786.87218711 0 -347.81439070 0 -683.62699718 0 4653
0.06750000 0.06749660 29470.97397097 0 607.88410410 0 10375.16036444 0 527.81231685 0 1701.37852066 0 5220
0.06850000 0.06852730 28412.09739832 0 184.15157941 0 10231.60700234 0 560.09102733 0 -200.85492201 0 5029
0.06950000 0.06949320 27909.88800051 0 247.99583640 0 8460.48703527 0 338.30590755 0 -500.48471669 0 5040
0.07050000 0.07048030 27687.62041366 0 490.76660992 0 9274.43670571 0 -126.81563679 0 -1031.54675425 0 5475
0.07150000 0.07148790 26585.37726095 0 486.21145534 0 8786.98969103 0 -874.89247031 0 -1615.21101157 0 5509
0.07250000 0.07249820 26330.61246705 0 986.75051889 0 10396.20036505 0 -636.35742490 0 -1627.37805462 0 5916
0.07350000 0.07351270 25464.94454524 0 719.96064926 0 10655.63455287 0 -305.00902520 0 -2080.02089328 0 5721
0.07450000 0.07449140 24495.79575591 0 246.41534084 0 10599.11381322 0 1282.15345841 0 -1379.29016128 0 6028
0.07550000 0.07549160 24404.73702896 0 311.62159682 0 11822.88321090 0 -17.54793725 0 281.23504454 0 6183
0.07650000 0.07648840 23925.81914474 0 -137.38998396 0 8682.22224466 0 1749.23703549 0 -729.79077712 0 6330
0.07750000 0.07749960 24749.11869420 0 -495.95729010 0 9947.29525977 0 1722.70689239 0 598.40002159 0 6583
0.07850000 0.07848650 24624.56455247 0 -179.63968049 0 6997.46942822 0 986.99896170 0 218.77385980 0 6549
0.07950000 0.07947320 24387.43476172 0 704.79343743 0 7851.75778196 0 -372.81505774 0 933.05248887 0 6828
0.08050000 0.08048110 23235.05939880 0 756.51390704 0 7244.78093778 0 -887.34012065 0 -111.72606334 0 7147
0.08150000 0.08149960 22553.61625830 0 468.59641634 0 7429.42718457 0 1377.62648174 0 1137.14714951 0 7386
0.08250000 0.08250610 22338.66886145 0 -270.02295354 0 7527.83937509 0 1347.50279083 0 677.21961270 0 7227
0.08350000 0.08350160 22112.74117961 0 -23.54960574 0 5303.64401269 0 738.71142682 0 -478.47756371 0 7798
0.08450000 0.08449610 22600.97566927 0 150.55634385 0 5260.77653648 0 632.74834942 0 1837.56732799 0 7371
0.08550000 0.08548940 21229.43825465 0 444.17470978 0 5178.60185829 0 -1024.32416679 0 -1662.64806092 0 8256
0.08650000 0.08650700 21359.09434698 0 658.85369967 0 4988.35455704 0 -454.52612390 0 154.47819109 0 8037
0.08750000 0.08749060 20346.13532970 0 206.84416837 0 6011.60620509 0 -510.75627418 0 -1540.20124661 0 8155
0.08850000 0.08849210 20366.98677996 0 189.96336661 0 5419.16992010 0 675.27088940 0 -627.51774094 0 8718
0.08950000 0.08949900 20198.73332226 0 125.61556928 0 5305.18568906 0 1198.43710385 0 -1370.02901183 0 8571
0.09050000 0.09049190 19809.09957346 0 11.79371336 0 4882.75527089 0 -99.58109177 0 -582.53295523 0 8932
0.09150000 0.09150830 19793.68280971 0 239.76062267 0 4971.40720810 0 -122.14402463 0 -147.71145184 0 9285
0.09250000 0.09250820 19344.04568543 0 486.15932671 0 4821.39876938 0 -248.04685591 0 -1940.32726771 0 9204
0.09350000 0.09350330 18934.44778213 0 619.74724835 0 5563.59948676 0 -1114.32146619 0 -1131.80119258 0 9349
0.09450000 0.09448040 17949.77131706 0 442.33357109 0 6103.19730949 0 -431.01944108 0 -2000.94065903 0 9564
0.09550000 0.09549270 17915.83225440 0 236.42106327 0 6898.65795461 0 -19.50386983 0 -976.87048065 0 10155
0.09650000 0.09649430 17721.07083599 0 -63.74277254 0 6229.42622195 0 547.05665268 0 -2100.76143157 0 9913
0.09750000 0.09749140 17775.63952498 0 20.15015388 0 6660.00866988 0 532.63809664 0 -1059.18047144 0 10476
0.09850000 0.09850240 17400.75706813 0 362.41595148 0 6840.08534353 0 -659.68997592 0 -935.98389222 0 10575
0.09950000 0.09950330 17304.48547862 0 330.99569965 0 6707.86718471 0 350.90550729 0 164.35157462 0 10882
0.10050000 0.10051200 17201.78099488 0 -65.02646768 0 6920.13051190 0 469.79093826 0 -565.15415874 0 10875
0.10150000 0.10150300 16996.37202740 0 10.35742554 0 6489.55915518 0 -106.12478706 0 -69.64284567 0 11118
0.10250000 0.10250800 17214.42495940 0 211.13313423 0 6512.41811209 0 660.48965122 0 702.17924231 0 11575
0.10350000 0.10349800 16527.10348452 0 263.56454956 0 6853.62769500 0 -89.34103327 0 -420.27872596 0 11364
0.10450000 0.10450100 16577.01387078 0 280.48195226 0 6358.92703752 0 370.61900074 0 199.28108117 0 12093
0.10550000 0.10551000 16135.02967240 0 6.67321829 0 6189.88610483 0 532.74789949 0 762.47764364 0 12067
0.10650000 0.10649700 16157.54480220 0 -103.04132339 0 6124.32603967 0 1240.93857055 0 1827.92907784 0 12054
0.10750000 0.10749900 16007.14817158 0 -8.66884626 0 4440.07232710 0 751.96097070 0 962.66820296 0 12807
0.10850000 0.10850100 16115.50916577 0 103.42596610 0 4259.69619113 0 570.05646779 0 1966.96832278 0 12736
0.10950000 0.10950300 15446.48816585 0 318.86525754 0 3771.30642471 0 -162.12224403 0 1604.84074242 0 12933
0.11050000 0.11050200 15175.53022441 0 316.97864494 0 4139.15706270 0 245.23967396 0 2211.55139788 0 13428
0.11150000 0.11150900 15130.94361267 0 7.65674127 0 3937.95165886 0 242.02655421 0 1637.00521357 0 13453
0.11250000 0.11250000 14850.77997776 0 182.99254933 0 3508.84434013 0 260.02313037 0 1889.29667055 0 13668
0.11350000 0.11349100 14723.45303680 0 139.40858180 0 3587.15928178 0 228.26348791 0 1565.46699326 0 13791
0.11450000 0.11448600 14408.13030756 0 272.16355455 0 3694.20042353 0 -691.06364473 0 1513.72655949 0 14205
0.11550000 0.11549300 14272.81770479 0 143.47794196 0 4134.55421596 0 61.01555812 0 1614.56772215 0 14776
0.11650000 0.11649800 14043.34083993 0 161.54106531 0 3988.61624652 0 -369.75832386 0 1250.93173900 0 14553
0.11750000 0.11747300 13894.60788886 0 -0.26848571 0 4317.45914484 0 410.13693547 0 1212.37873841 0 14568
0.11850000 0.11849100 13991.54495018 0 -7.03999308 0 3975.85027883 0 423.41864382 0 1635.65208755 0 16015
0.11950000 0.11950300 14279.80515887 0 -26.70993140 0 4232.55603220 0 465.20805568 0 1910.28121518 0 15270
0.12050000 0.12050700 14162.23847122 0 -61.96895741 0 3468.45020085 0 420.52716877 0 1411.85391552 0 15999
0.12150000 0.12150000 14329.71554513 0 126.91434844 0 3919.80646065 0 -77.07960414 0 2101.28271783 0 15670
0.12250000 0.12250700 13941.19091604 0 147.00826995 0 3257.11853419 0 -380.28386976 0 1426.84921380 0 16887
0.12350000 0.12352200 13939.85997240 0 328.14969851 0 3912.67482102 0 -486.16598143 0 1093.86042606 0 16407
0.12450000 0.12449800 13532.48030850 0 53.54585880 0 3498.32988542 0 -106.28904768 0 215.82138318 0 16306
0.12550000 0.12549900 13489.11372843 0 148.58543816 0 4171.25498667 0 231.74501463 0 244.11391747 0 17523
0.12650000 0.12650100 13072.52837105 0 230.72240628 0 3774.42305106 0 -147.13249136 0 331.90185044 0 17154
0.12750000 0.12750600 12919.46985317 0 75.18034757 0 3491.53098169 0 464.84981002 0 14.73188235 0 18007
0.12850000 0.12850300 12896.84381139 0 14.34912514 0 3516.25325969 0 506.91428356 0 263.52462125 0 17496
0.12950000 0.12949900 12777.39162026 0 -37.84493858 0 2964.47730271 0 503.16767723 0 469.86524928 0 18405
0.13050000 0.13049000 12719.93922007 0 169.02318677 0 3068.35745333 0 -55.96928534 0 458.14850882 0 18100
0.13150000 0.13148800 12790.25740872 0 116.53076986 0 2525.90919299 0 -56.54392025 0 416.53211963 0 19059
0.13250000 0.13249300 12251.44706098 0 262.19367762 0 3406.43931871 0 -255.10973013 0 186.38423736 0 18957
0.13350000 0.13349100 12080.75353994 0 263.70651688 0 3279.42293126 0 -335.34677621 0 354.07426226 0 19468
0.13450000 0.13450700 11907.39813164 0 70.75296357 0 3362.83982350 0 65.89391019 0 332.50299331 0 19953
0.13550000 0.13551000 11804.58273593 0 62.87000625 0 3556.90249651 0 528.08516030 0 467.89878006 0 19956
0.13650000 0.13649900 11713.85674490 0 157.15893340 0 3159.51600105 0 -153.89146678 0 472.10678018 0 19723
0.13750000 0.13749600 11718.84778352 0 17.14687957 0 3314.31583686 0 560.82748281 0 1241.47094801 0 20946
0.13850000 0.13851100 11546.26875901 0 -62.07532199 0 2531.46588266 0 818.21534479 0 1527.12472541 0 20955
0.13950000 0.13949800 11572.00033593 0 126.99975066 0 2682.89399459 0 192.47219536 0 1685.81757134 0 20506
0.14050000 0.14048300 11356.27655529 0 232.84193401 0 2422.58360222 0 -19.05046170 0 1841.79307402 0 21447
0.14150000 0.14148400 11040.76527570 0 358.79800304 0 3033.55327731 0 -495.39496641 0 1700.57995448 0 21771
0.14250000 0.14249400 10590.17430848 0 302.93829873 0 2949.28236290 0 -494.60860055 0 1468.86266784 0 22470
0.14350000 0.14350900 10299.66258682 0 168.42204390 0 3719.80999728 0 -351.74954738 0 1167.81430907 0 22519
0.14450000 0.14449900 10185.92236211 0 56.98257709 0 3469.54822934 0 -200.07188351 0 348.61406600 0 22218
0.14550000 0.14550500 10334.89931952 0 -43.71617460 0 3508.48942183 0 339.72003516 0 179.10619392 0 23559
0.14650000 0.14650700 10311.11979326 0 2.14579169 0 3379.75389885 0 56.90349685 0 -458.50897272 0 23044
0.14750000 0.14750500 10295.45902317 0 82.67655485 0 3188.25329234 0 -18.13244333 0 -32.33849203 0 23649
0.14850000 0.14849900 10177.08267814 0 87.69698515 0 3141.68135636 0 137.95563500 0 -414.86178537 0 23640
0.14950000 0.14949500 10125.61952430 0 8.15077645 0 2843.99363027 0 106.75554343 0 -57.34281917 0 24457
0.15050000 0.15050000 10031.58835658 0 111.81146555 0 3151.96289593 0 140.47222759 0 -143.99811910 0 24591
0.15150000 0.15149900 9793.07216621 0 196.27536679 0 2661.39925491 0 134.96544830 0 -113.25443028 0 25020
0.15250000 0.15250500 9503.73611142 0 239.82827897 0 3143.71104540 0 -56.15229009 0 246.30110151 0 25297
0.15350000 0.15350100 9382.72006152 0 171.60189006 0 2979.25077705 0 129.51079764 0 543.00282019 0 25452
0.15450000 0.15450400 9225.14742647 0 -0.44358133 0 3152.77255330 0 135.53109935 0 620.71107337 0 26061
0.15550000 0.15549900 9282.86601539 0 -3.97811288 0 2808.39088806 0 310.98052563 0 404.92961850 0 26128
0.15650000 0.15649500 9307.22228389 0 8.61697273 0 3085.11625192 0 37.17425390 0 686.11253441 0 26331
0.15750000 0.15749700 9229.12916618 0 40.11164650 0 2637.49772548 0 164.81296841 0 810.56574625 0 27345
0.15850000 0.15849900 9178.56439929 0 118.55491330 0 2582.79594214 0 374.49981056 0 1465.38003200 0 26980
0.15950000 0.15949700 9020.73666672 0 35.75979355 0 2239.80067651 0 372.26715261 0 1017.07828783 0 27777
0.16050000 0.16050000 9004.68770473 0 66.98262208 0 2177.32396410 0 480.60041880 0 1782.42189676 0 28224
0.16150000 0.16150500 8770.89636426 0 200.55989618 0 2217.78465057 0 -88.74011222 0 1643.70429653 0 28075
0.16250000 0.16249700 8595.20071340 0 177.63106472 0 1938.17557550 0 -384.89891681 0 1476.94815041 0 28590
0.16350000 0.16349900 8511.62854440 0 113.69696904 0 2234.98709704 0 -40.44560244 0 1630.26176583 0 29163
0.16450000 0.16449100 8169.30984179 0 102.08248942 0 2347.85111718 0 -229.98262344 0 856.40677236 0 28996
0.16550000 0.16550500 8184.83751752 0 122.28931931 0 2433.47515762 0 -137.27352639 0 805.04343929 0 30777
0.16650000 0.16650700 8081.83357146 0 127.62751240 0 2524.67807013 0 -100.08119384 0 119.74721697 0 29211
0.16750000 0.16749900 8000.73473937 0 19.55488934 0 2713.28387423 0 -23.42715893 0 532.73237182 0 30922
0.16850000 0.16850800 7900.05994467 0 66.73905940 0 2408.22050217 0 -9.31269024 0 167.99392370 0 30867
0.16950000 0.16949900 8046.55247397 0 -9.96263439 0 2756.33990078 0 27.86984878 0 475.54061475 0 30852
0.17050000 0.17049200 7975.94591419 0 25.72203849 0 2354.26182902 0 204.22886413 0 -52.48986594 0 31257
0.17150000 0.17149500 8055.23688118 0 -60.17950370 0 2531.29951471 0 348.11828949 0 764.13355935 0 32608
0.17250000 0.17250900 8115.24025667 0 -94.09882403 0 1911.80070916 0 451.99400363 0 674.63536381 0 32361
0.17350000 0.17350400 8101.93082033 0 23.04018707 0 1928.18240705 0 189.80587161 0 716.58005243 0 32508
0.17450000 0.17449800 8114.97406794 0 106.52961574 0 1938.90759450 0 -92.12913836 0 929.49665113 0 32791
0.17550000 0.17549800 7987.05929354 0 72.57524723 0 1936.11261287 0 -165.88659628 0 634.95660673 0 33633
0.17650000 0.17650100 8050.32348093 0 48.27754025 0 1960.99016763 0 93.03173997 0 978.78482124 0 33984
0.17750000 0.17750300 7873.60743995 0 41.32602165 0 1844.13331658 0 -36.40130838 0 589.11558062 0 34069
0.17850000 0.17849800 7937.30418403 0 13.10325099 0 1824.04715891 0 58.40546675 0 802.96827634 0 34536
