### header ###
fiducial parameters:
Omega_m = 0.31
Omega_nu = 0
Omega_de = 0.69
Omega_k = 0
H_0 = 100
w_de = -1
zeff = 0
beta = 0
fgrowth = 0
b_1 = 2
gamma = 0.55
Lx = 3500 Ly = 3500 Lz = 3500
nx = 700 ny = 700 nz = 700
xoffset = 1379.75464 yoffset = 22.6059522 zoffset = 368.141391
bins = 400 dk = 0.001
kx_ny = 0.628318531 ky_ny = 0.628318531 kz_ny = 0.628318531
############################
A(data) = 3.32646717 (not used)
A(ran) = 3.318652 (used)
Ngal = 186202
weighted Ngal = 0
Nran = 9399747
weighted Nran = 0
SN(data) = 6715.63338
SN(ran) = 132.000654
SN(data+ran) = 6847.63403
############################
13 columns: k_central k_mean P_0(k) sigma^{lin}_{P_0(k)} P^img_1(k) sigma^{lin}_{P_1(k)} P_2(k) sigma^{lin}_{P_2(k)} P^img_3(k) sigma^{lin}_{P_3(k)} P_4(k) sigma^{lin}_{P_4(k)} N_modes
### header ###
0.00050000 0 0 0 0 0 0 0 0 0 0 0 0
0.00150000 0.00179520 51636.17651215 0 -37863.01722987 0 -58407.01951313 0 81464.84158469 0 78989.39733782 0 3
0.00250000 0.00253879 74105.16693773 0 -38561.31898973 0 -30047.60530031 0 -48113.05780154 0 -3182.54132591 0 6
0.00350000 0.00331552 103457.68692529 0 -32935.08751381 0 -90532.89329759 0 17516.10551639 0 -29211.55087435 0 7
0.00450000 0.00420575 115732.20367592 0 -16441.81217998 0 -75800.56730324 0 -35661.85828353 0 -14337.70120694 0 24
0.00550000 0.00557378 113548.34699682 0 7975.57990469 0 -81071.99138879 0 -52606.98898102 0 5216.14555996 0 45
0.00650000 0.00659388 81997.88451003 0 11429.36754317 0 -12251.77979688 0 -60358.95926404 0 -22837.77272412 0 40
0.00750000 0.00754703 74175.48512638 0 19358.68606540 0 -29373.48234979 0 -40714.45305329 0 3263.87307314 0 57
0.00850000 0.00846663 60476.74777563 0 8523.39630436 0 622.72856209 0 -15822.25791846 0 -15734.41563863 0 75
0.00950000 0.00948925 45557.31328876 0 6570.18106579 0 9325.34529970 0 -2681.44104779 0 1788.25586636 0 112
0.01050000 0.01054430 56183.67817289 0 4019.87123952 0 46783.55602336 0 1530.95118835 0 9539.68268073 0 105
0.01150000 0.01145670 47914.52537617 0 453.15968843 0 46239.64372502 0 18595.27897945 0 14376.07674838 0 144
0.01250000 0.01249090 54187.48454614 0 1268.18964145 0 55797.92634303 0 19184.77609725 0 28642.68338288 0 169
0.01350000 0.01339930 55336.64346195 0 -4443.33313900 0 49999.44857850 0 11572.44398381 0 57311.76381449 0 180
0.01450000 0.01448870 68627.11385304 0 -1592.74024655 0 64678.64773947 0 14024.70762906 0 54149.44174061 0 267
0.01550000 0.01550050 65397.57912565 0 -1155.69163081 0 58796.32052601 0 17870.91290676 0 19152.72253807 0 238
0.01650000 0.01653350 76045.46093185 0 805.76769445 0 53169.53449024 0 11318.45557369 0 46757.49171053 0 315
0.01750000 0.01747870 76795.44766949 0 -5565.95082051 0 50372.55644383 0 6688.67941399 0 26380.63376529 0 297
0.01850000 0.01844180 83714.69088564 0 -3307.73875707 0 44085.28962980 0 27117.75471447 0 57842.03394058 0 388
0.01950000 0.01947590 82707.49929077 0 1022.42757212 0 28555.50657486 0 -1855.50179345 0 10510.45078482 0 399
0.02050000 0.02045430 80490.03628492 0 7794.37192895 0 26546.00351178 0 -269.35526349 0 7194.85946031 0 462
0.02150000 0.02154770 68512.31996462 0 7285.44126579 0 45766.27143927 0 -6817.08220106 0 25322.86631233 0 571
0.02250000 0.02255340 60437.04129056 0 3570.16756806 0 36713.41466619 0 -4496.77052590 0 10248.56544248 0 510
0.02350000 0.02348930 61480.27927551 0 -1102.15109578 0 35797.50362221 0 20125.19868649 0 5576.24345128 0 555
0.02450000 0.02439640 62173.58999674 0 -3954.42208633 0 23935.46848608 0 9779.36344678 0 -6679.44044693 0 592
0.02550000 0.02547300 65216.79261540 0 -1593.48335675 0 22977.29998172 0 6453.77895382 0 10475.86843273 0 837
0.02650000 0.02652900 65182.07716895 0 1723.64964413 0 20032.47628000 0 -1649.37189817 0 -763.20855352 0 723
0.02750000 0.02749970 67512.00491186 0 1018.55230790 0 16177.73078065 0 -2940.17649020 0 183.93530107 0 826
0.02850000 0.02848090 62612.13592408 0 3274.66480777 0 31066.10991606 0 -5894.57189489 0 -5689.86167282 0 831
0.02950000 0.02946900 58152.47654316 0 4052.13553144 0 26878.29577235 0 -3233.47210230 0 -2021.82538289 0 996
0.03050000 0.03053250 56216.95176373 0 842.16012988 0 32852.34718457 0 8358.42584095 0 651.37157821 0 1041
0.03150000 0.03150510 57271.50276957 0 -3665.70713857 0 18922.58020139 0 8203.82564669 0 -5635.07115989 0 1036
0.03250000 0.03246190 57746.31691092 0 1224.14649837 0 21377.94938179 0 8014.87601548 0 9202.23301358 0 1059
0.03350000 0.03345080 56205.63874284 0 353.01838031 0 12132.21669378 0 2550.08800234 0 -790.95096445 0 1302
0.03450000 0.03451200 57243.99660114 0 131.06689258 0 14974.00317586 0 -934.72504137 0 5378.48740969 0 1339
0.03550000 0.03553350 54914.06885822 0 1272.31556672 0 12362.24811849 0 -1345.01836271 0 -3515.43251112 0 1365
0.03650000 0.03647120 53595.21462911 0 1908.29589093 0 17990.14327396 0 -3801.39684203 0 391.24751795 0 1308
0.03750000 0.03744890 52149.14437100 0 1359.74747226 0 15243.96290958 0 -2540.74921450 0 -6223.73643792 0 1579
0.03850000 0.03847530 50958.28255467 0 860.49831491 0 17789.61443313 0 -242.30272501 0 -6665.52099476 0 1662
0.03950000 0.03950240 51001.09457489 0 851.87269104 0 20945.72543672 0 895.02632013 0 -5632.33163425 0 1683
0.04050000 0.04050350 48250.36681976 0 1821.51836600 0 18187.34475570 0 -402.20894789 0 -7091.01258329 0 1822
0.04150000 0.04152450 48002.14583206 0 1948.94512774 0 23568.01713119 0 717.15901291 0 -751.43192060 0 1887
0.04250000 0.04250150 44930.10610134 0 1039.88400699 0 21687.72651255 0 3638.27860852 0 -2554.77957864 0 1920
0.04350000 0.04349210 43624.56130857 0 1292.60136594 0 21546.64648737 0 938.64356125 0 2803.58839978 0 2005
0.04450000 0.04448520 41623.59846714 0 1085.00077794 0 22027.33896311 0 2766.24433966 0 -258.43265273 0 2151
0.04550000 0.04548030 40231.09869029 0 2029.94413905 0 22066.71271228 0 2174.40697931 0 9254.01781213 0 2274
0.04650000 0.04648670 36797.81867497 0 412.67903781 0 18385.98809304 0 3760.08213340 0 4904.27219297 0 2311
0.04750000 0.04749250 37245.45938380 0 270.31021554 0 18192.55761826 0 2794.08324400 0 7715.20296514 0 2568
0.04850000 0.04851840 37511.75902252 0 -71.91221548 0 15755.04526495 0 2310.20759474 0 4091.45382462 0 2493
0.04950000 0.04949480 36463.08635107 0 -346.44351875 0 14044.11722372 0 783.09728789 0 5641.13804462 0 2644
0.05050000 0.05050630 37503.88427269 0 446.68797501 0 11169.50079868 0 -300.03351424 0 3740.00706693 0 2829
0.05150000 0.05149060 36901.07771855 0 602.33628739 0 13126.87523610 0 -1359.62546909 0 1108.92005328 0 2784
0.05250000 0.05249300 35375.15084242 0 848.03402778 0 14182.09171375 0 -1721.63104629 0 -1205.14727800 0 3055
0.05350000 0.05348950 34759.81123573 0 321.74564139 0 13155.26870029 0 -669.35484494 0 -3247.59119602 0 3009
0.05450000 0.05448610 35059.49537727 0 -14.88738093 0 14771.03427170 0 1176.55417227 0 -4185.72899868 0 3336
0.05550000 0.05550870 34181.84896276 0 459.53601756 0 13355.24298126 0 -229.96265929 0 -4037.07368599 0 3349
0.05650000 0.05647670 33764.81995750 0 1600.32662527 0 15801.96102804 0 -1663.20262076 0 -5412.07155405 0 3324
0.05750000 0.05747970 32907.13769750 0 333.14850097 0 13990.87947837 0 -832.09930513 0 -5950.00569724 0 3639
0.05850000 0.05849280 32627.30679849 0 72.35464332 0 17434.91795473 0 1826.36521907 0 -3390.33490074 0 3846
0.05950000 0.05951020 32061.76666610 0 132.54424001 0 14295.00009869 0 1036.82505487 0 -3694.10060276 0 3787
0.06050000 0.06049470 32899.37385963 0 -62.01576226 0 15081.03322641 0 2766.94308507 0 945.52675808 0 3930
0.06150000 0.06148310 33073.17291581 0 -489.63863519 0 14389.49709669 0 1523.04316493 0 354.97375833 0 4083
0.06250000 0.06249100 32875.97143407 0 8.79579610 0 14078.83267017 0 1892.93458315 0 1623.28540295 0 4303
0.06350000 0.06350600 33396.81404276 0 638.77974232 0 14022.37847770 0 -1021.28517883 0 3575.14751549 0 4470
0.06450000 0.06451750 32009.97077636 0 927.99933954 0 13437.98331050 0 -493.11461632 0 942.18498043 0 4479
0.06550000 0.06550280 31281.05731292 0 760.23722186 0 17245.03666297 0 -97.74305861 0 3956.62923452 0 4636
0.06650000 0.06648880 31352.59553324 0 -180.75545490 0 13789.79607769 0 1146.86303804 0 1686.11703366 0 4653
0.06750000 0.06749660 29990.37472405 0 -0.45032811 0 14227.01106139 0 2216.20970060 0 2237.22751882 0 5220
0.06850000 0.06852730 30886.54343747 0 537.03464711 0 11577.65684637 0 467.89767094 0 1857.30965856 0 5029
0.06950000 0.06949320 29869.14794141 0 441.73908293 0 12838.50411545 0 575.13512687 0 2297.95182211 0 5040
0.07050000 0.07048030 29020.00590305 0 1036.61543125 0 12700.86236132 0 610.62473886 0 3630.60350023 0 5475
0.07150000 0.07148790 27619.07681652 0 554.07183475 0 10147.82410059 0 1194.68827928 0 2915.75367452 0 5509
0.07250000 0.07249820 27080.48829272 0 -248.81436674 0 10380.17358546 0 2278.09857957 0 4505.74330423 0 5916
0.07350000 0.07351270 27779.12278849 0 -192.18493336 0 8822.54806845 0 1628.06570883 0 3687.59007015 0 5721
0.07450000 0.07449140 27149.25371380 0 157.63696399 0 7857.92448747 0 774.53932032 0 4575.41820346 0 6028
0.07550000 0.07549160 27150.47374546 0 491.35777072 0 7816.52104926 0 -803.52505443 0 4317.02658816 0 6183
0.07650000 0.07648840 26317.85759056 0 579.05586499 0 8343.89637295 0 -891.77881766 0 3498.20788226 0 6330
0.07750000 0.07749960 25716.71471597 0 558.91646957 0 9686.21957481 0 -543.83909644 0 3331.68465128 0 6583
0.07850000 0.07848650 25567.42720504 0 304.48662982 0 9969.84366317 0 -872.90270958 0 1083.85616641 0 6549
0.07950000 0.07947320 24698.32101218 0 626.78239458 0 10826.80499537 0 -69.00809647 0 1507.14947970 0 6828
0.08050000 0.08048110 24240.03275428 0 804.44562377 0 10896.38007383 0 -568.99393112 0 215.74707216 0 7147
0.08150000 0.08149960 23323.89988636 0 372.43906616 0 12370.34469226 0 242.56447726 0 2701.66029983 0 7386
0.08250000 0.08250610 23078.89534577 0 -63.80554872 0 9964.15387913 0 1691.08588989 0 739.75399933 0 7227
0.08350000 0.08350160 23098.85950028 0 -45.99841019 0 11595.95732134 0 1341.29172054 0 1691.64044974 0 7798
0.08450000 0.08449610 22798.50988692 0 418.84019771 0 8549.59371155 0 1296.42782888 0 3047.57255025 0 7371
0.08550000 0.08548940 22281.88193307 0 91.30018230 0 8582.76748162 0 1300.43175098 0 2562.69869327 0 8256
0.08650000 0.08650700 21972.88118609 0 231.59084700 0 7388.98868050 0 790.47515210 0 4721.60017924 0 8037
0.08750000 0.08749060 21341.01569595 0 366.42320094 0 6944.75296913 0 901.78085907 0 2226.83506728 0 8155
0.08850000 0.08849210 21075.49244101 0 403.20050090 0 6106.81303969 0 -612.01890232 0 3797.32637275 0 8718
0.08950000 0.08949900 20151.59573523 0 170.94196384 0 5772.36908691 0 419.52230633 0 2246.48866827 0 8571
0.09050000 0.09049190 20194.40775545 0 335.16155322 0 6189.57555132 0 359.05975528 0 2594.70788766 0 8932
0.09150000 0.09150830 20053.10590633 0 81.45108850 0 4923.70397003 0 591.28280051 0 937.12739463 0 9285
0.09250000 0.09250820 19581.39730012 0 -85.56736442 0 5382.22514306 0 348.23585618 0 1706.86866315 0 9204
0.09350000 0.09350330 19603.91242992 0 404.81537917 0 4257.95487321 0 -237.93833901 0 1428.55725813 0 9349
0.09450000 0.09448040 18871.00613558 0 422.33392475 0 6052.33308028 0 -593.42007416 0 376.71583171 0 9564
0.09550000 0.09549270 18566.77460329 0 307.33041272 0 4585.89938458 0 -150.54858002 0 477.08450937 0 10155
0.09650000 0.09649430 18384.76806137 0 -19.01840814 0 6930.09040676 0 -23.07390431 0 493.16674494 0 9913
0.09750000 0.09749140 18138.87622503 0 262.28462543 0 5104.25756515 0 -164.18631578 0 262.07500181 0 10476
0.09850000 0.09850240 18281.61992976 0 23.67892910 0 5614.48589836 0 1000.35387195 0 -463.76841831 0 10575
0.09950000 0.09950330 17589.30741625 0 371.69817421 0 5307.59247880 0 -744.61638008 0 -1144.43406591 0 10882
0.10050000 0.10051200 17324.33872115 0 575.94478425 0 5399.63832227 0 -814.75932782 0 -1648.54005840 0 10875
0.10150000 0.10150300 16692.80596692 0 577.08052281 0 6515.94511272 0 -417.54918239 0 -1991.18040572 0 11118
0.10250000 0.10250800 16058.94406133 0 316.43739453 0 5602.89559755 0 -266.34400351 0 -2103.22367729 0 11575
0.10350000 0.10349800 15497.50767181 0 -19.69031285 0 5583.79655640 0 1148.59326476 0 -2786.24176776 0 11364
0.10450000 0.10450100 15528.45211130 0 49.88177098 0 5049.88851771 0 399.76999368 0 -2619.65198959 0 12093
0.10550000 0.10551000 15353.54393542 0 74.37202114 0 4154.66255603 0 538.57299613 0 -2790.53406098 0 12067
0.10650000 0.10649700 14954.48266923 0 251.29990397 0 4164.88863962 0 263.57453164 0 -1918.27796818 0 12054
0.10750000 0.10749900 15157.11883747 0 110.25659065 0 3770.54113212 0 123.55593400 0 -2044.08541516 0 12807
0.10850000 0.10850100 14990.63997128 0 -49.15640670 0 3984.95615153 0 500.73648686 0 -1205.81274982 0 12736
0.10950000 0.10950300 14815.62088344 0 103.98751340 0 3881.35328083 0 414.36933622 0 -392.50969616 0 12933
0.11050000 0.11050200 14636.38714075 0 107.78591562 0 3686.61404482 0 425.32522057 0 -195.80177268 0 13428
0.11150000 0.11150900 14885.38451224 0 53.69536814 0 3849.48827200 0 325.32477065 0 1282.40855594 0 13453
0.11250000 0.11250000 14780.01814123 0 -79.78252883 0 4310.20550203 0 168.23682091 0 733.15584627 0 13668
0.11350000 0.11349100 15017.36975592 0 21.36541633 0 3864.39484070 0 -46.31162559 0 1831.40062248 0 13791
0.11450000 0.11448600 15157.00792550 0 -25.51241487 0 4278.07430447 0 -199.20566103 0 597.05798676 0 14205
0.11550000 0.11549300 14805.86063012 0 227.43941198 0 4337.34566097 0 -557.13522334 0 1155.71381320 0 14776
0.11650000 0.11649800 14698.05419578 0 246.62052798 0 4882.23398464 0 -430.35951487 0 469.94954237 0 14553
0.11750000 0.11747300 14595.23880007 0 -4.72720123 0 4692.74088478 0 99.01399887 0 32.00242876 0 14568
0.11850000 0.11849100 14636.38714075 0 53.71732871 0 4727.46742242 0 421.19485883 0 -475.66261792 0 16015
0.11950000 0.11950300 14693.28498110 0 -130.89276078 0 4163.80170232 0 106.11824325 0 -860.77004924 0 15270
0.12050000 0.12050700 14483.21771090 0 34.31327965 0 4179.32937804 0 122.54552596 0 -1134.69599498 0 15999
0.12150000 0.12150000 14958.47550013 0 60.66751636 0 3860.46855698 0 -91.18250470 0 -1175.55596454 0 15670
0.12250000 0.12250700 14350.78881934 0 214.11222973 0 4130.37283472 0 -24.42226112 0 -989.08632497 0 16887
0.12350000 0.12352200 14511.94391099 0 196.64692189 0 4116.24264980 0 64.81030025 0 -562.26157457 0 16407
0.12450000 0.12449800 14228.89656487 0 -31.02740164 0 3574.06057819 0 942.91810855 0 -285.55062927 0 16306
0.12550000 0.12549900 14174.10605195 0 184.86363425 0 3936.80926557 0 358.63052596 0 685.82083593 0 17523
0.12650000 0.12650100 13897.60251203 0 241.63614407 0 4119.45909692 0 257.75830796 0 1588.59213889 0 17154
0.12750000 0.12750600 13262.40966281 0 312.68080612 0 4011.25337949 0 218.81600635 0 1674.48236806 0 18007
0.12850000 0.12850300 13433.21409581 0 87.09273674 0 4016.42187727 0 202.46203645 0 2356.81280432 0 17496
0.12950000 0.12949900 12831.51666137 0 245.92400081 0 3850.33120297 0 -28.73496214 0 1499.95129288 0 18405
0.13050000 0.13049000 12760.20026499 0 263.95495969 0 3905.15498948 0 -257.34127895 0 2014.36100734 0 18100
0.13150000 0.13148800 12416.37315960 0 98.88966655 0 4005.68559862 0 106.55834194 0 1569.50418895 0 19059
0.13250000 0.13249300 12276.51316608 0 110.17063388 0 3794.30956718 0 140.99795032 0 920.46730769 0 18957
0.13350000 0.13349100 12256.88174748 0 102.13350892 0 3860.52401296 0 -71.87750003 0 812.09522231 0 19468
0.13450000 0.13450700 11884.99391381 0 349.81635175 0 3805.93314159 0 -852.13555241 0 -289.12088557 0 19953
0.13550000 0.13551000 11444.56248299 0 423.77467124 0 4710.77517102 0 -750.52909717 0 12.61357464 0 19956
0.13650000 0.13649900 11379.90080478 0 203.32160422 0 5064.31816494 0 -500.82521644 0 -591.36709360 0 19723
0.13750000 0.13749600 11040.03325670 0 -62.42913117 0 5345.52437236 0 334.04134233 0 -1042.99841510 0 20946
0.13850000 0.13851100 11157.18957006 0 70.19352360 0 5075.69773301 0 83.97655405 0 -1201.03244393 0 20955
0.13950000 0.13949800 11262.00138123 0 78.11607649 0 5109.24860377 0 -42.01001577 0 -1068.65679012 0 20506
0.14050000 0.14048300 11008.19043026 0 99.48892392 0 4845.18938683 0 376.76685121 0 -742.96379173 0 21447
0.14150000 0.14148400 10833.43753115 0 15.70413667 0 4802.42173140 0 315.63439187 0 -810.28513897 0 21771
0.14250000 0.14249400 11033.94418958 0 -47.19459578 0 4465.52662410 0 745.92181396 0 -337.81345841 0 22470
0.14350000 0.14350900 10873.37693136 0 -11.84340193 0 3864.86067097 0 473.19926308 0 -668.17030511 0 22519
0.14450000 0.14449900 10855.73083701 0 96.09279942 0 3163.85265906 0 372.39913785 0 120.86520962 0 22218
0.14550000 0.14550500 10593.79003869 0 192.47552272 0 3394.82683550 0 50.52284216 0 519.00701559 0 23559
0.14650000 0.14650700 10394.11522003 0 181.86790196 0 2770.58099767 0 75.00521757 0 -160.70478906 0 23044
0.14750000 0.14750500 10104.65716207 0 178.81449544 0 3316.57844103 0 240.15214192 0 175.48048164 0 23649
0.14850000 0.14849900 10019.09966881 0 172.24961596 0 2981.93484671 0 -189.58737503 0 89.33681862 0 23640
0.14950000 0.14949500 9755.53955573 0 46.17254198 0 2997.48470483 0 162.23204688 0 679.03302340 0 24457
0.15050000 0.15050000 9902.66428325 0 -27.21158624 0 3198.01354566 0 397.70592193 0 647.35878316 0 24591
0.15150000 0.15149900 9755.48409975 0 -45.56130612 0 3082.59855021 0 291.71733477 0 692.66965005 0 25020
0.15250000 0.15250500 9826.39012184 0 108.19185343 0 2922.59694304 0 -1.34703696 0 632.58419970 0 25297
0.15350000 0.15350100 9865.73059741 0 97.49317394 0 3112.51150838 0 -271.61454030 0 1016.05900683 0 25452
0.15450000 0.15450400 9575.64034123 0 78.35220807 0 2971.84185749 0 -28.13415200 0 770.64741931 0 26061
0.15550000 0.15549900 9657.73738104 0 42.60993861 0 3077.82933553 0 367.23396743 0 1334.54827279 0 26128
0.15650000 0.15649500 9627.76896689 0 -31.51752163 0 2446.65149960 0 466.08758759 0 1144.27878915 0 26331
0.15750000 0.15749700 9679.02138799 0 27.80662896 0 2681.62959814 0 575.62646689 0 1280.55632605 0 27345
0.15850000 0.15849900 9376.93045671 0 233.60389924 0 1855.75689098 0 201.26751454 0 1603.94235547 0 26980
0.15950000 0.15949700 9162.85926441 0 105.85027993 0 2122.89946068 0 204.67473024 0 2384.74043823 0 27777
0.16050000 0.16050000 9040.76736840 0 101.53303152 0 1819.12266746 0 -49.14609189 0 1809.14059021 0 28224
0.16150000 0.16150500 8977.53645460 0 50.34338660 0 2083.17079321 0 92.99025889 0 1858.01949516 0 28075
0.16250000 0.16249700 8836.73370935 0 126.42522665 0 2068.37513648 0 -235.01026302 0 1337.11033929 0 28590
0.16350000 0.16349900 8643.41414654 0 265.14837248 0 2201.40295268 0 -372.34811835 0 1619.12620409 0 29163
0.16450000 0.16449100 8594.84579510 0 18.52229890 0 2340.35346804 0 -83.30431660 0 1125.47921032 0 28996
0.16550000 0.16550500 8564.71101299 0 99.77929146 0 2517.02514423 0 -192.56425230 0 1030.21359237 0 30777
0.16650000 0.16650700 8380.61932605 0 144.14008642 0 2567.05753367 0 119.49101032 0 853.87908857 0 29211
0.16750000 0.16749900 8256.58647057 0 84.73663377 0 2474.85641344 0 -87.09451133 0 977.93412644 0 30922
0.16850000 0.16850800 8127.15220219 0 13.50020493 0 2570.26288958 0 333.11190002 0 840.03394742 0 30867
0.16950000 0.16949900 8294.19671943 0 -64.80630742 0 2301.20154282 0 283.77936512 0 883.10550165 0 30852
0.17050000 0.17049200 8135.18222878 0 112.72316194 0 2253.18775123 0 -90.81849162 0 522.83126030 0 31257
0.17150000 0.17149500 8143.43407931 0 98.55094140 0 1974.92071099 0 -13.41724277 0 700.58210995 0 32608
0.17250000 0.17250900 7856.32735511 0 147.25449452 0 2336.62682587 0 -185.70434698 0 481.10617738 0 32361
0.17350000 0.17350400 7758.34772127 0 212.48515113 0 1930.66683517 0 -194.43755546 0 126.06143539 0 32508
0.17450000 0.17449800 7516.44871583 0 49.20265699 0 2283.76618121 0 81.73668682 0 80.95387014 0 32791
0.17550000 0.17549800 7557.17559102 0 -14.13706145 0 1843.00201449 0 186.64266224 0 -213.65970889 0 33633
0.17650000 0.17650100 7488.53217311 0 -18.16116953 0 1941.56948177 0 186.48849461 0 34.37461397 0 33984
0.17750000 0.17750300 7489.61911041 0 -19.44431011 0 1722.06360297 0 208.55443094 0 -41.00670609 0 34069
0.17850000 0.17849800 7557.31977658 0 65.02125481 0 1512.95017571 0 35.50125775 0 -224.46586208 0 34536
