### header ###
fiducial parameters:
Omega_m = 0.31
Omega_nu = 0
Omega_de = 0.69
Omega_k = 0
H_0 = 100
w_de = -1
zeff = 0
beta = 0
fgrowth = 0
b_1 = 2
gamma = 0.55
Lx = 3500 Ly = 3500 Lz = 3500
nx = 700 ny = 700 nz = 700
xoffset = 1379.75464 yoffset = 22.6059522 zoffset = 368.141391
bins = 400 dk = 0.001
kx_ny = 0.628318531 ky_ny = 0.628318531 kz_ny = 0.628318531
############################
A(data) = 3.40905879 (not used)
A(ran) = 3.41616623 (used)
Ngal = 192235
weighted Ngal = 0
Nran = 9399747
weighted Nran = 0
SN(data) = 6559.31165
SN(ran) = 135.87932
SN(data+ran) = 6695.19097
############################
13 columns: k_central k_mean P_0(k) sigma^{lin}_{P_0(k)} P^img_1(k) sigma^{lin}_{P_1(k)} P_2(k) sigma^{lin}_{P_2(k)} P^img_3(k) sigma^{lin}_{P_3(k)} P_4(k) sigma^{lin}_{P_4(k)} N_modes
### header ###
0.00050000 0 0 0 0 0 0 0 0 0 0 0 0
0.00150000 0.00179520 53642.68495205 0 -15404.34161745 0 -8260.96749337 0 35211.66659940 0 82462.16201428 0 3
0.00250000 0.00253879 73115.38852207 0 -20446.84339799 0 -11611.48499706 0 -5345.39127800 0 24047.48957526 0 6
0.00350000 0.00331552 81713.61713224 0 -9130.10695982 0 8612.80244296 0 -26684.19982576 0 -47802.28246305 0 7
0.00450000 0.00420575 83732.76953667 0 10762.13222597 0 13331.50781979 0 -28480.53008349 0 -85.41985150 0 24
0.00550000 0.00557378 65602.32262132 0 8419.11687065 0 38506.08482893 0 806.48529489 0 22010.59125572 0 45
0.00650000 0.00659388 63366.67005246 0 -454.29986348 0 51803.09902622 0 4501.59519657 0 -35800.05459750 0 40
0.00750000 0.00754703 65857.42015113 0 -3324.19809334 0 39884.49878566 0 18453.75530639 0 -4317.39259766 0 57
0.00850000 0.00846663 83059.31205797 0 -4491.48002496 0 40549.41604270 0 4188.40197715 0 -34009.15902627 0 75
0.00950000 0.00948925 77407.45991710 0 6359.40395899 0 42942.67452019 0 -9224.19358353 0 8766.97008054 0 112
0.01050000 0.01054430 72899.44291749 0 2727.90207181 0 41934.81745350 0 -114.98243876 0 -8270.62792591 0 105
0.01150000 0.01145670 79715.31617808 0 -3196.17240696 0 42437.80323511 0 19347.81669239 0 -4713.34832871 0 144
0.01250000 0.01249090 83654.35477424 0 -5156.44164679 0 30139.21858710 0 14907.56690614 0 -8922.00283148 0 169
0.01350000 0.01339930 80187.57934414 0 -1152.05371821 0 25351.14886455 0 11571.44577608 0 -4573.47724399 0 180
0.01450000 0.01448870 87281.17617631 0 3466.12104949 0 22952.56661253 0 -2107.32742016 0 11129.35066572 0 267
0.01550000 0.01550050 82550.22611805 0 10820.50519550 0 33610.87414386 0 -11493.03101366 0 -10358.91176091 0 238
0.01650000 0.01653350 71434.73944851 0 5070.70669438 0 39984.09773425 0 6348.90059548 0 18561.56174073 0 315
0.01750000 0.01747870 67041.51633732 0 976.16951700 0 45988.31720217 0 9055.00846529 0 19642.95344318 0 297
0.01850000 0.01844180 68395.08601288 0 -391.04565816 0 23803.59415437 0 24167.60723821 0 30134.00572453 0 388
0.01950000 0.01947590 65215.57258373 0 -1489.14846706 0 30536.61617375 0 16123.82756348 0 33086.92600003 0 399
0.02050000 0.02045430 68713.51427726 0 -1041.92256899 0 9440.38319445 0 15664.65200982 0 38357.35187786 0 462
0.02150000 0.02154770 70792.22640930 0 473.73940437 0 13031.04729447 0 769.32978512 0 35042.96949382 0 571
0.02250000 0.02255340 67352.29167581 0 3649.48071743 0 9106.93744940 0 -9592.79842291 0 29297.17491479 0 510
0.02350000 0.02348930 63963.82009616 0 -321.52825393 0 9460.90190880 0 6044.48051284 0 18980.14351355 0 555
0.02450000 0.02439640 62385.32094648 0 -3036.62553886 0 5233.37018882 0 771.21196124 0 2933.14467134 0 592
0.02550000 0.02547300 68085.41979408 0 807.87280363 0 4584.40207299 0 -2070.07208961 0 -1478.70055953 0 837
0.02650000 0.02652900 61024.43108094 0 1901.55244318 0 6557.54819247 0 -3746.86142664 0 -13954.61126435 0 723
0.02750000 0.02749970 61938.90026932 0 580.33689824 0 -3952.31475891 0 -7164.34757751 0 -9245.01176021 0 826
0.02850000 0.02848090 62790.26054706 0 -883.10661077 0 4853.20832222 0 -1620.90079560 0 -25123.66841514 0 831
0.02950000 0.02946900 63068.98232637 0 366.38770911 0 1110.63918880 0 -4881.77924556 0 -24413.38816258 0 996
0.03050000 0.03053250 63167.91580315 0 1482.93739677 0 7355.22707699 0 -4376.70831894 0 -28950.57501016 0 1041
0.03150000 0.03150510 58057.31407335 0 3757.50897571 0 12653.39203838 0 -13449.29633138 0 -32342.70668480 0 1036
0.03250000 0.03246190 54740.82436189 0 5335.38701835 0 13894.05332901 0 -1950.36480095 0 -25674.01360772 0 1059
0.03350000 0.03345080 52850.99531388 0 1693.03794056 0 25094.60947914 0 -3001.86572763 0 -27426.75546144 0 1302
0.03450000 0.03451200 48457.43946678 0 1044.07758856 0 21856.64544208 0 2534.39395865 0 -21316.61506267 0 1339
0.03550000 0.03553350 49686.23317668 0 1291.60315821 0 26811.41585476 0 3015.25280234 0 -23470.96915789 0 1365
0.03650000 0.03647120 48378.80288042 0 -225.76796860 0 22844.09470638 0 16.44735778 0 -16396.67100840 0 1308
0.03750000 0.03744890 46872.28559894 0 1206.85532233 0 23399.09820167 0 2322.35245540 0 -11888.76492077 0 1579
0.03850000 0.03847530 46526.90572598 0 797.71770371 0 25450.63690118 0 -2508.88420567 0 -9320.58717621 0 1662
0.03950000 0.03950240 46790.87621334 0 1050.59255765 0 24444.22169010 0 2929.54003233 0 -8669.53391535 0 1683
0.04050000 0.04050350 43542.70827509 0 985.48723156 0 24560.79017002 0 2978.17493095 0 -10291.24436833 0 1822
0.04150000 0.04152450 44116.12315731 0 933.25878513 0 22040.42657551 0 2868.82682023 0 -2187.33931495 0 1887
0.04250000 0.04250150 42477.50972018 0 -690.52128520 0 23919.27533854 0 3083.40820759 0 -3032.28888086 0 1920
0.04350000 0.04349210 43272.63762940 0 803.02816880 0 23505.90642828 0 1338.91820439 0 3351.75971775 0 2005
0.04450000 0.04448520 41879.25055679 0 1986.12281991 0 21590.45671532 0 -2146.44607180 0 -2990.49725076 0 2151
0.04550000 0.04548030 39384.17489132 0 1533.32470450 0 23890.32731450 0 472.57150133 0 1874.94466170 0 2274
0.04650000 0.04648670 37616.90356959 0 1096.37258217 0 24592.84372920 0 2345.45541864 0 3713.17746151 0 2311
0.04750000 0.04749250 36587.08593295 0 3.72210588 0 22829.23250247 0 4474.13339293 0 2627.69310738 0 2568
0.04850000 0.04851840 38068.42619735 0 -139.73244475 0 20500.52479122 0 4384.02850892 0 4629.33251182 0 2493
0.04950000 0.04949480 36424.48898569 0 848.10612056 0 18433.12568007 0 1424.25387371 0 2124.95133211 0 2644
0.05050000 0.05050630 34989.62083650 0 819.47086828 0 16921.39553603 0 -1926.50763632 0 3755.46819547 0 2829
0.05150000 0.05149060 33887.26677181 0 913.86471815 0 15881.15217425 0 -109.10964998 0 2449.75703474 0 2784
0.05250000 0.05249300 33430.42036952 0 495.28405444 0 16836.76970331 0 407.37966391 0 -351.32697277 0 3055
0.05350000 0.05348950 32766.16858429 0 -0.27337250 0 15334.79981258 0 1210.57087331 0 -3824.57744366 0 3009
0.05450000 0.05448610 33556.63819079 0 -966.58006812 0 11798.70440155 0 4797.18668644 0 -1696.94204188 0 3336
0.05550000 0.05550870 33175.87739955 0 -153.18384841 0 11672.93022816 0 1990.94749058 0 -858.31445823 0 3349
0.05650000 0.05647670 34003.72433977 0 660.63716414 0 8035.03981153 0 48.92326974 0 -639.66149248 0 3324
0.05750000 0.05747970 33181.53391000 0 358.28226238 0 9239.13342582 0 1121.86348012 0 844.68670454 0 3639
0.05850000 0.05849280 31320.65288602 0 994.09289127 0 8911.32200882 0 -2268.20523190 0 421.31020728 0 3846
0.05950000 0.05951020 31546.58056786 0 1242.36933496 0 12557.56409675 0 -2103.42331884 0 -1810.68226659 0 3787
0.06050000 0.06049470 29506.35488923 0 1136.49276889 0 13518.83813625 0 -1995.28414859 0 -2001.66158684 0 3930
0.06150000 0.06148310 29656.52969591 0 -372.46346680 0 13535.03128379 0 219.00233846 0 -4013.63798683 0 4083
0.06250000 0.06249100 29252.03374321 0 87.94309881 0 14918.99083899 0 1026.39156591 0 -3769.49855961 0 4303
0.06350000 0.06350600 29785.52031642 0 320.29158547 0 13228.80333605 0 2112.56246512 0 -2909.60915141 0 4470
0.06450000 0.06451750 29287.19283754 0 -601.12845604 0 11971.61616197 0 2907.28000005 0 -2758.53595778 0 4479
0.06550000 0.06550280 29480.95604822 0 -287.79659665 0 10014.88501397 0 2675.85108453 0 832.23794509 0 4636
0.06650000 0.06648880 30001.90956888 0 358.53514167 0 8999.11992386 0 130.70421044 0 245.73101399 0 4653
0.06750000 0.06749660 28911.31217296 0 1310.84638492 0 9704.50895857 0 -1249.83371050 0 544.94267054 0 5220
0.06850000 0.06852730 27424.98086993 0 1285.34772313 0 12758.53658545 0 -2469.43281813 0 697.29135182 0 5029
0.06950000 0.06949320 25884.30270185 0 682.86392283 0 12580.96652231 0 -358.38097403 0 1377.75957611 0 5040
0.07050000 0.07048030 25717.60201172 0 -390.41345994 0 12710.28987872 0 2492.75760531 0 1362.71991304 0 5475
0.07150000 0.07148790 26676.87963577 0 -706.61904845 0 10035.51464030 0 2339.16670997 0 35.28364847 0 5509
0.07250000 0.07249820 26758.06719743 0 -73.60717219 0 9118.18392310 0 1256.23333114 0 1967.94434811 0 5916
0.07350000 0.07351270 26323.73592494 0 562.23828306 0 9795.27931440 0 -494.31135647 0 1671.78720720 0 5721
0.07450000 0.07449140 26296.56249242 0 21.41310848 0 6786.20430875 0 763.05771324 0 1674.92601594 0 6028
0.07550000 0.07549160 25586.06041592 0 41.73683959 0 8581.31453482 0 -205.01855735 0 32.94484777 0 6183
0.07650000 0.07648840 26018.72800887 0 703.68099038 0 8638.03491602 0 -1910.22575920 0 -2056.80701806 0 6330
0.07750000 0.07749960 24896.96434952 0 657.65585040 0 9563.46220698 0 -1652.86562521 0 -3318.58594768 0 6583
0.07850000 0.07848650 24350.39016391 0 367.03987149 0 10199.87508787 0 -52.64403358 0 -3437.80522368 0 6549
0.07950000 0.07947320 23810.24887254 0 217.43182497 0 10905.35285216 0 126.81896415 0 -2802.62346565 0 6828
0.08050000 0.08048110 24470.84056277 0 62.93810620 0 9901.31115722 0 1433.92539745 0 -3621.96345781 0 7147
0.08150000 0.08149960 23300.60837276 0 15.55762196 0 9808.73293630 0 1127.94145604 0 -2979.00677072 0 7386
0.08250000 0.08250610 24214.41208933 0 -58.19850501 0 9499.78764530 0 877.20276663 0 -998.24543541 0 7227
0.08350000 0.08350160 23287.96440824 0 296.96236181 0 8875.76363141 0 275.74712029 0 -973.75274519 0 7798
0.08450000 0.08449610 23082.00088092 0 763.67549291 0 10158.16109615 0 -1159.92846804 0 -1140.58542056 0 7371
0.08550000 0.08548940 22620.82891181 0 710.94683350 0 9808.91039545 0 -725.34875274 0 -780.36219872 0 8256
0.08650000 0.08650700 21441.94558818 0 176.46759816 0 11076.07964678 0 82.78280852 0 -883.80091970 0 8037
0.08750000 0.08749060 21830.80295319 0 148.22941073 0 9956.51204443 0 711.00339861 0 -1277.76134442 0 8155
0.08850000 0.08849210 21959.68266172 0 -183.85766269 0 10092.09083593 0 1311.17912082 0 -129.03498530 0 8718
0.08950000 0.08949900 21423.86693716 0 430.39944317 0 8716.73804956 0 509.00830154 0 -955.92475521 0 8571
0.09050000 0.09049190 20897.70055393 0 369.60415622 0 8948.58843057 0 548.89668225 0 972.13121220 0 8932
0.09150000 0.09150830 20855.55400553 0 -3.38972488 0 9227.84258733 0 1541.02199518 0 941.60491083 0 9285
0.09250000 0.09250820 20246.98002898 0 -10.00912868 0 6918.53337954 0 1159.12990186 0 1190.40707726 0 9204
0.09350000 0.09350330 20137.95356298 0 394.25434144 0 7724.24229065 0 598.89690721 0 2584.25998013 0 9349
0.09450000 0.09448040 19706.72782563 0 306.85349125 0 5398.99503285 0 566.25551459 0 1631.08251440 0 9564
0.09550000 0.09549270 19448.08111280 0 122.74960399 0 6783.94170458 0 536.17729759 0 4383.79559378 0 10155
0.09650000 0.09649430 19087.72812395 0 -38.62187693 0 5210.55559670 0 1217.73578654 0 3074.64616200 0 9913
0.09750000 0.09749140 19068.76217717 0 179.25925244 0 5541.31727209 0 250.40928086 0 3945.39385201 0 10476
0.09850000 0.09850240 18802.57345041 0 543.50303317 0 5137.99698626 0 -539.00111633 0 1981.90816507 0 10575
0.09950000 0.09950330 17892.87347672 0 666.56762715 0 6391.20242064 0 -1308.46177757 0 3049.03658825 0 10882
0.10050000 0.10051200 17083.77065935 0 573.30175201 0 6368.49874049 0 -1027.75800137 0 1403.19169071 0 10875
0.10150000 0.10150300 16760.46226831 0 413.87023236 0 7933.46662988 0 -159.19305892 0 1095.99769971 0 11118
0.10250000 0.10250800 16533.20364284 0 145.50319452 0 7458.50830297 0 116.88790640 0 479.99262121 0 11575
0.10350000 0.10349800 16181.61269958 0 36.16173853 0 7613.56323630 0 1043.97444043 0 346.56663104 0 11364
0.10450000 0.10450100 15941.37737368 0 26.82494712 0 6222.42767668 0 1107.28188349 0 1075.99583514 0 12093
0.10550000 0.10551000 16050.40383968 0 -18.31489352 0 6161.65900860 0 667.83424184 0 1053.37866632 0 12067
0.10650000 0.10649700 15944.03926095 0 68.27064278 0 5584.47311941 0 338.44454752 0 1477.82435497 0 12054
0.10750000 0.10749900 15810.61216166 0 297.56350468 0 5400.65871239 0 -174.56545789 0 1118.49175624 0 12807
0.10850000 0.10850100 15451.81194039 0 132.08062798 0 5292.35317419 0 -226.46116841 0 1376.58390923 0 12736
0.10950000 0.10950300 15355.54035088 0 61.35871976 0 5261.54182907 0 8.05732203 0 582.44089830 0 12933
0.11050000 0.11050200 15373.61900190 0 -13.17545468 0 4858.42118479 0 248.40953805 0 -183.77558783 0 13428
0.11150000 0.11150900 15176.41752016 0 177.42920494 0 5021.59487429 0 191.61484584 0 559.91911378 0 13453
0.11250000 0.11250000 15266.81077529 0 156.39585905 0 4884.29694727 0 80.03951186 0 319.21130289 0 13668
0.11350000 0.11349100 14878.39705816 0 113.37088785 0 5143.76440868 0 378.82537737 0 739.97249591 0 13791
0.11450000 0.11448600 14630.39789440 0 285.61163085 0 5030.19055193 0 -202.82582771 0 -99.86458276 0 14205
0.11550000 0.11549300 14620.41581715 0 122.32481114 0 4980.24689207 0 149.65130218 0 1225.34434764 0 14776
0.11650000 0.11649800 14415.45049754 0 -47.01702572 0 5583.10890219 0 274.03907596 0 635.32372535 0 14553
0.11750000 0.11747300 14450.49867990 0 47.23873875 0 4869.93384722 0 85.73628335 0 452.89017235 0 14568
0.11850000 0.11849100 14225.45829382 0 140.59866723 0 5513.89983323 0 -112.93167645 0 898.87940195 0 16015
0.11950000 0.11950300 14523.03510794 0 123.85317808 0 5034.98194901 0 255.97484349 0 936.92664396 0 15270
0.12050000 0.12050700 14267.49393025 0 63.70694797 0 5387.85947111 0 220.64383561 0 1065.92502831 0 15999
0.12150000 0.12150000 14021.04753407 0 150.93455367 0 4832.57869590 0 227.51705036 0 942.72068525 0 15670
0.12250000 0.12250700 13719.03424116 0 276.88064062 0 5574.95687243 0 -299.79283527 0 1044.32381313 0 16887
0.12350000 0.12352200 13886.73313902 0 42.89786608 0 5221.91298237 0 23.26156736 0 1324.86565786 0 16407
0.12450000 0.12449800 13397.83317754 0 89.76538247 0 5296.94492973 0 296.98676244 0 666.44562399 0 16306
0.12550000 0.12549900 13639.06671117 0 96.84866449 0 4907.05608341 0 -278.25927640 0 168.14698221 0 17523
0.12650000 0.12650100 13214.05204411 0 257.60635856 0 5369.80300248 0 -96.80086143 0 -101.42932883 0 17154
0.12750000 0.12750600 13150.49948560 0 149.35960370 0 5265.97830785 0 -136.52930707 0 44.14562574 0 18007
0.12850000 0.12850300 12835.06584439 0 195.37587072 0 5166.98937509 0 128.83423463 0 -1001.70921622 0 17496
0.12950000 0.12949900 12614.46193709 0 94.09638397 0 4814.59986565 0 313.33075027 0 -749.87028007 0 18405
0.13050000 0.13049000 12682.00732651 0 32.93941308 0 5131.45318006 0 261.76001182 0 -599.77200265 0 18100
0.13150000 0.13148800 12290.70989817 0 52.12163820 0 4442.85621753 0 284.15202933 0 -438.36403170 0 19059
0.13250000 0.13249300 12581.85381806 0 115.25306397 0 4814.33367692 0 75.78692513 0 -520.05291547 0 18957
0.13350000 0.13349100 12030.73224171 0 127.63749448 0 4409.47171472 0 92.71907913 0 -493.66141233 0 19468
0.13450000 0.13450700 12117.90904972 0 134.19793748 0 4674.72878093 0 316.69027382 0 394.20554017 0 19953
0.13550000 0.13551000 12021.08290036 0 -35.95743868 0 3772.38227082 0 583.84726207 0 297.35720842 0 19956
0.13650000 0.13649900 12044.48532592 0 -34.92041177 0 4021.30200393 0 950.76623951 0 1040.67370022 0 19723
0.13750000 0.13749600 11851.72032296 0 149.69012137 0 3121.55083390 0 399.06348444 0 919.97818591 0 20946
0.13850000 0.13851100 11557.91451580 0 207.76917419 0 2981.76847876 0 150.33119256 0 1711.95952255 0 20955
0.13950000 0.13949800 11458.87012706 0 82.43310308 0 2782.07147770 0 332.56177665 0 1630.42813378 0 20506
0.14050000 0.14048300 11081.82488680 0 115.64569234 0 2206.06125540 0 290.20560463 0 1469.00685340 0 21447
0.14150000 0.14148400 11306.58799296 0 53.98440473 0 2331.90197597 0 -80.05759052 0 1238.26559209 0 21771
0.14250000 0.14249400 10791.24661795 0 166.88924048 0 2186.68493433 0 -636.63470483 0 580.25482338 0 22470
0.14350000 0.14350900 10829.31160588 0 412.66461925 0 2447.13951226 0 -549.93592740 0 12.11291801 0 22519
0.14450000 0.14449900 10375.75928908 0 50.65837659 0 2898.44031609 0 -440.54788838 0 -418.41651399 0 22218
0.14550000 0.14550500 10376.34712252 0 54.58931861 0 3137.18942159 0 173.55615897 0 -584.52493421 0 23559
0.14650000 0.14650700 10495.45548654 0 -69.01530575 0 2974.86975426 0 379.97109801 0 -832.87457979 0 23044
0.14750000 0.14750500 10407.41356517 0 -50.42113589 0 2326.31201271 0 405.58067176 0 -445.55667292 0 23649
0.14850000 0.14849900 10436.18413005 0 135.85939878 0 2601.59552096 0 161.45455398 0 -437.87158256 0 23640
0.14950000 0.14949500 10333.41309913 0 191.67584742 0 2525.82046341 0 -305.68336997 0 -404.70890368 0 24457
0.15050000 0.15050000 9950.38970372 0 305.53807529 0 2801.17051885 0 -241.51857739 0 9.29100695 0 24591
0.15150000 0.15149900 9573.51083142 0 232.49145219 0 2797.76552139 0 67.79494135 0 -85.79196116 0 25020
0.15250000 0.15250500 9459.65969475 0 52.34290758 0 2766.17779248 0 236.80038220 0 -119.84703774 0 25297
0.15350000 0.15350100 9520.29526846 0 -42.27076981 0 2809.85492606 0 408.83482895 0 -52.18552350 0 25452
0.15450000 0.15450400 9388.28784238 0 80.50234751 0 2446.66259079 0 278.13283675 0 183.07906067 0 26061
0.15550000 0.15549900 9325.13456696 0 94.26408286 0 2423.04943249 0 -423.03599752 0 17.08365975 0 26128
0.15650000 0.15649500 9055.49647795 0 211.06436880 0 2500.84308789 0 47.95545189 0 -133.84967389 0 26331
0.15750000 0.15749700 9025.11768951 0 181.14142856 0 2949.04944776 0 -539.56454914 0 -294.96816460 0 27345
0.15850000 0.15849900 8879.21299366 0 -25.50210006 0 2338.40141738 0 374.92238516 0 -459.80109716 0 26980
0.15950000 0.15949700 8910.42362187 0 -93.14631203 0 2762.55097108 0 562.57212809 0 -39.42243952 0 27777
0.16050000 0.16050000 8895.80542429 0 17.80591849 0 1956.04349379 0 88.46360868 0 -254.77144862 0 28224
0.16150000 0.16150500 8912.96350597 0 92.60550527 0 2181.74935168 0 30.83374934 0 -450.62424081 0 28075
0.16250000 0.16249700 8915.48120768 0 74.00346066 0 2225.28229971 0 1.59737637 0 11.12835246 0 28590
0.16350000 0.16349900 8639.85387232 0 60.89466408 0 2137.67293501 0 -82.18732215 0 -237.30281343 0 29163
0.16450000 0.16449100 8808.48443072 0 15.02202806 0 2269.76909067 0 78.40810771 0 -327.23356564 0 28996
0.16550000 0.16550500 8645.27746762 0 79.17129297 0 2119.73846955 0 -131.85769492 0 -492.10420828 0 30777
0.16650000 0.16650700 8612.20351833 0 206.29959060 0 2712.64058481 0 -167.70222522 0 -432.72415805 0 29211
0.16750000 0.16749900 8513.99096935 0 92.18270884 0 2507.65308281 0 158.70726449 0 200.38132790 0 30922
0.16850000 0.16850800 8440.53397196 0 -72.51446747 0 2292.49495321 0 408.23923167 0 185.44037650 0 30867
0.16950000 0.16949900 8480.93920244 0 57.04357867 0 2606.33146206 0 126.35646123 0 713.27709398 0 30852
0.17050000 0.17049200 8426.79197894 0 195.02206154 0 2430.15888973 0 60.19946785 0 684.57751276 0 31257
0.17150000 0.17149500 8167.87907738 0 139.33205254 0 2841.43156377 0 -176.57296454 0 838.75513241 0 32608
0.17250000 0.17250900 8077.43036627 0 99.82299077 0 2661.09979259 0 -167.39388994 0 1168.11377139 0 32361
0.17350000 0.17350400 8039.88666460 0 49.04150190 0 2846.40042000 0 39.07561779 0 414.42146485 0 32508
0.17450000 0.17449800 7831.20579402 0 131.85880404 0 2954.32885751 0 -156.96816481 0 826.43503084 0 32791
0.17550000 0.17549800 7820.10350587 0 54.55781961 0 2640.14852155 0 286.73295086 0 303.13683115 0 33633
0.17650000 0.17650100 7780.47465918 0 71.41621715 0 3004.78271242 0 103.45724328 0 843.51547414 0 33984
0.17750000 0.17750300 7642.62217231 0 72.87071672 0 2173.56404834 0 304.28587915 0 571.45506772 0 34069
0.17850000 0.17849800 7578.60378352 0 0.16171742 0 2524.58934055 0 224.02554156 0 1196.11904368 0 34536
