### header ###
fiducial parameters:
Omega_m = 0.31
Omega_nu = 0
Omega_de = 0.69
Omega_k = 0
H_0 = 100
w_de = -1
zeff = 0
beta = 0
fgrowth = 0
b_1 = 2
gamma = 0.55
Lx = 3500 Ly = 3500 Lz = 3500
nx = 700 ny = 700 nz = 700
xoffset = 1379.75464 yoffset = 22.6059522 zoffset = 368.141391
bins = 400 dk = 0.001
kx_ny = 0.628318531 ky_ny = 0.628318531 kz_ny = 0.628318531
############################
A(data) = 3.36093182 (not used)
A(ran) = 3.36711575 (used)
Ngal = 188876
weighted Ngal = 0
Nran = 9399747
weighted Nran = 0
SN(data) = 6610.66533
SN(ran) = 133.928318
SN(data+ran) = 6744.59365
############################
13 columns: k_central k_mean P_0(k) sigma^{lin}_{P_0(k)} P^img_1(k) sigma^{lin}_{P_1(k)} P_2(k) sigma^{lin}_{P_2(k)} P^img_3(k) sigma^{lin}_{P_3(k)} P_4(k) sigma^{lin}_{P_4(k)} N_modes
### header ###
0.00050000 0 0 0 0 0 0 0 0 0 0 0 0
0.00150000 0.00179520 30259.33625005 0 -42422.27555938 0 -65560.95245670 0 89664.45257655 0 99039.95226885 0 3
0.00250000 0.00253879 36799.48235451 0 -37533.94141642 0 -10724.98780739 0 -78856.52479838 0 -81031.61943190 0 6
0.00350000 0.00331552 77486.54015134 0 -22402.88689178 0 -95287.57851733 0 26006.30586828 0 15916.97674039 0 7
0.00450000 0.00420575 104177.06195936 0 -14708.59083289 0 -48139.01120240 0 -68032.18204873 0 -37592.28111237 0 24
0.00550000 0.00557378 82100.92172968 0 25561.10522278 0 -5136.97659614 0 -70232.45369932 0 12232.14837829 0 45
0.00650000 0.00659388 75335.40250323 0 16088.00299734 0 46524.57657462 0 -988.43194435 0 -18817.87930220 0 40
0.00750000 0.00754703 51068.75087627 0 -2631.10919604 0 31068.32815545 0 19090.05727531 0 -22981.07098869 0 57
0.00850000 0.00846663 65771.13063887 0 -9870.39999133 0 22046.97038171 0 26440.41531684 0 -11532.62658676 0 75
0.00950000 0.00948925 57118.66607562 0 7131.10726025 0 22086.23321890 0 -13285.70117640 0 -10247.14576927 0 112
0.01050000 0.01054430 62701.75279542 0 7530.01324969 0 27339.35682949 0 -7041.56802729 0 8573.05159310 0 105
0.01150000 0.01145670 54873.03142951 0 -204.18449934 0 19746.87795858 0 17095.30550417 0 -5088.13096478 0 144
0.01250000 0.01249090 54569.46536904 0 -6940.95977977 0 19156.71536897 0 19218.49333597 0 18563.44724421 0 169
0.01350000 0.01339930 62880.43197825 0 -2073.94291735 0 8111.60234407 0 5945.65794803 0 240.84866909 0 180
0.01450000 0.01448870 72446.25661019 0 -7486.31393372 0 -10580.24768721 0 25362.46188544 0 21267.14832428 0 267
0.01550000 0.01550050 79014.46344292 0 -11835.52717542 0 -19613.11812339 0 242.52122159 0 5592.48096361 0 238
0.01650000 0.01653350 84348.66370320 0 -447.24475310 0 -20635.06101020 0 -4474.13339293 0 21331.81000249 0 315
0.01750000 0.01747870 85061.60584303 0 7014.25040921 0 -3987.06347895 0 -17482.49918964 0 4824.39339255 0 297
0.01850000 0.01844180 81590.39393415 0 1784.72886573 0 1870.98510439 0 -6711.44964132 0 22891.67594128 0 388
0.01950000 0.01947590 77504.84062630 0 2485.43741532 0 19334.39634408 0 -4238.24581623 0 -1104.69430724 0 399
0.02050000 0.02045430 75906.82097000 0 2920.62270998 0 24882.21305758 0 -4782.44648569 0 19798.34111242 0 462
0.02150000 0.02154770 71317.28367283 0 8038.11207309 0 37781.27510836 0 -3198.64574388 0 22560.04915253 0 571
0.02250000 0.02255340 67193.02208763 0 3453.59908813 0 47602.41909405 0 1645.26815530 0 45919.44086912 0 510
0.02350000 0.02348930 63152.94268727 0 -141.97175742 0 48965.52719898 0 13055.78066366 0 34453.25055208 0 555
0.02450000 0.02439640 70388.17410447 0 -1664.02336934 0 46781.22687200 0 17369.03624486 0 40113.31017870 0 592
0.02550000 0.02547300 67772.64804014 0 270.59969578 0 49857.48125756 0 4840.25380419 0 40886.69934190 0 837
0.02650000 0.02652900 69398.06295291 0 3505.77207858 0 47621.82868871 0 -3376.40435737 0 28889.24069104 0 723
0.02750000 0.02749970 63617.88566334 0 5311.08620584 0 52583.80837940 0 -5632.37599903 0 36536.84281077 0 826
0.02850000 0.02848090 56692.32046493 0 5180.53172656 0 54488.05598344 0 -6114.55469516 0 13117.78045460 0 831
0.02950000 0.02946900 58164.78777178 0 -2732.38291538 0 53331.02231780 0 16591.21060288 0 21159.23097797 0 996
0.03050000 0.03053250 58531.79547879 0 -3277.90343727 0 42426.60112619 0 12737.46331125 0 10343.78336828 0 1041
0.03150000 0.03150510 62458.30102240 0 517.79807513 0 26228.46254316 0 5798.37794376 0 -6269.44326054 0 1036
0.03250000 0.03246190 57451.06924816 0 2815.45598052 0 28684.27537143 0 -2877.13412675 0 4207.17937358 0 1059
0.03350000 0.03345080 55161.40255017 0 3180.16780977 0 23756.78930325 0 -4518.02125925 0 -8627.07681343 0 1302
0.03450000 0.03451200 50886.96615829 0 1535.85349741 0 28644.67979833 0 1450.98365836 0 -8178.58208244 0 1339
0.03550000 0.03553350 48784.07521691 0 1827.40779158 0 23351.51696676 0 -949.11254205 0 -22464.77577075 0 1365
0.03650000 0.03647120 46886.26050710 0 605.21888947 0 19575.85170164 0 3478.53209887 0 -15163.55173170 0 1308
0.03750000 0.03744890 46435.84699903 0 -129.24349980 0 20561.97002231 0 3849.04462412 0 -17511.11447776 0 1579
0.03850000 0.03847530 44597.70292880 0 557.53894291 0 12147.63345754 0 2229.03112428 0 -14404.47021257 0 1662
0.03950000 0.03950240 45138.84242791 0 -607.02786369 0 11168.83532686 0 5004.96917007 0 -13887.73134675 0 1683
0.04050000 0.04050350 45422.77706978 0 -896.65228960 0 8709.31803880 0 -713.56768334 0 -14554.09045940 0 1822
0.04150000 0.04152450 45924.09917184 0 667.00794767 0 7941.15282937 0 480.50392539 0 -10022.70430782 0 1887
0.04250000 0.04250150 44099.59727386 0 1345.04054511 0 8165.02863977 0 -1225.73253954 0 -15633.15301049 0 1920
0.04350000 0.04349210 43221.95085935 0 759.87786708 0 9248.68294640 0 -2081.21874255 0 -5925.07268650 0 2005
0.04450000 0.04448520 42093.08883396 0 343.04406689 0 9480.15622671 0 637.07280711 0 -11516.76617513 0 2151
0.04550000 0.04548030 43545.14833842 0 182.07087086 0 10909.14604151 0 1032.41297673 0 -6450.46268594 0 2274
0.04650000 0.04648670 42246.48008775 0 442.58090478 0 10599.81255863 0 -1421.99126953 0 -9023.63146912 0 2311
0.04750000 0.04749250 41256.36893618 0 1667.70564673 0 12548.13657934 0 -1997.94603586 0 -8518.02816504 0 2568
0.04850000 0.04851840 40546.31050756 0 1690.69769800 0 17512.88906927 0 -1910.27012398 0 -7567.05784750 0 2493
0.04950000 0.04949480 38329.29114958 0 956.14436091 0 17660.40198869 0 -590.19142673 0 -6746.45345889 0 2644
0.05050000 0.05050630 38154.93753355 0 -101.09337647 0 15407.44715259 0 4345.40896115 0 -3196.86006117 0 2829
0.05150000 0.05149060 38693.08240948 0 -834.33418131 0 13186.76769962 0 2814.03630731 0 -7424.50269312 0 2784
0.05250000 0.05249300 38403.38034519 0 -13.41735368 0 12327.97631992 0 922.98057292 0 -5071.49416936 0 3055
0.05350000 0.05348950 37910.82028872 0 1407.86108462 0 12113.36165897 0 -1023.81397173 0 -7151.82561615 0 3009
0.05450000 0.05448610 34966.88388275 0 2296.66524327 0 13971.02623583 0 -4129.61863332 0 -4602.04816733 0 3336
0.05550000 0.05550870 33545.65790581 0 1431.19696300 0 16199.91317454 0 -1995.32851338 0 -8505.99421635 0 3349
0.05650000 0.05647670 32775.04154185 0 -232.07664142 0 16479.74407355 0 1319.55297452 0 -8780.26842568 0 3324
0.05750000 0.05747970 33106.55741863 0 -384.72034854 0 15179.19031940 0 3454.48638389 0 -7416.16211302 0 3639
0.05850000 0.05849280 32726.79483512 0 158.53756918 0 14270.59946540 0 1201.36517984 0 -7388.62267100 0 3846
0.05950000 0.05951020 32841.81054747 0 339.27638729 0 13729.57087827 0 -414.50243059 0 -4929.48248364 0 3787
0.06050000 0.06049470 33127.40886889 0 257.79601803 0 12708.95893509 0 2194.29349543 0 -5051.01981980 0 3930
0.06150000 0.06148310 31963.16592524 0 51.00031819 0 13532.81304440 0 1070.28608695 0 -1923.70156349 0 4083
0.06250000 0.06249100 32306.10573487 0 -14.29633104 0 10944.97060766 0 797.36278540 0 -3449.01842379 0 4303
0.06350000 0.06350600 32172.56772362 0 328.31384822 0 13079.07217725 0 146.70880763 0 -1350.02049254 0 4470
0.06450000 0.06451750 31781.60303119 0 592.99860867 0 12814.10348216 0 -737.89067825 0 -3215.27144811 0 4479
0.06550000 0.06550280 30514.43377986 0 294.89163534 0 12163.38295721 0 1123.24987973 0 -1947.24817461 0 4636
0.06650000 0.06648880 31134.76442517 0 78.16543232 0 11996.01679526 0 447.70836513 0 -2105.22009274 0 4653
0.06750000 0.06749660 30408.29102506 0 -154.89965658 0 9882.57812558 0 781.59553982 0 -3243.26562921 0 5220
0.06850000 0.06852730 30708.30790251 0 145.57306907 0 10989.54612819 0 887.12827878 0 -3878.75794075 0 5029
0.06950000 0.06949320 30911.16589470 0 595.21241159 0 9643.64046972 0 -645.57199133 0 -4152.04503355 0 5040
0.07050000 0.07048030 29599.29911966 0 694.13479717 0 10272.13423599 0 -787.92084944 0 -3483.73387024 0 5475
0.07150000 0.07148790 28523.67483962 0 467.00482958 0 11668.82648529 0 -262.77485634 0 -5083.12883496 0 5509
0.07250000 0.07249820 27885.59827919 0 1185.23857948 0 12106.04146898 0 -1530.52972287 0 -4769.66942681 0 5916
0.07350000 0.07351270 26930.75713392 0 1193.08005572 0 13762.62264517 0 185.56570702 0 -4770.49017538 0 5721
0.07450000 0.07449140 25359.24543832 0 721.39585015 0 14025.15127694 0 -904.86532094 0 -4462.68727768 0 6028
0.07550000 0.07549160 24691.88811795 0 622.37808027 0 15420.64567696 0 521.92067303 0 -465.35445948 0 6183
0.07650000 0.07648840 24557.13007503 0 -25.10126420 0 13721.58521646 0 1986.62192377 0 -1260.35925641 0 6330
0.07750000 0.07749960 25138.97426693 0 -356.22373622 0 13728.46175857 0 3011.16015067 0 1681.13708623 0 6583
0.07850000 0.07848650 24459.19480598 0 82.08572679 0 12438.99920137 0 1472.62258360 0 1328.86957996 0 6549
0.07950000 0.07947320 24724.60714895 0 408.17712097 0 12472.16188025 0 -39.23965660 0 4486.73299266 0 6828
0.08050000 0.08048110 24198.77350163 0 502.18277894 0 12736.79783943 0 395.32907842 0 3730.36881678 0 7147
0.08150000 0.08149960 23388.89430047 0 96.34700965 0 10892.10996300 0 24.86479988 0 3841.34733344 0 7386
0.08250000 0.08250610 23220.41901883 0 178.18229721 0 12154.62091162 0 824.01936815 0 2478.25031970 0 7227
0.08350000 0.08350160 22945.69007042 0 418.89565370 0 11019.45908636 0 209.82770035 0 1025.01514836 0 7798
0.08450000 0.08449610 22363.62405458 0 538.07943787 0 10875.12934047 0 171.12940507 0 1448.75432777 0 7371
0.08550000 0.08548940 21787.65819706 0 620.49257679 0 10636.54660292 0 -540.67477795 0 -860.61033600 0 8256
0.08650000 0.08650700 20656.91066819 0 242.52343983 0 10470.15646630 0 522.40314010 0 -228.10377468 0 8037
0.08750000 0.08749060 20403.03317004 0 331.01122732 0 9938.38902862 0 1070.82290088 0 -1562.58328205 0 8155
0.08850000 0.08849210 20105.78909183 0 38.99953218 0 8390.04684345 0 841.42034704 0 16.07081164 0 8718
0.08950000 0.08949900 19939.75387351 0 -44.33927804 0 7770.29294038 0 1451.21657349 0 -680.06450472 0 8571
0.09050000 0.09049190 20000.75545673 0 100.21927924 0 7439.97491287 0 620.32509972 0 351.54436023 0 8932
0.09150000 0.09150830 19603.46878204 0 279.36285049 0 6375.81893047 0 -369.19710929 0 -289.05212015 0 9285
0.09250000 0.09250820 19063.99296248 0 349.23073655 0 7437.65685271 0 610.99962132 0 555.28964817 0 9204
0.09350000 0.09350330 19106.47224679 0 141.70778693 0 7369.83418337 0 -60.20556801 0 1701.97744530 0 9349
0.09450000 0.09448040 18924.24388094 0 8.04777251 0 6902.02967849 0 472.23543806 0 104.71077036 0 9564
0.09550000 0.09549270 18964.94857374 0 256.45287408 0 8162.40002609 0 72.69037386 0 1475.28447087 0 10155
0.09650000 0.09649430 18182.57554101 0 575.91261978 0 8206.84245226 0 -927.19744600 0 1466.03441262 0 9913
0.09750000 0.09749140 18318.55361559 0 405.17917043 0 9632.89309988 0 -362.00224983 0 2086.34287554 0 10476
0.09850000 0.09850240 17701.66124133 0 28.78420706 0 8305.74265545 0 69.25609563 0 64.70437932 0 10575
0.09950000 0.09950330 17885.66419870 0 -137.53971512 0 9185.26348225 0 962.36541328 0 1644.62486588 0 10882
0.10050000 0.10051200 17972.17553490 0 117.89165972 0 7799.97298341 0 554.46335400 0 545.17114919 0 10875
0.10150000 0.10150300 17312.02749254 0 149.72672232 0 7039.62706782 0 772.00498182 0 931.00616303 0 11118
0.10250000 0.10250800 17388.66766345 0 250.53461138 0 7457.18845053 0 321.53712689 0 703.88617752 0 11575
0.10350000 0.10349800 16594.75978590 0 292.87192838 0 5699.82156768 0 420.19886934 0 865.70785012 0 11364
0.10450000 0.10450100 16587.88324379 0 -39.13861579 0 5516.59499409 0 1179.89262255 0 1118.95758652 0 12093
0.10550000 0.10551000 16050.40383968 0 36.90983976 0 4905.83605174 0 841.69651784 0 786.49784887 0 12067
0.10650000 0.10649700 16047.52012847 0 408.17490273 0 4414.80658045 0 499.55416527 0 2078.90068238 0 12054
0.10750000 0.10749900 15527.34299160 0 212.23227184 0 3798.30239809 0 75.26708073 0 1506.40636951 0 12807
0.10850000 0.10850100 15155.56606990 0 280.89232655 0 3972.20127504 0 125.63775167 0 2233.29014390 0 12736
0.10950000 0.10950300 15034.45019922 0 176.72713217 0 4508.83774818 0 84.70946034 0 1761.95863839 0 12933
0.11050000 0.11050200 14601.89351824 0 275.08608495 0 3919.67336629 0 -433.21327984 0 1338.54110370 0 13428
0.11150000 0.11150900 14599.23163098 0 141.74771524 0 5264.13716916 0 -456.81201959 0 1674.09417617 0 13453
0.11250000 0.11250000 14327.38639377 0 141.53809162 0 4610.52184180 0 -212.65484645 0 663.00624381 0 13668
0.11350000 0.11349100 14422.10521571 0 -9.62569491 0 5432.77881875 0 180.07778277 0 2038.85037020 0 13791
0.11450000 0.11448600 14409.90489907 0 -140.55319333 0 4799.11655471 0 848.69617224 0 1465.70167671 0 14205
0.11550000 0.11549300 14889.04460723 0 -140.25816749 0 4601.22741876 0 944.49638588 0 2621.63731385 0 14776
0.11650000 0.11649800 14616.31207428 0 -33.27714003 0 4173.65068521 0 711.28844237 0 2465.90581750 0 14553
0.11750000 0.11747300 14815.73179541 0 331.38943714 0 4461.84434671 0 -227.41390223 0 3181.02183193 0 14568
0.11850000 0.11849100 14123.86292978 0 242.36816307 0 3921.39250182 0 293.10373439 0 3879.03522067 0 16015
0.11950000 0.11950300 14027.36951633 0 246.26782792 0 4933.14257863 0 190.22733710 0 3864.03992240 0 15270
0.12050000 0.12050700 13673.89306959 0 205.39122157 0 4062.79417171 0 -165.09579393 0 3954.95446378 0 15999
0.12150000 0.12150000 13430.33038460 0 66.09898642 0 4487.23209652 0 905.39880752 0 3938.16239160 0 15670
0.12250000 0.12250700 13484.23360177 0 -65.04698639 0 3771.04023599 0 180.77209170 0 4267.38239062 0 16887
0.12350000 0.12352200 13371.76886472 0 103.01082260 0 3476.49131863 0 244.22593856 0 3156.92066096 0 16407
0.12450000 0.12449800 13208.83918155 0 182.55444705 0 4033.35813501 0 -232.38497670 0 3269.20793887 0 16306
0.12550000 0.12549900 13239.67270906 0 166.58201432 0 3614.29944071 0 -743.56382549 0 2415.18577385 0 17523
0.12650000 0.12650100 12929.45193042 0 155.87679103 0 4285.53868002 0 -258.90070124 0 2114.15959748 0 17154
0.12750000 0.12750600 12777.61344420 0 137.40329339 0 4138.08121659 0 -205.94134493 0 1836.85749138 0 18007
0.12850000 0.12850300 12969.60206337 0 -129.63723729 0 4104.31961308 0 268.11637679 0 1030.00175051 0 17496
0.12950000 0.12949900 12974.03854215 0 -61.72783479 0 3518.91514696 0 717.70913628 0 1367.41148935 0 18405
0.13050000 0.13049000 12782.82630677 0 137.47205881 0 3388.14993494 0 371.67821005 0 1393.97490604 0 18100
0.13150000 0.13148800 12640.63716189 0 201.47824728 0 3437.21739024 0 334.19994644 0 2530.20148621 0 19059
0.13250000 0.13249300 12488.46593976 0 238.87554515 0 3297.69013263 0 148.44347084 0 2219.31523575 0 18957
0.13350000 0.13349100 12086.18822645 0 261.68570080 0 3759.81594467 0 -224.14199913 0 2485.31541216 0 19468
0.13450000 0.13450700 11710.75120975 0 294.46795162 0 3953.17987227 0 -317.14168554 0 2436.85797269 0 19953
0.13550000 0.13551000 11612.26138085 0 -27.14603727 0 3895.07309146 0 -164.67321933 0 2402.80799806 0 19956
0.13650000 0.13649900 11719.73507928 0 39.00374684 0 4115.49953961 0 -109.78798758 0 1790.86229764 0 19723
0.13750000 0.13749600 11842.73645343 0 10.77311251 0 3979.48819143 0 -114.46115251 0 672.84635374 0 20946
0.13850000 0.13851100 11697.88542129 0 3.23595653 0 4099.33966565 0 148.11184405 0 1270.44115443 0 20955
0.13950000 0.13949800 11699.10545295 0 183.35412235 0 3886.17795151 0 -295.58927163 0 414.04103680 0 20506
0.14050000 0.14048300 11557.80360383 0 212.51509737 0 3652.58625258 0 83.42299241 0 474.03332109 0 21447
0.14150000 0.14148400 11084.80841878 0 224.53684574 0 4414.00801427 0 -5.05616614 0 219.33618349 0 21771
0.14250000 0.14249400 10931.13988506 0 196.94194773 0 3679.50458757 0 335.40888691 0 262.78927489 0 22470
0.14350000 0.14350900 10485.41795330 0 126.75685344 0 3576.12354082 0 418.72595839 0 19.99354618 0 22519
0.14450000 0.14449900 10424.36091410 0 178.40744851 0 3436.91792792 0 -103.12395281 0 441.34090896 0 22218
0.14550000 0.14550500 10257.49385602 0 80.58386781 0 2984.65218996 0 487.37603102 0 671.88807433 0 23559
0.14650000 0.14650700 9891.08507364 0 79.63601412 0 2841.91957644 0 350.71030222 0 162.42503371 0 23044
0.14750000 0.14750500 9840.57576273 0 112.04327157 0 2457.07722473 0 102.83935270 0 898.20394806 0 23649
0.14850000 0.14849900 9825.93538276 0 -104.13890824 0 2235.33092414 0 610.77779738 0 617.13083499 0 23640
0.14950000 0.14949500 9948.99221290 0 -175.52484642 0 1752.54221218 0 580.12061990 0 1063.77888170 0 24457
0.15050000 0.15050000 10141.42447996 0 -94.48790322 0 1183.74126789 0 214.77326506 0 476.72515459 0 24591
0.15150000 0.15149900 10228.73438233 0 42.71940873 0 1174.29156809 0 -400.48426677 0 299.41018898 0 25020
0.15250000 0.15250500 10084.89264911 0 182.14185452 0 1528.54439862 0 -607.06113729 0 43.73336595 0 25297
0.15350000 0.15350100 9861.64903694 0 166.53654042 0 1729.05105705 0 -366.81139283 0 -533.18822001 0 25452
0.15450000 0.15450400 9858.54350179 0 172.84632236 0 2157.44853917 0 -421.29135224 0 -723.45992190 0 26061
0.15550000 0.15549900 9698.49752983 0 170.43620526 0 2134.66722064 0 -135.69746730 0 -1300.29865662 0 26128
0.15650000 0.15649500 9401.89674104 0 234.01538265 0 2765.73414460 0 -52.94172130 0 -581.27964998 0 26331
0.15750000 0.15749700 9221.90879696 0 177.68984807 0 2630.51027141 0 -312.15730163 0 -1485.34418650 0 27345
0.15850000 0.15849900 9051.30400551 0 66.37604452 0 2675.54053102 0 376.61933829 0 -616.53745596 0 26980
0.15950000 0.15949700 8992.42084091 0 100.47093850 0 3095.70834501 0 -236.45433686 0 -1131.13572076 0 27777
0.16050000 0.16050000 8788.07662833 0 228.51858544 0 2836.47379874 0 57.81596963 0 -434.41445647 0 28224
0.16150000 0.16150500 8690.15245048 0 116.65388214 0 3210.00312956 0 121.62273838 0 -473.62960152 0 28075
0.16250000 0.16249700 8485.69732593 0 -9.42233782 0 2743.91776020 0 349.06547771 0 -183.42843337 0 28590
0.16350000 0.16349900 8636.02740937 0 0.52158239 0 3082.54309423 0 346.29822407 0 374.93569460 0 29163
0.16450000 0.16449100 8460.12102577 0 58.25906295 0 2632.78396678 0 258.81862639 0 277.38750832 0 28996
0.16550000 0.16550500 8522.97483888 0 64.68452607 0 2671.74734166 0 233.61277220 0 952.68058011 0 30777
0.16650000 0.16650700 8470.62438928 0 -12.24068860 0 2585.81274771 0 12.55667680 0 861.00850997 0 29211
0.16750000 0.16749900 8448.99655523 0 -62.46029744 0 2314.82153267 0 325.01865361 0 1004.03725846 0 30922
0.16850000 0.16850800 8600.36921118 0 69.84281995 0 2428.50630139 0 -174.28817796 0 825.84387005 0 30867
0.16950000 0.16949900 8347.37900879 0 51.34192706 0 2219.63688046 0 -85.63014060 0 626.56057064 0 30852
0.17050000 0.17049200 8429.78660212 0 151.91279724 0 2740.90095463 0 -73.36516228 0 655.62616136 0 31257
0.17150000 0.17149500 8218.57693863 0 85.25581270 0 2309.59757891 0 -78.97908252 0 291.63858727 0 32608
0.17250000 0.17250900 8274.70948639 0 49.29171930 0 2712.14148095 0 117.04761963 0 825.99471032 0 32361
0.17350000 0.17350400 8148.25874998 0 43.91248878 0 2482.44279215 0 118.00922641 0 353.19362122 0 32508
0.17450000 0.17449800 8213.63026479 0 40.07338187 0 2669.73983501 0 221.32927158 0 1095.32890054 0 32791
0.17550000 0.17549800 8127.31857014 0 88.42900415 0 2533.26265656 0 -81.76230749 0 562.45788876 0 33633
0.17650000 0.17650100 8015.41948413 0 73.08943512 0 2545.59606757 0 188.41614464 0 1124.14826669 0 33984
0.17750000 0.17750300 7834.95461859 0 171.41999443 0 2694.88357849 0 46.50228327 0 1017.36776807 0 34069
