### header ###
fiducial parameters:
Omega_m = 0.31
Omega_nu = 0
Omega_de = 0.69
Omega_k = 0
H_0 = 100
w_de = -1
zeff = 0
beta = 0
fgrowth = 0
b_1 = 2
gamma = 0.55
Lx = 3500 Ly = 3500 Lz = 3500
nx = 700 ny = 700 nz = 700
xoffset = 1379.75464 yoffset = 22.6059522 zoffset = 368.141391
bins = 400 dk = 0.001
kx_ny = 0.628318531 ky_ny = 0.628318531 kz_ny = 0.628318531
############################
A(data) = 3.34176034 (not used)
A(ran) = 3.34188644 (used)
Ngal = 187452
weighted Ngal = 0
Nran = 9399747
weighted Nran = 0
SN(data) = 6597.09576
SN(ran) = 132.924812
SN(data+ran) = 6730.02057
############################
13 columns: k_central k_mean P_0(k) sigma^{lin}_{P_0(k)} P^img_1(k) sigma^{lin}_{P_1(k)} P_2(k) sigma^{lin}_{P_2(k)} P^img_3(k) sigma^{lin}_{P_3(k)} P_4(k) sigma^{lin}_{P_4(k)} N_modes
### header ###
0.00050000 0 0 0 0 0 0 0 0 0 0 0 0
0.00150000 0.00179520 17097.41283159 0 -13824.84426005 0 12869.55946690 0 -43658.61128320 0 89005.63547782 0 3
0.00250000 0.00253879 32199.07568432 0 -19985.67142888 0 -41230.41553532 0 18715.61846634 0 -5388.85767884 0 6
0.00350000 0.00331552 48675.38148682 0 -25543.35930767 0 -27291.99741852 0 -22230.64060317 0 -2274.71576450 0 7
0.00450000 0.00420575 64035.35831647 0 -17205.55200184 0 -54280.76151248 0 -13498.76306977 0 -18099.16973996 0 24
0.00550000 0.00557378 78556.39700896 0 -3627.73088022 0 -45275.15323840 0 -32698.84501881 0 1212.35655602 0 45
0.00650000 0.00659388 68419.26482223 0 6487.00817988 0 -34794.41577021 0 -44767.39824211 0 -21308.74031283 0 40
0.00750000 0.00754703 69820.08299679 0 6531.71679478 0 -17798.04374281 0 -13326.73860511 0 4106.29384614 0 57
0.00850000 0.00846663 69166.92240851 0 -9933.17616606 0 -25084.84922583 0 16948.79079249 0 12254.10894824 0 75
0.00950000 0.00948925 70306.76471887 0 -9963.00039465 0 -27060.96778609 0 18386.65356485 0 6415.44777717 0 112
0.01050000 0.01054430 89434.53206381 0 -3234.91395790 0 -43733.69868654 0 -1983.64948299 0 7263.44742224 0 105
0.01150000 0.01145670 83694.17217129 0 7966.86222389 0 -22125.16332019 0 -17639.99418630 0 31634.53375966 0 144
0.01250000 0.01249090 75776.38849389 0 4210.63982703 0 -16957.77466202 0 -3535.13047690 0 24005.01029095 0 169
0.01350000 0.01339930 74913.60428329 0 -4469.45290782 0 2225.17138774 0 -4335.49343108 0 25758.52852846 0 180
0.01450000 0.01448870 72173.52407723 0 4891.38422212 0 6377.11660052 0 -2599.62128791 0 26309.31736891 0 267
0.01550000 0.01550050 78605.64192341 0 6701.29010492 0 17489.04299584 0 -8865.29354149 0 19202.63292434 0 238
0.01650000 0.01653350 65008.61084868 0 3507.93486198 0 20760.50244768 0 -1532.85887423 0 25672.34992817 0 315
0.01750000 0.01747870 66312.27013797 0 -899.68573197 0 48746.14332335 0 8868.72072134 0 32501.31080116 0 297
0.01850000 0.01844180 69631.53264867 0 1821.81782832 0 34684.72383239 0 3245.76114852 0 19481.13287971 0 388
0.01950000 0.01947590 66826.01438061 0 -11.10406274 0 38146.84095978 0 8073.06043467 0 22722.31336388 0 399
0.02050000 0.02045430 68285.50498703 0 2072.20159943 0 47114.40642832 0 77.43784980 0 32284.25607689 0 462
0.02150000 0.02154770 65865.84946081 0 1453.16862416 0 40162.66600512 0 5692.25737136 0 23755.68018355 0 571
0.02250000 0.02255340 69013.08750683 0 1190.00779417 0 46039.44762010 0 7261.56191876 0 24674.25311480 0 510
0.02350000 0.02348930 64233.89074184 0 1320.54009105 0 47974.41783969 0 1794.03437997 0 29569.35288790 0 555
0.02450000 0.02439640 66824.35070107 0 2730.43086471 0 43195.88654652 0 6644.35899098 0 20727.11794487 0 592
0.02550000 0.02547300 59022.80276769 0 2982.72232169 0 45226.01923592 0 6989.04011854 0 31354.14830081 0 837
0.02650000 0.02652900 55549.81626729 0 1241.98114307 0 32114.22802767 0 10159.70277253 0 13136.30275351 0 723
0.02750000 0.02749970 59216.45506641 0 -486.03843267 0 45766.04961533 0 5333.73443001 0 36983.81804779 0 826
0.02850000 0.02848090 56253.33088972 0 -1585.14277664 0 19255.64884575 0 8689.28733712 0 6696.69834938 0 831
0.02950000 0.02946900 54965.53201206 0 808.73237139 0 30356.05148744 0 491.67386983 0 21395.36256100 0 996
0.03050000 0.03053250 54266.23204448 0 2200.54893051 0 20070.85182144 0 -1534.79983370 0 12331.85823885 0 1041
0.03150000 0.03150510 56387.09072492 0 -1213.33258135 0 21818.71354851 0 4247.04113541 0 6627.16763571 0 1036
0.03250000 0.03246190 53131.26986077 0 1493.36312190 0 21582.91470139 0 -1282.65256227 0 918.99328762 0 1059
0.03350000 0.03345080 52941.16674507 0 2452.23037166 0 17207.54841729 0 -2165.10146507 0 -3362.69563794 0 1302
0.03450000 0.03451200 47631.69985399 0 1160.61612225 0 21533.89161088 0 121.05486909 0 -2199.46199321 0 1339
0.03550000 0.03553350 49172.26711010 0 74.14465160 0 17843.62856227 0 1123.88207796 0 -7224.57277694 0 1365
0.03650000 0.03647120 47103.20431941 0 -340.46092712 0 17700.99576952 0 4767.87265290 0 -5994.12647870 0 1308
0.03750000 0.03744890 46730.20736604 0 1494.86043348 0 14768.59420838 0 -1619.44784880 0 -7223.43038365 0 1579
0.03850000 0.03847530 45806.31066025 0 1242.22514940 0 16767.56063435 0 385.75737546 0 -2882.61317804 0 1662
0.03950000 0.03950240 44766.84368226 0 -948.68442185 0 15563.27846972 0 3834.49297373 0 -4552.47051697 0 1683
0.04050000 0.04050350 45407.24939405 0 -657.90318410 0 11720.95511094 0 2540.25011064 0 -7606.97506532 0 1822
0.04150000 0.04152450 44348.70555732 0 2542.67908277 0 12889.74544535 0 -5003.50513207 0 -3748.20346147 0 1887
0.04250000 0.04250150 42488.04635728 0 2081.60693444 0 14792.10754591 0 -1745.49930212 0 -9620.74823922 0 1920
0.04350000 0.04349210 40206.36532109 0 1291.20387512 0 21753.16457455 0 -3491.32024895 0 -4326.54283514 0 2005
0.04450000 0.04448520 39139.94673452 0 1769.52283471 0 20688.74240343 0 -1218.06852244 0 -12075.42976541 0 2151
0.04550000 0.04548030 37840.05845219 0 628.54256753 0 23854.94639624 0 485.47278162 0 -5699.89920605 0 2274
0.04650000 0.04648670 36411.17954935 0 -157.83438729 0 21148.58342890 0 4130.79430020 0 -7863.91373382 0 2311
0.04750000 0.04749250 38258.86204895 0 11.55647266 0 22795.07161586 0 1978.15934050 0 -4855.90348308 0 2568
0.04850000 0.04851840 37582.07721117 0 271.13650972 0 18222.28202608 0 1057.05983459 0 -4977.69591677 0 2493
0.04950000 0.04949480 36882.11177177 0 1034.25078806 0 21397.35897645 0 820.41916562 0 -3315.87969563 0 2644
0.05050000 0.05050630 35712.43414161 0 1020.12393051 0 19586.05560284 0 -2573.70116064 0 -3748.53619738 0 2829
0.05150000 0.05149060 35354.29939215 0 765.43455675 0 20796.65974973 0 1019.29874546 0 -8805.05725086 0 2784
0.05250000 0.05249300 33227.56237733 0 387.38223581 0 20829.93334058 0 -447.66510946 0 -5486.30493523 0 3055
0.05350000 0.05348950 33289.11852040 0 -60.97951173 0 17749.13156427 0 2344.36848134 0 -7996.33153418 0 3009
0.05450000 0.05448610 34099.88501731 0 -1016.43943488 0 16792.40491552 0 3476.36931547 0 -5096.63791284 0 3336
0.05550000 0.05550870 34312.61417478 0 -63.69374945 0 13096.04170858 0 1864.79621650 0 -6549.83981059 0 3349
0.05650000 0.05647670 33783.67499232 0 870.41939058 0 12609.91454634 0 1643.00555112 0 -5733.49444161 0 3324
0.05750000 0.05747970 32890.94454995 0 688.31413701 0 13133.75177821 0 -1320.31826711 0 -3830.92160831 0 3639
0.05850000 0.05849280 31706.51562785 0 1102.27198983 0 13544.01515332 0 160.75913593 0 -4010.27735416 0 3846
0.05950000 0.05951020 30831.30927667 0 1265.33920384 0 15357.86950223 0 -819.30339121 0 -1810.95954651 0 3787
0.06050000 0.06049470 29548.05778976 0 761.75782496 0 14677.86821734 0 -1171.40785688 0 -4933.49749693 0 3930
0.06150000 0.06148310 29781.63839749 0 12.93777033 0 17397.20788510 0 564.43877653 0 -2296.93143199 0 4083
0.06250000 0.06249100 29070.13811326 0 330.80714930 0 16664.30159077 0 415.13462881 0 -4063.35982275 0 4303
0.06350000 0.06350600 29059.93421207 0 100.39718204 0 16209.56251589 0 1039.52687045 0 -1193.44606522 0 4470
0.06450000 0.06451750 29170.40253367 0 -4.59890936 0 15010.49321382 0 1161.15959090 0 -4267.78167371 0 4479
0.06550000 0.06550280 28404.33356046 0 15.80506656 0 13553.66449467 0 1343.79833105 0 -3744.97592316 0 4636
0.06650000 0.06648880 28294.53071067 0 532.80557372 0 13904.70087808 0 248.29197136 0 -3266.59041639 0 4653
0.06750000 0.06749660 28002.94314290 0 -105.54693569 0 10678.85951928 0 2064.02738728 0 -3580.31601326 0 5220
0.06850000 0.06852730 27480.21503073 0 -131.44066591 0 9858.32167785 0 1433.95867104 0 -3925.40751511 0 5029
0.06950000 0.06949320 27688.06406154 0 579.35421819 0 7909.24345575 0 683.64363397 0 -4612.30752451 0 5040
0.07050000 0.07048030 26426.55132065 0 682.69200928 0 8157.27589310 0 1027.19456856 0 -2468.23496886 0 5475
0.07150000 0.07148790 25597.92799665 0 389.75131548 0 7593.94290890 0 207.64828014 0 -3794.97503900 0 5509
0.07250000 0.07249820 25023.18217079 0 88.78026236 0 6745.29997441 0 984.20508919 0 -1466.11205099 0 5916
0.07350000 0.07351270 24550.80809277 0 155.15142675 0 6895.97388495 0 927.02996892 0 -3223.07965076 0 5721
0.07450000 0.07449140 24755.21885252 0 455.12393941 0 6113.91140574 0 48.10740129 0 -1341.40263251 0 6028
0.07550000 0.07549160 23703.66246986 0 375.28839466 0 6781.67910040 0 313.12889048 0 -40.56627466 0 6183
0.07650000 0.07648840 23559.47690954 0 86.05748442 0 6953.16009642 0 289.96714389 0 1111.68176132 0 6330
0.07750000 0.07749960 24328.09685805 0 -377.01973050 0 5953.83216018 0 1402.03820622 0 1229.84737360 0 6583
0.07850000 0.07848650 24383.44193082 0 -199.97539010 0 6156.65687878 0 1135.01763970 0 1520.45891604 0 6549
0.07950000 0.07947320 24177.25657955 0 353.72599867 0 5448.88323672 0 26.51417178 0 2401.47705443 0 6828
0.08050000 0.08048110 23843.63337535 0 582.63166689 0 6537.96113866 0 -846.18068877 0 1743.96871694 0 7147
0.08150000 0.08149960 22846.53476970 0 733.28783151 0 6947.98050744 0 -732.98282360 0 2005.31059063 0 7386
0.08250000 0.08250610 22096.32620813 0 691.54167532 0 7203.94315061 0 -1196.90651867 0 -24.51309802 0 7227
0.08350000 0.08350160 21928.51639830 0 371.79799498 0 8572.45266846 0 -327.47424461 0 435.54686768 0 7798
0.08450000 0.08449610 21183.29887535 0 249.74269992 0 8417.87465660 0 503.72001884 0 224.29727588 0 7371
0.08550000 0.08548940 20733.99448698 0 424.73184153 0 8336.53181818 0 346.45793731 0 -673.29554722 0 8256
0.08650000 0.08650700 20523.37265693 0 -73.76755090 0 7459.24032197 0 831.00016751 0 883.80757442 0 8037
0.08750000 0.08749060 20386.06363871 0 261.01468338 0 7764.33696762 0 646.04558544 0 400.93124200 0 8155
0.08850000 0.08849210 20083.05213809 0 138.50354013 0 6691.81822273 0 449.78796456 0 1122.28494560 0 8718
0.08950000 0.08949900 19569.30789544 0 195.50674685 0 7202.80075733 0 -59.27324199 0 63.01873920 0 8571
0.09050000 0.09049190 20154.59035840 0 75.25931689 0 6438.69492597 0 164.14971483 0 608.97769612 0 8932
0.09150000 0.09150830 19433.88438071 0 -184.16488885 0 6377.28296847 0 510.06418349 0 -1302.64999037 0 9285
0.09250000 0.09250820 19879.97232196 0 155.46641674 0 5381.06056738 0 -280.09154213 0 -608.34217053 0 9204
0.09350000 0.09350330 19382.75396277 0 315.76415888 0 5712.83154170 0 -337.46741306 0 -1158.04296456 0 9349
0.09450000 0.09448040 18954.07920073 0 345.48413022 0 5301.94705955 0 308.31198365 0 -1903.37139948 0 9564
0.09550000 0.09549270 18939.10608485 0 0.60010252 0 5803.36898238 0 817.11731629 0 -616.81251764 0 10155
0.09650000 0.09649430 18453.31165851 0 64.37985089 0 4208.12212532 0 750.98050889 0 -1931.70940768 0 9913
0.09750000 0.09749140 18565.99821951 0 303.60487966 0 5028.70433154 0 -5.62163972 0 -313.47826319 0 10476
0.09850000 0.09850240 17717.52165297 0 541.59423818 0 4106.17184297 0 -289.91723351 0 -1089.48383975 0 10575
0.09950000 0.09950330 17244.03845525 0 470.83572901 0 5071.22798064 0 -203.07205228 0 82.54900609 0 10882
0.10050000 0.10051200 16888.01103321 0 94.94541509 0 5228.34587660 0 663.27686902 0 -609.05089802 0 10875
0.10150000 0.10150300 16412.53142004 0 279.51923637 0 4406.45490915 0 977.64353708 0 -69.37710059 0 11118
0.10250000 0.10250800 16653.76495366 0 -117.71641881 0 4289.80879085 0 505.23396722 0 892.78811659 0 11575
0.10350000 0.10349800 15981.86024254 0 179.97574376 0 3487.08341172 0 448.49029452 0 108.91788318 0 11364
0.10450000 0.10450100 15995.16967888 0 491.50750188 0 3423.47539722 0 148.77398850 0 1312.64315882 0 12093
0.10550000 0.10551000 15408.99992017 0 65.25372630 0 2630.49918021 0 528.40791413 0 1343.62087190 0 12067
0.10650000 0.10649700 15326.03776699 0 -14.73398967 0 3055.50275607 0 881.89323382 0 2807.72541625 0 12054
0.10750000 0.10749900 15322.71040791 0 19.68565455 0 2123.42074693 0 277.79122788 0 2037.91870966 0 12807
0.10850000 0.10850100 15194.82890710 0 -5.27055897 0 2193.35074369 0 288.17702471 0 2212.73815596 0 12736
0.10950000 0.10950300 15119.85241573 0 233.03381172 0 2484.09538049 0 -750.63890002 0 1794.43366306 0 12933
0.11050000 0.11050200 14845.89985110 0 345.90226834 0 3279.34529288 0 -1030.97888496 0 1074.28668169 0 13428
0.11150000 0.11150900 14760.94128248 0 252.40791455 0 4473.98920737 0 -1093.20049984 0 883.86524864 0 13453
0.11250000 0.11250000 14627.29235925 0 87.32110449 0 4362.93305233 0 -466.61774681 0 110.71232794 0 13668
0.11350000 0.11349100 14595.46062401 0 114.73510507 0 5816.37895641 0 -407.63808880 0 -677.33939763 0 13791
0.11450000 0.11448600 14527.02793884 0 199.00380124 0 5269.78258840 0 -460.79265017 0 -1105.14904631 0 14205
0.11550000 0.11549300 14311.30415820 0 253.01349390 0 6091.29645516 0 -124.70941849 0 -1381.45294469 0 14776
0.11650000 0.11649800 13977.12639415 0 196.63361246 0 6152.59750069 0 -276.67767171 0 -1753.40732554 0 14553
0.11750000 0.11747300 13962.15327827 0 158.67066354 0 6230.73498319 0 -72.66087127 0 -1678.79684367 0 14568
0.11850000 0.11849100 13594.59101141 0 82.34980819 0 5437.30402711 0 488.45631360 0 -2449.85685551 0 16015
0.11950000 0.11950300 13572.85226539 0 177.24176371 0 5993.82701638 0 -28.46799703 0 -2161.47464366 0 15270
0.12050000 0.12050700 13191.42600234 0 185.76091209 0 4921.25281550 0 172.24074301 0 -1988.26342092 0 15999
0.12150000 0.12150000 13260.19142342 0 -124.41661089 0 5381.85913356 0 951.94190639 0 -1802.06440656 0 15670
0.12250000 0.12250700 13228.69242408 0 -112.41039019 0 4045.84682277 0 865.35404094 0 -1449.81908268 0 16887
0.12350000 0.12352200 13316.86743982 0 82.66113809 0 4005.95178735 0 672.26184767 0 -835.51761202 0 16407
0.12450000 0.12449800 13064.09906137 0 128.70446763 0 3262.58649429 0 176.23024655 0 234.65978119 0 16306
0.12550000 0.12549900 12823.42008760 0 95.63861490 0 3331.39628016 0 481.20156168 0 -12.63431518 0 17523
0.12650000 0.12650100 12799.13036628 0 146.42709123 0 3572.54108420 0 81.46617253 0 601.42902747 0 17154
0.12750000 0.12750600 12584.29388139 0 191.03921271 0 3632.99919877 0 -47.26813042 0 970.04717629 0 18007
0.12850000 0.12850300 12535.82535073 0 -30.53317790 0 3351.41589065 0 247.31816427 0 1026.44258541 0 17496
0.12950000 0.12949900 12464.17621844 0 87.53749374 0 3729.01569075 0 152.38750047 0 895.71064698 0 18405
0.13050000 0.13049000 12385.09598420 0 165.58713396 0 3281.05333721 0 -227.14438614 0 552.91391378 0 18100
0.13150000 0.13148800 12151.84811238 0 98.71220740 0 3651.79877760 0 -161.90596569 0 830.49995453 0 19059
0.13250000 0.13249300 12391.97252631 0 28.95634243 0 3462.36113372 0 306.98769473 0 506.44734417 0 18957
0.13350000 0.13349100 12204.86403379 0 -142.22463671 0 3163.69738230 0 186.99425319 0 275.78815772 0 19468
0.13450000 0.13450700 12479.70389417 0 -137.66837300 0 2600.29785092 0 450.37247064 0 391.17653429 0 19953
0.13550000 0.13551000 12480.70210190 0 -93.16261609 0 2242.82857328 0 410.32881318 0 270.67511592 0 19956
0.13650000 0.13649900 12592.05771926 0 227.44273934 0 2875.18207608 0 -194.93998668 0 466.21846372 0 19723
0.13750000 0.13749600 12224.27362845 0 303.11575788 0 2526.85194473 0 -131.38077345 0 -2.03750834 0 20946
0.13850000 0.13851100 11789.38779611 0 366.11375654 0 3085.23825509 0 -212.40862188 0 813.71010059 0 20955
0.13950000 0.13949800 11481.71799277 0 225.36757639 0 3485.50846175 0 -395.50099198 0 526.11647284 0 20506
0.14050000 0.14048300 11338.86337608 0 219.64784612 0 3967.38769556 0 87.40051746 0 1177.43037683 0 21447
0.14150000 0.14148400 11027.22292423 0 137.78593969 0 4090.34470493 0 0.55453767 0 726.50556458 0 21771
0.14250000 0.14249400 10727.90479218 0 300.74889645 0 4171.18843948 0 -191.59044520 0 1082.52744102 0 22470
0.14350000 0.14350900 10677.18474854 0 141.26192081 0 4343.74528160 0 -341.36707791 0 898.47346414 0 22519
0.14450000 0.14449900 10443.24922251 0 249.54084014 0 4720.49105954 0 -245.25852900 0 512.67283302 0 22218
0.14550000 0.14550500 10189.57136591 0 192.94357123 0 4853.40796377 0 114.59202863 0 525.74602686 0 23559
0.14650000 0.14650700 9925.86706727 0 111.48538436 0 4358.89585664 0 380.93935950 0 369.30358478 0 23044
0.14750000 0.14750500 9862.05941122 0 -195.96481328 0 4094.41517421 0 787.80771923 0 616.52747388 0 23649
0.14850000 0.14849900 10096.41640274 0 -91.07480918 0 3310.24536758 0 884.85901989 0 284.13206518 0 23640
0.14950000 0.14949500 9936.23733641 0 -3.06727052 0 3020.03310823 0 140.36464298 0 894.69136598 0 24457
0.15050000 0.15050000 9961.62508623 0 42.89121137 0 2390.53004304 0 228.73375466 0 680.26858274 0 24591
0.15150000 0.15149900 9902.18736178 0 46.45270562 0 2452.17491568 0 -87.33729763 0 788.34453316 0 25020
0.15250000 0.15250500 9885.22892165 0 109.77423450 0 2164.04780136 0 -112.32055149 0 200.46894836 0 25297
0.15350000 0.15350100 9745.51311369 0 209.79997235 0 2664.80425237 0 -155.53629128 0 -74.34895145 0 25452
0.15450000 0.15450400 9516.14716080 0 178.68140108 0 2647.11379324 0 -246.49852482 0 318.56357699 0 26061
0.15550000 0.15549900 9385.24885442 0 4.71986995 0 2600.70822521 0 102.91011453 0 -323.69658293 0 26128
0.15650000 0.15649500 9353.08438327 0 178.31317334 0 2919.03666882 0 -4.12399540 0 21.52756963 0 26331
0.15750000 0.15749700 9144.82497817 0 175.64463135 0 2721.15862406 0 -60.47996422 0 -471.25608537 0 27345
0.15850000 0.15849900 8992.94212716 0 1.62711187 0 2812.73863727 0 256.36081714 0 725.44413703 0 26980
0.15950000 0.15949700 9113.82508270 0 -134.52623690 0 2489.94044129 0 383.71326786 0 -236.37448024 0 27777
0.16050000 0.16050000 9184.19872734 0 0.89600456 0 2533.35138614 0 148.55660104 0 269.30535310 0 28224
0.16150000 0.16150500 9026.65936589 0 197.39114121 0 1901.05333932 0 -107.79778320 0 19.02816840 0 28075
0.16250000 0.16249700 8813.37564857 0 190.93495546 0 2656.50803705 0 -205.79383202 0 223.12604549 0 28590
0.16350000 0.16349900 8708.91875571 0 96.21824085 0 2458.01997647 0 -205.80048673 0 59.53809978 0 29163
0.16450000 0.16449100 8596.89766654 0 65.79031841 0 2441.83792012 0 445.76186007 0 -299.01312413 0 28996
0.16550000 0.16550500 8475.94816382 0 71.52058531 0 2304.75072584 0 -108.34158459 0 -408.82484687 0 30777
0.16650000 0.16650700 8330.39838626 0 209.01360649 0 2294.33609191 0 -204.07802385 0 -388.07210826 0 29211
0.16750000 0.16749900 8123.00409453 0 217.43626145 0 2624.89812575 0 87.17824987 0 145.60745178 0 30922
0.16850000 0.16850800 7982.31226124 0 -54.09376393 0 2270.02418820 0 328.94271909 0 -216.06428039 0 30867
0.16950000 0.16949900 8009.15295786 0 -103.18927996 0 2068.53041324 0 506.13124506 0 298.60718632 0 30852
0.17050000 0.17049200 8149.40114327 0 -64.74841137 0 1662.67024331 0 302.93718961 0 108.57527611 0 31257
0.17150000 0.17149500 8171.82754350 0 34.45580153 0 1756.30212795 0 20.26905151 0 349.75313192 0 32608
0.17250000 0.17250900 8253.89130972 0 9.16780594 0 1569.24909142 0 -192.39455698 0 706.04896093 0 32361
0.17350000 0.17350400 8243.15503107 0 74.78827376 0 1856.12290048 0 -142.75812328 0 246.93995445 0 32508
0.17450000 0.17449800 8215.87068658 0 126.19785712 0 2107.75997684 0 -274.05904011 0 124.53528669 0 32791
0.17550000 0.17549800 8007.25636318 0 75.52672565 0 2383.44276819 0 -119.87365662 0 317.96132499 0 33633
0.17650000 0.17650100 8048.69307498 0 49.58009042 0 2306.41440538 0 185.61229005 0 531.79960215 0 33984
0.17750000 0.17750300 8034.52961647 0 -16.05861133 0 2492.53578137 0 107.20540237 0 198.65110118 0 34069
0.17850000 0.17849800 8044.53387612 0 49.92458300 0 2268.70433576 0 103.44293563 0 352.67788056 0 34536
