### header ###
fiducial parameters:
Omega_m = 0.31
Omega_nu = 0
Omega_de = 0.69
Omega_k = 0
H_0 = 100
w_de = -1
zeff = 0
beta = 0
fgrowth = 0
b_1 = 2
gamma = 0.55
Lx = 3500 Ly = 3500 Lz = 3500
nx = 700 ny = 700 nz = 700
xoffset = 1379.75464 yoffset = 22.6059522 zoffset = 368.141391
bins = 400 dk = 0.001
kx_ny = 0.628318531 ky_ny = 0.628318531 kz_ny = 0.628318531
############################
A(data) = 3.36776294 (not used)
A(ran) = 3.36737 (used)
Ngal = 188935
weighted Ngal = 0
Nran = 9399747
weighted Nran = 0
SN(data) = 6608.90544
SN(ran) = 133.938431
SN(data+ran) = 6742.84387
############################
13 columns: k_central k_mean P_0(k) sigma^{lin}_{P_0(k)} P^img_1(k) sigma^{lin}_{P_1(k)} P_2(k) sigma^{lin}_{P_2(k)} P^img_3(k) sigma^{lin}_{P_3(k)} P_4(k) sigma^{lin}_{P_4(k)} N_modes
### header ###
0.00050000 0 0 0 0 0 0 0 0 0 0 0 0
0.00150000 0.00179520 29144.22730888 0 -47022.34949365 0 -72360.74348172 0 93586.29981744 0 105691.67581461 0 3
0.00250000 0.00253879 51170.34624032 0 -48202.89649682 0 -33051.43416979 0 -76595.69521246 0 -88564.20583928 0 6
0.00350000 0.00331552 104717.75781058 0 -46199.49359207 0 -111313.47081175 0 6197.52793953 0 14738.86980055 0 7
0.00450000 0.00420575 141604.63879704 0 -27071.94807107 0 -83937.06938445 0 -71548.09148132 0 -18211.19082913 0 24
0.00550000 0.00557378 126427.44489309 0 30781.39889040 0 -50020.74367664 0 -108015.50339920 0 17024.21093174 0 45
0.00650000 0.00659388 103106.09598204 0 17669.49677018 0 39911.67221818 0 2402.81908926 0 -51119.99220617 0 40
0.00750000 0.00754703 82146.83928504 0 -4002.05877722 0 -2505.52357300 0 15900.22903300 0 -9729.26451016 0 57
0.00850000 0.00846663 85700.01513937 0 -5658.16303194 0 13002.76474225 0 9503.71392902 0 -38706.05910991 0 75
0.00950000 0.00948925 88602.69229269 0 8973.72108285 0 5028.04995092 0 -14274.03773645 0 -2703.40161775 0 112
0.01050000 0.01054430 74219.84991418 0 9196.74287109 0 13828.50435504 0 -16639.45730960 0 -27014.93931876 0 105
0.01150000 0.01145670 64404.25152697 0 3202.94912830 0 26347.36017444 0 769.20001811 0 -6501.00527043 0 144
0.01250000 0.01249090 71856.42675648 0 -1356.57538993 0 16411.97686019 0 3337.77371840 0 -34141.25518193 0 169
0.01350000 0.01339930 63718.03917178 0 -1671.80938960 0 17143.66312287 0 -3925.80679820 0 -7089.40435973 0 180
0.01450000 0.01448870 66384.47383011 0 3720.38673952 0 17337.42633355 0 -9212.60328272 0 -28223.54705020 0 267
0.01550000 0.01550050 66423.73666730 0 2052.10435056 0 14922.98366989 0 -17726.17278659 0 -48786.84801615 0 238
0.01650000 0.01653350 61387.11322114 0 5903.73322357 0 22275.22721490 0 -2975.55740847 0 -41456.67595307 0 315
0.01750000 0.01747870 56101.04875562 0 1735.35085691 0 23293.95365460 0 -6552.73461299 0 -44079.85494329 0 297
0.01850000 0.01844180 51171.89900789 0 2653.85724098 0 27290.66647489 0 -4333.16427972 0 -36304.59314668 0 388
0.01950000 0.01947590 51676.65938101 0 2381.49071753 0 23843.85519929 0 -2252.55555300 0 -59731.53025268 0 399
0.02050000 0.02045430 48597.18854833 0 963.54218928 0 26226.35521574 0 -2633.97072485 0 -41830.44929022 0 462
0.02150000 0.02154770 47575.91113334 0 964.94522569 0 30423.70778882 0 -5068.92101167 0 -46077.26860170 0 571
0.02250000 0.02255340 46783.77784730 0 -545.94753298 0 29446.01877784 0 4103.42122613 0 -26441.30261259 0 510
0.02350000 0.02348930 51517.16796889 0 -1027.03485533 0 29187.37206500 0 1340.18260084 0 -37454.75027021 0 555
0.02450000 0.02439640 52802.85951913 0 -472.19994623 0 27928.63212335 0 4838.86740457 0 -23855.50095608 0 592
0.02550000 0.02547300 52238.76124234 0 869.56536842 0 35512.57077261 0 2813.99194252 0 -15502.83144635 0 837
0.02650000 0.02652900 55171.16280348 0 1359.24836840 0 33880.50114167 0 1521.54585334 0 -3873.47853100 0 723
0.02750000 0.02749970 51164.35699397 0 1588.39249735 0 40116.74844975 0 4034.31197795 0 4994.76526887 0 826
0.02850000 0.02848090 52897.46742910 0 1237.57793788 0 45115.10726644 0 986.96457899 0 8468.38396750 0 831
0.02950000 0.02946900 50609.35349868 0 938.76889177 0 44920.23493606 0 7340.59778821 0 11328.21582701 0 996
0.03050000 0.03053250 51219.92389068 0 -849.03445375 0 42871.80177169 0 6768.33639047 0 21500.72893201 0 1041
0.03150000 0.03150510 50089.17636181 0 59.04553972 0 38451.62705191 0 7654.78921536 0 17457.32217256 0 1036
0.03250000 0.03246190 54259.46641434 0 -878.91635656 0 35069.36654255 0 6940.01702803 0 21922.52715195 0 1059
0.03350000 0.03345080 53420.19554127 0 -244.67735028 0 32794.56204847 0 6383.25003243 0 18900.39780750 0 1302
0.03450000 0.03451200 50567.20695028 0 2138.39386281 0 29777.53465462 0 1212.91111586 0 20933.08147220 0 1339
0.03550000 0.03553350 49557.68620405 0 2412.47952180 0 31542.58773696 0 1501.67042841 0 20852.22664644 0 1365
0.03650000 0.03647120 43371.79293012 0 2637.03189521 0 25730.24597624 0 3698.40398717 0 17559.02844858 0 1308
0.03750000 0.03744890 44414.03270734 0 1197.08397782 0 29624.14340082 0 5566.47210677 0 23399.65276151 0 1579
0.03850000 0.03847530 42902.19165133 0 -1121.94111849 0 24053.36790964 0 7662.33122929 0 23182.04347739 0 1662
0.03950000 0.03950240 45556.98055285 0 -2003.43617835 0 22012.92040708 0 6338.63014711 0 24068.11920158 0 1683
0.04050000 0.04050350 45418.11876706 0 -147.65710497 0 15974.54005256 0 989.67637665 0 22575.68774023 0 1822
0.04150000 0.04152450 44442.75890744 0 857.31735963 0 14046.77911098 0 -138.51795869 0 13511.29612232 0 1887
0.04250000 0.04250150 45100.79962237 0 1241.44876561 0 20959.47852093 0 -3452.88925153 0 16996.03929149 0 1920
0.04350000 0.04349210 42378.79806734 0 2439.40894799 0 17294.28157742 0 -2884.32122237 0 11654.85157713 0 2005
0.04450000 0.04448520 40386.93000741 0 1206.37840086 0 21506.49635442 0 -98.47518852 0 8329.10071622 0 2151
0.04550000 0.04548030 39603.00420711 0 252.54766363 0 19663.80489344 0 -465.10934402 0 1845.74154014 0 2274
0.04650000 0.04648670 37214.95859219 0 1083.41030030 0 20939.84710234 0 1821.27435967 0 2816.44309705 0 2311
0.04750000 0.04749250 37268.63998542 0 1269.70913544 0 19212.61500159 0 -372.62096179 0 1347.58042921 0 2568
0.04850000 0.04851840 36090.53304558 0 444.96329389 0 18977.81436220 0 2125.91626625 0 295.30866434 0 2493
0.04950000 0.04949480 34822.92014636 0 893.12417985 0 16658.53416835 0 -969.69780358 0 -2130.96276086 0 2644
0.05050000 0.05050630 35308.04910088 0 552.37820897 0 21210.25048393 0 111.76820989 0 -226.37022059 0 2829
0.05150000 0.05149060 32497.87253011 0 148.58432904 0 16127.82039438 0 963.39356724 0 -2506.64378389 0 2784
0.05250000 0.05249300 34951.24529506 0 -840.40106604 0 18426.80369781 0 4220.48880992 0 1038.27911079 0 3055
0.05350000 0.05348950 34993.39184346 0 -1226.75292966 0 12256.21627566 0 2113.18357215 0 -5017.87932331 0 3009
0.05450000 0.05448610 36814.45547039 0 41.37670842 0 14866.64038940 0 1375.40824235 0 5007.46468938 0 3336
0.05550000 0.05550870 35175.95294523 0 1068.02570101 0 11762.21436359 0 967.80120891 0 767.74928955 0 3349
0.05650000 0.05647670 35386.68568724 0 1145.63191518 0 16783.31013402 0 -1253.62689986 0 3977.19231366 0 3324
0.05750000 0.05747970 33075.94571505 0 1534.99947524 0 16246.05255385 0 -1315.83742354 0 891.68786985 0 3639
0.05850000 0.05849280 32299.22919277 0 1044.52234556 0 16873.03791733 0 -1180.93519506 0 4514.17261391 0 3846
0.05950000 0.05951020 30509.11000532 0 -333.91823004 0 18607.70112003 0 2381.34653197 0 4134.98677265 0 3787
0.06050000 0.06049470 31417.70085932 0 158.87585068 0 15491.51842546 0 2170.86888748 0 737.30062657 0 3930
0.06150000 0.06148310 31355.81198035 0 273.40687773 0 16451.68334527 0 146.83413816 0 862.06439192 0 4083
0.06250000 0.06249100 30409.84379264 0 468.90807898 0 14112.88264480 0 443.57689427 0 1022.87121999 0 4303
0.06350000 0.06350600 30137.88764347 0 -508.29291934 0 12172.14500280 0 2013.66226193 0 -471.70306061 0 4470
0.06450000 0.06451750 30621.24200647 0 -121.13361659 0 12099.71948672 0 1122.69531989 0 -1480.05368556 0 4479
0.06550000 0.06550280 29886.45020865 0 1193.50152120 0 11808.02100699 0 -1274.78890364 0 -2246.95449854 0 4636
0.06650000 0.06648880 28595.32397191 0 886.01361349 0 11952.87203913 0 -748.67797640 0 -2625.31959124 0 4653
0.06750000 0.06749660 28149.67967853 0 243.06025376 0 11540.94498447 0 1117.07208303 0 -2821.80014517 0 5220
0.06850000 0.06852730 27743.40913431 0 -406.52009614 0 9657.92593139 0 3089.95201379 0 -174.30925124 0 5029
0.06950000 0.06949320 27880.93997647 0 -168.99878614 0 10494.02472214 0 1052.19301737 0 -1475.06264693 0 5040
0.07050000 0.07048030 28570.70151468 0 336.49693333 0 8158.18537125 0 228.03833661 0 1413.62850704 0 5475
0.07150000 0.07148790 27194.06214947 0 489.21384235 0 9112.49413907 0 39.38007115 0 -854.52570535 0 5509
0.07250000 0.07249820 26773.26213725 0 582.89452825 0 9211.13924473 0 -1062.14625751 0 2073.89855256 0 5916
0.07350000 0.07351270 26540.23608937 0 -72.91552515 0 9230.21610348 0 964.94744393 0 -53.98185375 0 5721
0.07450000 0.07449140 26894.04527202 0 143.46906900 0 9614.96972561 0 1658.20049094 0 730.85775026 0 6028
0.07550000 0.07549160 25827.07212560 0 506.01146013 0 7791.28857620 0 -805.93517152 0 578.57783440 0 6183
0.07650000 0.07648840 26414.79465189 0 239.27039176 0 9704.49786738 0 247.05641202 0 -755.57448266 0 6330
0.07750000 0.07749960 25487.57058702 0 268.48682277 0 9558.77063067 0 -143.67647439 0 829.86442894 0 6583
0.07850000 0.07848650 25249.66441248 0 349.90840868 0 8879.27954084 0 -131.71683672 0 531.36260899 0 6549
0.07950000 0.07947320 24235.48536353 0 634.39095569 0 9853.84083428 0 738.84452118 0 1760.68315074 0 6828
0.08050000 0.08048110 24381.66733931 0 315.87617997 0 8978.25738240 0 689.99667159 0 174.30259652 0 7147
0.08150000 0.08149960 23695.89863200 0 265.20161023 0 10792.24482568 0 805.53810667 0 2483.72937099 0 7386
0.08250000 0.08250610 22818.80677733 0 718.43006408 0 9870.52199450 0 -381.86880181 0 2233.61178861 0 7227
0.08350000 0.08350160 22575.24409235 0 396.60123871 0 9953.38432690 0 -143.68534734 0 2282.46851117 0 7798
0.08450000 0.08449610 22087.12051466 0 84.05563428 0 10732.45218293 0 1326.21878389 0 2548.22468125 0 7371
0.08550000 0.08548940 21782.00168661 0 161.18281965 0 10266.18935443 0 122.45790551 0 2443.54596445 0 8256
0.08650000 0.08650700 21603.10067984 0 297.10654737 0 8999.89630765 0 283.60966980 0 2804.12077724 0 8037
0.08750000 0.08749060 21491.85597445 0 315.73532176 0 9355.72408814 0 88.42634226 0 1371.60396180 0 8155
0.08850000 0.08849210 20899.47514544 0 188.01131595 0 8724.34661067 0 662.43615629 0 2772.48868354 0 8718
0.08950000 0.08949900 20382.18171978 0 191.38082158 0 8687.39074244 0 701.77108627 0 1168.55741927 0 8571
0.09050000 0.09049190 20359.99932588 0 211.56680003 0 7685.20127739 0 285.93993028 0 1548.34218517 0 8932
0.09150000 0.09150830 19425.78780693 0 455.01746392 0 7836.36320060 0 -65.18939736 0 -385.47454994 0 9285
0.09250000 0.09250820 19121.00171480 0 757.33021914 0 8345.32713736 0 -695.59107133 0 569.18248147 0 9204
0.09350000 0.09350330 18159.06220348 0 0.10157263 0 7013.57384619 0 1124.17044908 0 111.93568696 0 9349
0.09450000 0.09448040 17979.05207701 0 -32.59747148 0 7216.42074718 0 1127.17616345 0 296.63738974 0 9564
0.09550000 0.09549270 18203.87063915 0 31.99499766 0 5422.06472250 0 963.96365476 0 287.42282331 0 10155
0.09650000 0.09649430 17829.21000624 0 157.74233036 0 5104.72339542 0 665.61489333 0 -93.95330752 0 9913
0.09750000 0.09749140 17699.88664982 0 185.77200328 0 4188.43525074 0 266.67563030 0 1396.03786868 0 10476
0.09850000 0.09850240 17248.25311009 0 232.74433148 0 4155.28366306 0 440.92166172 0 843.24817630 0 10575
0.09950000 0.09950330 16880.57993126 0 318.93956856 0 4379.40347979 0 252.39904159 0 2211.68449225 0 10882
0.10050000 0.10051200 16583.00311714 0 248.54706889 0 3698.86981744 0 287.13999779 0 1460.95464441 0 10875
0.10150000 0.10150300 15999.60615766 0 435.29177015 0 4210.15181436 0 187.98469708 0 1870.23090300 0 11118
0.10250000 0.10250800 15774.56577158 0 435.89956774 0 4423.23589013 0 -346.57106752 0 3171.23939622 0 11575
0.10350000 0.10349800 15205.92010404 0 -36.32378092 0 4961.44731324 0 635.91488615 0 2955.16069728 0 11364
0.10450000 0.10450100 15306.62817233 0 -115.09002337 0 4301.12181173 0 456.94844131 0 3321.91330677 0 12093
0.10550000 0.10551000 15678.95965389 0 -29.03253896 0 4134.69840152 0 282.53604194 0 2581.84209920 0 12067
0.10650000 0.10649700 15716.78063548 0 142.59175533 0 4178.64172383 0 -386.50159477 0 3098.84715374 0 12054
0.10750000 0.10749900 15178.74667152 0 307.66425775 0 4730.42877201 0 -525.73937214 0 2005.76532971 0 12807
0.10850000 0.10850100 15395.91230777 0 31.27551171 0 5503.09700741 0 -768.33490475 0 2076.44952786 0 12736
0.10950000 0.10950300 15229.54435354 0 -105.28263247 0 5233.30364164 0 621.62166064 0 1312.63206763 0 12933
0.11050000 0.11050200 15581.80076862 0 -91.80427720 0 5100.58637896 0 313.62466699 0 1348.35681300 0 13428
0.11150000 0.11150900 15668.20119285 0 -25.73080054 0 5246.19161249 0 96.69582779 0 1251.69703159 0 13453
0.11250000 0.11250000 15420.86750090 0 207.79468394 0 5714.56176842 0 57.48767020 0 1601.99030481 0 13668
0.11350000 0.11349100 15602.65221888 0 69.56864556 0 5463.77871422 0 84.78809693 0 2437.24616458 0 13791
0.11450000 0.11448600 15355.20761497 0 177.74419493 0 5356.83739325 0 163.44764207 0 1822.23929381 0 14205
0.11550000 0.11549300 15336.68531606 0 346.95593205 0 5978.80953571 0 -460.54420736 0 2146.97844925 0 14776
0.11650000 0.11649800 14547.10300532 0 419.65207333 0 5981.92616205 0 -178.54054287 0 1685.37392346 0 14553
0.11750000 0.11747300 14484.99230241 0 210.90021909 0 6508.95765864 0 -241.16144084 0 2481.35585485 0 14568
0.11850000 0.11849100 14307.64406321 0 -42.64565227 0 6030.91597897 0 487.16751651 0 1888.53137796 0 16015
0.11950000 0.11950300 14092.80757832 0 34.21035334 0 5991.91933050 0 783.27363792 0 1213.53222289 0 15270
0.12050000 0.12050700 14313.30057365 0 -38.18044729 0 5212.28582342 0 163.80366949 0 1098.90248419 0 15999
0.12150000 0.12150000 14158.35655228 0 -54.42217427 0 4511.48854425 0 740.51929192 0 842.79565546 0 15670
0.12250000 0.12250700 13892.72238537 0 206.75543879 0 3912.88555376 0 171.35122901 0 1246.65053698 0 16887
0.12350000 0.12352200 13809.98205614 0 213.59759819 0 3669.27850399 0 -91.42917292 0 246.20460810 0 16407
0.12450000 0.12449800 13367.33238594 0 281.98037297 0 3706.20109863 0 97.54031153 0 347.31528684 0 16306
0.12550000 0.12549900 13009.75219633 0 158.74608368 0 3296.25936822 0 374.63179580 0 396.98943061 0 17523
0.12650000 0.12650100 12688.55113271 0 44.71238591 0 3411.69654606 0 565.26617983 0 718.45113736 0 17154
0.12750000 0.12750600 12702.30421692 0 160.85008374 0 2623.36754057 0 231.39675105 0 387.59518679 0 18007
0.12850000 0.12850300 12645.18455264 0 90.31140209 0 2539.39608848 0 160.69147963 0 577.75486759 0 17496
0.12950000 0.12949900 12426.90979670 0 134.69482310 0 2918.82593608 0 -163.61401002 0 956.77545002 0 18405
0.13050000 0.13049000 12164.04842902 0 192.84596870 0 2605.79908461 0 -119.92689436 0 485.48720018 0 18100
0.13150000 0.13148800 11976.05264075 0 169.83395327 0 3141.42625883 0 -5.37293072 0 1301.06394921 0 19059
0.13250000 0.13249300 12025.40846717 0 -60.44103412 0 3072.21718987 0 251.97646699 0 470.07930938 0 18957
0.13350000 0.13349100 11898.08152621 0 228.86241255 0 3137.77725503 0 -51.88761395 0 1015.17725667 0 19468
0.13450000 0.13450700 11843.06918934 0 156.76519591 0 3187.01107828 0 -326.47270953 0 505.28276849 0 19953
0.13550000 0.13551000 11593.51725801 0 263.15639351 0 3549.00556428 0 -365.20649663 0 391.39392175 0 19956
0.13650000 0.13649900 11297.71503540 0 184.22921779 0 3983.24810720 0 -301.79146896 0 361.10719024 0 19723
0.13750000 0.13749600 11027.42256577 0 105.15364185 0 3590.14281376 0 -5.20361251 0 -550.53817940 0 20946
0.13850000 0.13851100 11166.06252762 0 -73.53851769 0 3708.07551091 0 435.38271796 0 -212.07588597 0 20955
0.13950000 0.13949800 10868.18625118 0 -53.83988643 0 2988.40101453 0 277.90657633 0 -744.98460782 0 20506
0.14050000 0.14048300 11204.77080497 0 37.94065561 0 2769.12805087 0 157.92644423 0 -811.99983802 0 21447
0.14150000 0.14148400 10964.83494139 0 123.33743742 0 3022.25134762 0 -75.13420819 0 -897.90670398 0 21771
0.14250000 0.14249400 10879.47708968 0 130.56778871 0 2612.01015490 0 -208.71414417 0 -1298.67934186 0 22470
0.14350000 0.14350900 10871.63561344 0 87.54913949 0 2907.49073279 0 145.42333791 0 -1005.49907821 0 22519
0.14450000 0.14449900 10605.30270112 0 108.98942140 0 2633.41616501 0 17.84617954 0 -1217.14795310 0 22218
0.14550000 0.14550500 10584.48452445 0 -5.63663502 0 2712.88459114 0 111.40330951 0 -1150.61186261 0 23559
0.14650000 0.14650700 10565.81803998 0 -13.05644614 0 2657.65043034 0 392.75924809 0 -670.59262252 0 23044
0.14750000 0.14750500 10637.42280748 0 1.43606600 0 2207.45874621 0 401.04880869 0 -530.41209342 0 23649
0.14850000 0.14849900 10728.13770732 0 44.14085653 0 2155.44103252 0 266.42386013 0 -436.47630998 0 23640
0.14950000 0.14949500 10502.05474873 0 74.62068577 0 1860.95866235 0 141.71222341 0 -521.87519912 0 24457
0.15050000 0.15050000 10303.18958745 0 175.38066086 0 2277.41092536 0 -171.04954846 0 -5.84299783 0 24591
0.15150000 0.15149900 10183.11628928 0 239.92144502 0 2245.77883167 0 -313.25754837 0 -229.15078367 0 25020
0.15250000 0.15250500 9939.80870183 0 171.59856270 0 2318.93636674 0 -158.77713903 0 -276.97380667 0 25297
0.15350000 0.15350100 9680.76270591 0 128.62239277 0 2644.66263871 0 -82.99420673 0 -332.51519363 0 25452
0.15450000 0.15450400 9625.28453877 0 26.07507129 0 2393.43593664 0 240.02681140 0 -122.76956814 0 26061
0.15550000 0.15549900 9684.83317519 0 23.95354714 0 2322.16390505 0 435.60565102 0 129.74925838 0 26128
0.15650000 0.15649500 9467.42353261 0 84.42375111 0 2105.39755189 0 256.47727471 0 -7.08587736 0 26331
0.15750000 0.15749700 9547.76816330 0 107.15238645 0 2013.11879328 0 -41.10430863 0 190.39592329 0 27345
0.15850000 0.15849900 9407.49779550 0 96.79509401 0 2328.50806970 0 -76.60490091 0 154.96176728 0 26980
0.15950000 0.15949700 9152.67754561 0 101.32972988 0 1980.21121194 0 -59.05995828 0 250.50688339 0 27777
0.16050000 0.16050000 9095.99043801 0 204.84442556 0 2495.68568130 0 -355.16230868 0 -13.46637677 0 28224
0.16150000 0.16150500 8920.22823997 0 132.11722893 0 2528.40471230 0 -82.15615589 0 -741.33116754 0 28075
0.16250000 0.16249700 8793.61113561 0 177.00663034 0 2771.26865188 0 -116.75370291 0 -421.90913191 0 28590
0.16350000 0.16349900 8551.92286291 0 127.71180550 0 2495.43058377 0 28.25837341 0 -277.04589945 0 29163
0.16450000 0.16449100 8464.63514293 0 28.06638479 0 2564.61747034 0 342.82113383 0 -145.33128097 0 28996
0.16550000 0.16550500 8290.64753640 0 117.22396967 0 2532.68591432 0 135.39467763 0 -96.02081755 0 30777
0.16650000 0.16650700 8271.22685055 0 80.55236881 0 2248.99527878 0 264.01596128 0 -44.01696786 0 29211
0.16750000 0.16749900 8183.61748585 0 -4.03489981 0 2359.47469158 0 105.33198830 0 391.23088115 0 30922
0.16850000 0.16850800 8087.61208507 0 128.12661627 0 2104.87626564 0 92.72151919 0 101.25497521 0 30867
0.16950000 0.16949900 8039.34319595 0 123.59364407 0 2662.79674572 0 -258.05444292 0 226.24267183 0 30852
0.17050000 0.17049200 7703.55720834 0 123.14999619 0 2317.08413685 0 -105.08898017 0 310.71988250 0 31257
0.17150000 0.17149500 7821.03516642 0 118.19334028 0 2638.66230116 0 33.02980634 0 279.08002497 0 32608
0.17250000 0.17250900 7703.62375552 0 -58.04566832 0 2663.99459499 0 311.93769593 0 634.48966734 0 32361
0.17350000 0.17350400 7798.33148626 0 -47.31792989 0 2306.79150608 0 235.64357036 0 477.88751203 0 32508
0.17450000 0.17449800 7845.60216766 0 -28.56449044 0 2065.40269570 0 408.63518740 0 703.01440944 0 32791
0.17550000 0.17549800 7882.49148871 0 5.83421360 0 2088.45020296 0 68.92557796 0 673.36653088 0 33633
0.17650000 0.17650100 7799.21878202 0 115.82758797 0 1692.18391839 0 -39.13185016 0 574.67151484 0 33984
0.17750000 0.17750300 7685.83347562 0 130.50789625 0 1881.63265346 0 -175.60803040 0 554.70846945 0 34069
0.17850000 0.17849800 7490.16257906 0 106.21018927 0 1920.64039313 0 -182.71305117 0 586.01226372 0 34536
