### header ###
fiducial parameters:
Omega_m = 0.31
Omega_nu = 0
Omega_de = 0.69
Omega_k = 0
H_0 = 100
w_de = -1
zeff = 0
beta = 0
fgrowth = 0
b_1 = 2
gamma = 0.55
Lx = 3500 Ly = 3500 Lz = 3500
nx = 700 ny = 700 nz = 700
xoffset = 1379.75464 yoffset = 22.6059522 zoffset = 368.141391
bins = 400 dk = 0.001
kx_ny = 0.628318531 ky_ny = 0.628318531 kz_ny = 0.628318531
############################
A(data) = 3.35187366 (not used)
A(ran) = 3.35577234 (used)
Ngal = 188795
weighted Ngal = 0
Nran = 9399747
weighted Nran = 0
SN(data) = 6609.8154
SN(ran) = 133.477129
SN(data+ran) = 6743.29253
############################
13 columns: k_central k_mean P_0(k) sigma^{lin}_{P_0(k)} P^img_1(k) sigma^{lin}_{P_1(k)} P_2(k) sigma^{lin}_{P_2(k)} P^img_3(k) sigma^{lin}_{P_3(k)} P_4(k) sigma^{lin}_{P_4(k)} N_modes
### header ###
0.00050000 0 0 0 0 0 0 0 0 0 0 0 0
0.00150000 0.00179520 51128.19969192 0 -60660.63982104 0 -74595.95240269 0 88865.22092446 0 116011.70183902 0 3
0.00250000 0.00253879 69445.08962797 0 -50977.69214933 0 -18093.73505345 0 -102423.43280987 0 -59205.36386946 0 6
0.00350000 0.00331552 91973.86160511 0 -12793.36294387 0 -68622.12281441 0 -1876.25342294 0 19010.86612910 0 7
0.00450000 0.00420575 114879.29063061 0 -2189.70173990 0 -31898.61515900 0 -80258.45209264 0 -23113.49988025 0 24
0.00550000 0.00557378 107847.47176543 0 8473.06445261 0 2298.40656119 0 -58651.58040583 0 2583.22849882 0 45
0.00650000 0.00659388 104793.95433362 0 12804.56505278 0 24703.97752262 0 -7144.91580045 0 -50575.96899586 0 40
0.00750000 0.00754703 78213.12446342 0 11613.14867661 0 54352.74338067 0 -27617.96769683 0 12856.36094253 0 57
0.00850000 0.00846663 81798.90843678 0 9330.46943269 0 46115.20049526 0 30378.45570527 0 -29894.32495848 0 75
0.00950000 0.00948925 101552.88476141 0 -22352.20012172 0 22756.58516245 0 46202.48821524 0 2449.20247489 0 112
0.01050000 0.01054430 96321.27807290 0 -2662.95202248 0 22892.34141310 0 9433.39574037 0 -3682.79867307 0 105
0.01150000 0.01145670 110395.78517626 0 5995.90107021 0 3791.74750069 0 -4579.93232062 0 1658.33358530 0 144
0.01250000 0.01249090 95399.71051847 0 5719.76353979 0 12126.11653546 0 -6851.79764751 0 15262.81794439 0 169
0.01350000 0.01339930 89938.29422920 0 5947.45472194 0 -6581.05043880 0 3418.81709450 0 933.19223795 0 180
0.01450000 0.01448870 89030.14702308 0 885.16180956 0 17905.51744124 0 -1703.72985441 0 8768.32320657 0 267
0.01550000 0.01550050 83994.85452055 0 297.99162489 0 -16935.37044418 0 20446.73248602 0 -13537.02769924 0 238
0.01650000 0.01653350 82659.91805587 0 -159.30286177 0 8719.54412239 0 -2582.90685411 0 -573.03667241 0 315
0.01750000 0.01747870 78674.29643252 0 4547.47947835 0 -7343.48149942 0 -9864.29983301 0 -8554.29637906 0 297
0.01850000 0.01844180 70824.83452833 0 9140.35522580 0 239.49776130 0 -5955.45147494 0 -1527.91220039 0 388
0.01950000 0.01947590 60095.09968865 0 6288.02101543 0 10197.85649003 0 -14968.56848935 0 -9016.25582315 0 399
0.02050000 0.02045430 53984.73746593 0 3375.67233837 0 16804.49432019 0 3417.31978291 0 -10477.95357776 0 462
0.02150000 0.02154770 54240.27864362 0 157.19442523 0 25455.62793980 0 -206.84195013 0 -6205.72433408 0 571
0.02250000 0.02255340 50609.57532262 0 101.42733241 0 13896.16065643 0 -965.80922993 0 -12276.40225411 0 510
0.02350000 0.02348930 54684.48108139 0 412.15996979 0 20919.55021192 0 -2166.94260376 0 -17923.70700424 0 555
0.02450000 0.02439640 52161.12286370 0 -624.81148888 0 20514.38878740 0 -5491.40688582 0 -15541.31789976 0 592
0.02550000 0.02547300 54261.90647767 0 2229.78532567 0 27109.32540478 0 -7203.96533301 0 -13553.88631861 0 837
0.02650000 0.02652900 57057.88631634 0 -954.06697973 0 26361.22417063 0 3406.00676203 0 -11275.31081756 0 723
0.02750000 0.02749970 56900.94587953 0 -2901.29075370 0 27382.39067365 0 9680.71834112 0 -5527.35345513 0 826
0.02850000 0.02848090 60058.94238659 0 141.23752018 0 23760.00575036 0 7990.54192938 0 550.15775134 0 831
0.02950000 0.02946900 59950.91412832 0 -755.73752326 0 23382.68323018 0 10642.89076758 0 3720.63074586 0 996
0.03050000 0.03053250 56954.73818473 0 4125.72562319 0 22578.79327537 0 -4402.92790852 0 10699.48914560 0 1041
0.03150000 0.03150510 56165.93225777 0 2523.22512333 0 28026.90012831 0 -2167.59698438 0 10734.82569908 0 1036
0.03250000 0.03246190 50638.85608256 0 3139.88458245 0 30895.19457109 0 161.69745119 0 15724.87720925 0 1059
0.03350000 0.03345080 48978.06025153 0 2155.44103252 0 31027.73437462 0 -1868.77795620 0 7775.69435329 0 1302
0.03450000 0.03451200 47468.32652294 0 -226.59759013 0 31153.61945998 0 3799.13423786 0 6070.38954891 0 1339
0.03550000 0.03553350 48090.87540765 0 -271.93507590 0 30977.04760457 0 2567.58991112 0 4619.09533704 0 1365
0.03650000 0.03647120 48402.09439401 0 405.95444510 0 27124.29852066 0 3729.15987631 0 4695.76878154 0 1308
0.03750000 0.03744890 47147.23637129 0 -952.36337187 0 24344.51182953 0 2603.33683888 0 1785.09487523 0 1579
0.03850000 0.03847530 48889.55249989 0 1032.87991612 0 23179.93614997 0 1394.10800041 0 553.86221112 0 1662
0.03950000 0.03950240 47181.61908183 0 1642.32898811 0 23605.28355293 0 -511.40843656 0 -1083.50013899 0 1683
0.04050000 0.04050350 45823.94566340 0 900.90576363 0 22668.07741081 0 4075.50468341 0 2061.68714472 0 1822
0.04150000 0.04152450 44226.25874301 0 304.67296193 0 21467.56625313 0 3620.14450151 0 7132.08328559 0 1887
0.04250000 0.04250150 42990.14484313 0 201.62908756 0 19859.89725549 0 2820.14755683 0 2288.94577019 0 1920
0.04350000 0.04349210 43135.21769921 0 1033.52764202 0 17481.27915797 0 4768.39393916 0 7229.00925572 0 2005
0.04450000 0.04448520 41778.87522441 0 1637.52649983 0 18303.02593987 0 -1057.51790102 0 4939.37583132 0 2151
0.04550000 0.04548030 38792.68135807 0 1791.83832297 0 19353.69502677 0 -1361.68843173 0 12725.81755445 0 2274
0.04650000 0.04648670 36670.04808612 0 752.76064600 0 18252.11734587 0 1503.68902626 0 4829.72825829 0 2311
0.04750000 0.04749250 37728.81374680 0 -577.95783649 0 19049.13075857 0 1723.46109378 0 9550.38568578 0 2568
0.04850000 0.04851840 38517.95240967 0 -1206.81095754 0 16596.97802529 0 2826.94646056 0 4711.22991009 0 2493
0.04950000 0.04949480 40251.95014055 0 -656.71864426 0 16165.30864006 0 1383.72664006 0 7211.66262369 0 2644
0.05050000 0.05050630 40975.65074142 0 141.50481802 0 14449.61138414 0 -1765.69637176 0 3582.31242872 0 2829
0.05150000 0.05149060 40944.70630194 0 497.41689161 0 16814.92004532 0 -919.55006570 0 2054.23386037 0 2784
0.05250000 0.05249300 39695.94843754 0 1289.98384346 0 18479.15414740 0 -1733.65390378 0 3693.50167812 0 3055
0.05350000 0.05348950 38528.93269464 0 1315.43814045 0 20441.85235936 0 -557.12524127 0 1747.55117356 0 3009
0.05450000 0.05448610 38296.01755873 0 133.57128485 0 18933.00592652 0 2751.63723328 0 2809.34473100 0 3336
0.05550000 0.05550870 36005.68538892 0 1146.51921093 0 21619.95929920 0 177.48466092 0 1881.08918481 0 3349
0.05650000 0.05647670 35403.76613054 0 1424.27605611 0 18723.49321617 0 1471.91274700 0 4624.30819961 0 3324
0.05750000 0.05747970 34263.03652442 0 538.47872096 0 21860.52736101 0 1613.64715280 0 4305.60265530 0 3639
0.05850000 0.05849280 32805.65324542 0 435.38826356 0 15801.51738016 0 2131.07367283 0 6751.24485597 0 3846
0.05950000 0.05951020 33322.28119927 0 -772.97657067 0 16570.24824064 0 3672.47276871 0 7117.59818237 0 3787
0.06050000 0.06049470 33594.68099632 0 -349.61338284 0 13305.88715484 0 3824.58853485 0 8387.35168259 0 3930
0.06150000 0.06148310 34503.60458623 0 -139.47623810 0 11571.44577608 0 2515.82729496 0 9687.89434555 0 4083
0.06250000 0.06249100 33456.15194644 0 889.53174116 0 11099.73716987 0 -1882.55322281 0 6427.20444593 0 4303
0.06350000 0.06350600 31733.02358856 0 1553.08921746 0 11912.50008224 0 -1327.90464582 0 8092.04856385 0 4470
0.06450000 0.06451750 30163.95195629 0 1277.96098597 0 13877.19470965 0 -926.64177703 0 8426.49251662 0 4479
0.06550000 0.06550280 29389.45367340 0 235.30196150 0 15693.71094583 0 1342.36756664 0 9259.87396412 0 4636
0.06650000 0.06648880 29793.17324232 0 -18.56145083 0 13790.68337345 0 1185.00566434 0 5662.44423396 0 4653
0.06750000 0.06749660 29589.09521847 0 -22.65199518 0 15524.23745646 0 796.79491612 0 6503.72261368 0 5220
0.06850000 0.06852730 28728.52924726 0 862.09101079 0 13599.80387397 0 -2239.53448779 0 5041.29284007 0 5029
0.06950000 0.06949320 28965.43721407 0 680.86972562 0 18196.43953719 0 -857.67449617 0 6364.56136557 0 5040
0.07050000 0.07048030 27756.16401080 0 100.19332584 0 15774.89850749 0 1353.49203718 0 4571.43646376 0 5475
0.07150000 0.07148790 27699.04434652 0 60.15099932 0 16040.42176243 0 1916.69192702 0 5211.33198049 0 5509
0.07250000 0.07249820 28016.58531515 0 -179.74837422 0 13657.58901007 0 3231.48677805 0 6524.77370549 0 5916
0.07350000 0.07351270 27893.58394099 0 -364.32807383 0 12166.26666841 0 1961.79982500 0 5562.66782621 0 5721
0.07450000 0.07449140 27851.65921653 0 379.97220713 0 11291.50396511 0 1057.88612876 0 6144.48983572 0 6028
0.07550000 0.07549160 26743.31590549 0 531.79405656 0 9511.84377639 0 334.90645569 0 5718.90951762 0 6183
0.07650000 0.07648840 26103.02110567 0 681.80804088 0 9535.32384033 0 -98.72085853 0 4947.96041775 0 6330
0.07750000 0.07749960 25396.73368401 0 453.00995727 0 8340.89065858 0 630.74195189 0 4663.20502730 0 6583
0.07850000 0.07848650 24944.87832034 0 -134.72920581 0 7622.76892977 0 2746.90129218 0 4020.83617365 0 6549
0.07950000 0.07947320 24372.68346978 0 237.40707068 0 5672.59267917 0 442.14723898 0 3682.08883646 0 6828
0.08050000 0.08048110 24052.92426176 0 973.46548319 0 6229.42622195 0 -1115.15330596 0 2215.65514076 0 7147
0.08150000 0.08149960 22706.78568816 0 770.76276776 0 7307.22437659 0 -1368.44297067 0 2838.99150044 0 7386
0.08250000 0.08250610 22251.82478934 0 402.51950141 0 7790.66746917 0 -547.16978288 0 2439.10948567 0 7227
0.08350000 0.08350160 21550.63931827 0 -5.62283757 0 8576.84478245 0 917.54034082 0 3067.49233997 0 7798
0.08450000 0.08449610 22012.14402329 0 -0.81465396 0 7353.98486293 0 1265.39465982 0 2389.39874095 0 7371
0.08550000 0.08548940 21908.77406773 0 472.71901425 0 8243.17721346 0 -28.73950953 0 2333.21073721 0 8256
0.08650000 0.08650700 21268.70109185 0 601.79836433 0 8633.73153160 0 -574.14468298 0 4372.22747537 0 8037
0.08750000 0.08749060 20601.78741935 0 16.11040722 0 8875.81908739 0 151.06875715 0 3643.91293657 0 8155
0.08850000 0.08849210 20591.69443013 0 88.13786023 0 8950.57375482 0 1322.31468256 0 4495.57267663 0 8718
0.08950000 0.08949900 20743.42200438 0 -40.60243196 0 8060.39428776 0 328.97821092 0 2547.72557739 0 8571
0.09050000 0.09049190 20200.72973771 0 481.41784002 0 7604.19117488 0 -137.03173830 0 2719.11784383 0 8932
0.09150000 0.09150830 19559.10399425 0 535.02492223 0 7719.67271751 0 -584.70239336 0 976.56880009 0 9285
0.09250000 0.09250820 19105.91768695 0 409.52470140 0 7913.56902256 0 -904.85312063 0 123.77775794 0 9204
0.09350000 0.09350330 18417.26526843 0 407.75454637 0 7454.79275199 0 236.40775383 0 -1264.17462816 0 9349
0.09450000 0.09448040 17866.36551601 0 267.43648641 0 7537.08943335 0 396.86742744 0 -1593.81609266 0 9564
0.09550000 0.09549270 17331.76982311 0 180.20865890 0 6327.27276143 0 996.19023662 0 -670.19888503 0 10155
0.09650000 0.09649430 17627.90478163 0 -78.08768303 0 5579.83699909 0 1284.74879850 0 -956.07226813 0 9913
0.09750000 0.09749140 16921.06280012 0 -0.89607887 0 5110.73482417 0 1041.20385943 0 1080.84490644 0 10476
0.09850000 0.09850240 17391.66228663 0 -115.41943192 0 3871.45993316 0 967.66035071 0 278.58313935 0 10575
0.09950000 0.09950330 17239.93471238 0 -49.47250581 0 4221.70884158 0 444.58841143 0 1440.01446458 0 10882
0.10050000 0.10051200 17342.63919612 0 173.53064921 0 3592.22795879 0 -680.61351897 0 652.42080544 0 10875
0.10150000 0.10150300 17477.28632707 0 184.69061158 0 4109.38829009 0 -654.73110177 0 329.94869065 0 11118
0.10250000 0.10250800 17024.10001977 0 109.90056323 0 3772.04953491 0 -434.47102157 0 -781.79629049 0 11575
0.10350000 0.10349800 17086.32163465 0 45.76205678 0 4384.29469765 0 -349.15753465 0 -1235.78116397 0 11364
0.10450000 0.10450100 16653.54312973 0 182.01763312 0 3949.44213890 0 61.84573421 0 -2248.05252704 0 12093
0.10550000 0.10551000 16786.41566917 0 245.74765078 0 4075.20522109 0 267.63280060 0 -3079.26009993 0 12067
0.10650000 0.10649700 16323.58002052 0 35.66829118 0 3486.39575751 0 455.60529736 0 -1467.28771787 0 12054
0.10750000 0.10749900 16120.27838046 0 65.84189248 0 2978.64076122 0 494.03629478 0 -2141.05575008 0 12807
0.10850000 0.10850100 16106.63620821 0 113.38863376 0 2520.71851282 0 721.38143159 0 -2102.85766779 0 12736
0.10950000 0.10950300 15650.12254182 0 446.76561339 0 2915.14365869 0 -579.70913649 0 -1916.59210624 0 12933
0.11050000 0.11050200 15136.26738721 0 594.63566934 0 3272.42438598 0 -581.91295732 0 -860.04246672 0 13428
0.11150000 0.11150900 14362.43457613 0 368.50390949 0 4008.18111794 0 -160.48961984 0 -474.13757834 0 13453
0.11250000 0.11250000 14366.09467112 0 72.19226820 0 4087.82700322 0 343.45555030 0 -485.40623444 0 13668
0.11350000 0.11349100 14291.34000369 0 101.55709942 0 4202.75398600 0 430.05672519 0 49.28639553 0 13791
0.11450000 0.11448600 14076.61443078 0 18.75998325 0 4492.22313515 0 596.97258454 0 1225.11143251 0 14205
0.11550000 0.11549300 14080.71817365 0 145.38451872 0 4171.76518173 0 56.42668630 0 1288.35343751 0 14776
0.11650000 0.11649800 14035.13335419 0 218.42559622 0 4786.18421907 0 -315.44584152 0 1843.75621588 0 14553
0.11750000 0.11747300 13741.99301885 0 78.96643856 0 4557.82756510 0 4.32701976 0 1578.07768419 0 14568
0.11850000 0.11849100 13815.52765461 0 -44.11346127 0 4948.68134555 0 250.38044375 0 2058.83670710 0 16015
0.11950000 0.11950300 13953.94579253 0 -15.93328080 0 4593.04211541 0 461.18749678 0 1159.47372897 0 15270
0.12050000 0.12050700 13831.38806625 0 61.32766441 0 4330.02547098 0 683.91093182 0 2398.84844075 0 15999
0.12150000 0.12150000 13725.35622343 0 108.63006662 0 3779.48063686 0 111.32234377 0 1849.52363830 0 15670
0.12250000 0.12250700 13316.31287998 0 403.08293421 0 4081.93757764 0 -176.61843844 0 2050.46285341 0 16887
0.12350000 0.12352200 13032.71097401 0 318.54915843 0 4432.74104592 0 -443.82644620 0 2141.77667788 0 16407
0.12450000 0.12449800 12667.58877047 0 167.06559051 0 4566.04614204 0 -129.43315927 0 2127.13629791 0 16306
0.12550000 0.12549900 12459.85065163 0 47.95401004 0 4484.57020926 0 272.13582656 0 1153.38466184 0 17523
0.12650000 0.12650100 12472.71644009 0 117.61659804 0 4301.31036208 0 -153.17164809 0 913.47541713 0 17154
0.12750000 0.12750600 12349.93688988 0 131.12678504 0 4760.85192524 0 -407.31977144 0 909.59127996 0 18007
0.12850000 0.12850300 12444.43388788 0 61.63999251 0 4628.28993931 0 -120.69440519 0 399.61804428 0 17496
0.12950000 0.12949900 12134.98949302 0 203.27723943 0 5180.56500015 0 -280.25125537 0 -197.58523715 0 18405
0.13050000 0.13049000 12075.20794147 0 148.55660104 0 5038.50894964 0 -484.58770410 0 -80.18613749 0 18100
0.13150000 0.13148800 11909.61637103 0 73.98150009 0 5472.21911510 0 66.94890484 0 -894.60707289 0 19059
0.13250000 0.13249300 11990.47119678 0 85.30062114 0 5569.41127396 0 -231.44666144 0 -1317.11291119 0 18957
0.13350000 0.13349100 11748.90492725 0 98.22230923 0 5427.34413225 0 -51.49842385 0 -1327.03953246 0 19468
0.13450000 0.13450700 11897.97061424 0 -106.77772582 0 5223.01101087 0 399.98405378 0 -1481.28480842 0 19953
0.13550000 0.13551000 11868.13529445 0 -69.05623226 0 4843.92499038 0 956.68782956 0 -344.85858671 0 19956
0.13650000 0.13649900 11917.60203283 0 -96.49607534 0 3983.96903500 0 914.84850732 0 -864.90706570 0 19723
0.13750000 0.13749600 12066.66771982 0 118.80335611 0 3958.40382603 0 407.70130862 0 -444.10039876 0 20946
0.13850000 0.13851100 11783.62037370 0 186.17461373 0 3208.18417326 0 284.49696556 0 272.76247919 0 20955
0.13950000 0.13949800 11299.37871494 0 167.15321097 0 3498.05260550 0 351.32253629 0 848.47434830 0 20506
0.14050000 0.14048300 11404.74508595 0 158.12164929 0 3084.21786497 0 -29.11206284 0 1322.12613221 0 21447
0.14150000 0.14148400 10953.71047085 0 73.90086709 0 2883.17882908 0 611.70834881 0 993.83113902 0 21771
0.14250000 0.14249400 10894.05092247 0 231.61635675 0 2943.50384929 0 200.07631999 0 1190.59562760 0 22470
0.14350000 0.14350900 10501.31163853 0 172.07215681 0 2877.71086899 0 -141.40610637 0 1248.09239258 0 22519
0.14450000 0.14449900 10392.04116620 0 142.34996723 0 3115.07357488 0 332.26675082 0 1923.01390928 0 22218
0.14550000 0.14550500 10320.44748990 0 -201.14994785 0 2150.28362594 0 524.42839266 0 1327.43881555 0 23559
0.14650000 0.14650700 10496.56460624 0 -134.27224849 0 2005.93169766 0 452.93342801 0 1588.50340932 0 23044
0.14750000 0.14750500 10701.39683148 0 -12.38043768 0 1636.33974176 0 -32.89771018 0 967.11688205 0 23649
0.14850000 0.14849900 10487.18145362 0 227.08560280 0 1861.15830390 0 -290.22778702 0 1025.74938560 0 23640
0.14950000 0.14949500 10237.79589024 0 262.81256641 0 1971.74862867 0 -602.27972228 0 840.57630695 0 24457
0.15050000 0.15050000 10062.52170487 0 127.61531209 0 2106.06302371 0 -135.29707509 0 308.05799524 0 24591
0.15150000 0.15149900 9955.15891841 0 174.53440254 0 2573.73443423 0 -182.48235427 0 424.69191322 0 25020
0.15250000 0.15250500 9674.72909477 0 123.14334148 0 2406.52354904 0 90.45492218 0 195.18510213 0 25297
0.15350000 0.15350100 9700.73795161 0 120.05555225 0 2953.58574731 0 189.49199074 0 560.56018496 0 25452
0.15450000 0.15450400 9601.99302518 0 77.75838539 0 2603.13719734 0 57.00087756 0 1173.80355542 0 26061
0.15550000 0.15549900 9401.06490127 0 153.95912308 0 3150.76504666 0 -3.87825884 0 1274.22325259 0 26128
0.15650000 0.15649500 9437.63257761 0 118.22661387 0 3258.05019474 0 42.00624476 0 1908.37352931 0 26331
0.15750000 0.15749700 9326.94243206 0 28.25327146 0 3616.80605122 0 -149.75223208 0 1783.96357314 0 27345
0.15850000 0.15849900 9417.30241360 0 57.21870867 0 3649.22561990 0 -115.06229538 0 1777.15357821 0 26980
0.15950000 0.15949700 9435.19251428 0 -50.38531132 0 3872.67996482 0 84.77312381 0 2003.25871920 0 27777
0.16050000 0.16050000 9420.36358396 0 40.15523490 0 4023.04332185 0 9.51649099 0 1976.35147540 0 28224
0.16150000 0.16150500 9373.96910712 0 167.49038335 0 3955.25392610 0 5.35342130 0 1713.85611723 0 28075
0.16250000 0.16249700 9287.15830861 0 154.96620376 0 3784.80441140 0 75.99621602 0 1314.66175667 0 28590
0.16350000 0.16349900 8966.96654391 0 273.36805854 0 4067.10864732 0 -231.40007841 0 1800.53382138 0 29163
0.16450000 0.16449100 8670.57648786 0 142.16252600 0 4084.13363464 0 96.77224614 0 1413.30686232 0 28996
0.16550000 0.16550500 8606.41391352 0 -47.07259262 0 3660.02844573 0 435.63116077 0 1481.96137143 0 30777
0.16650000 0.16650700 8440.33433042 0 29.87790999 0 3218.17734171 0 495.87854260 0 1102.91971573 0 29211
0.16750000 0.16749900 8442.33074587 0 69.14629278 0 3038.95469022 0 271.94616709 0 1477.90199335 0 30922
0.16850000 0.16850800 8404.73158821 0 41.23396472 0 2706.13005220 0 203.94714772 0 1332.62949572 0 30867
0.16950000 0.16949900 8251.35142561 0 82.47946428 0 2481.47785801 0 73.47197050 0 1428.66817010 0 30852
0.17050000 0.17049200 8187.39958401 0 123.09232197 0 2648.61110483 0 -231.24923813 0 1019.66586408 0 31257
0.17150000 0.17149500 8021.46418647 0 154.78763549 0 2514.38543936 0 -6.79163900 0 973.40115425 0 32608
0.17250000 0.17250900 7861.16311698 0 14.75805757 0 2654.07906492 0 193.21308732 0 1145.04408174 0 32361
0.17350000 0.17350400 7994.69003704 0 -2.15264605 0 2393.50248382 0 230.60705783 0 1119.17941045 0 32508
0.17450000 0.17449800 7905.02880091 0 -12.75432193 0 2006.51953110 0 430.47819067 0 1247.88165984 0 32791
0.17550000 0.17549800 7910.01983953 0 24.73980209 0 2178.13362148 0 344.12767683 0 1725.06931734 0 33633
0.17650000 0.17650100 7838.03797134 0 46.06983750 0 1652.31106536 0 99.10927225 0 1635.25280446 0 33984
0.17750000 0.17750300 7886.78378193 0 39.39604247 0 1840.60631595 0 -6.66891490 0 1789.09879732 0 34069
