### header ###
fiducial parameters:
Omega_m = 0.31
Omega_nu = 0
Omega_de = 0.69
Omega_k = 0
H_0 = 100
w_de = -1
zeff = 0
beta = 0
fgrowth = 0
b_1 = 2
gamma = 0.55
Lx = 3500 Ly = 3500 Lz = 3500
nx = 700 ny = 700 nz = 700
xoffset = 1379.75464 yoffset = 22.6059522 zoffset = 368.141391
bins = 400 dk = 0.001
kx_ny = 0.628318531 ky_ny = 0.628318531 kz_ny = 0.628318531
############################
A(data) = 3.32393836 (not used)
A(ran) = 3.3234045 (used)
Ngal = 186905
weighted Ngal = 0
Nran = 9399747
weighted Nran = 0
SN(data) = 6673.54218
SN(ran) = 132.189686
SN(data+ran) = 6805.73186
############################
13 columns: k_central k_mean P_0(k) sigma^{lin}_{P_0(k)} P^img_1(k) sigma^{lin}_{P_1(k)} P_2(k) sigma^{lin}_{P_2(k)} P^img_3(k) sigma^{lin}_{P_3(k)} P_4(k) sigma^{lin}_{P_4(k)} N_modes
### header ###
0.00050000 0 0 0 0 0 0 0 0 0 0 0 0
0.00150000 0.00179520 19781.37158109 0 -24970.72080923 0 -30016.43903688 0 17991.25239365 0 -19908.47669812 0 3
0.00250000 0.00253879 44833.27995198 0 -25222.26915601 0 -19684.98907961 0 -10672.62626659 0 41389.46329956 0 6
0.00350000 0.00331552 58909.45073488 0 -13296.68146138 0 -7582.20842253 0 -48135.01837150 0 -34479.53668885 0 7
0.00450000 0.00420575 69944.52622655 0 4754.74067572 0 7320.84436645 0 -40844.33096956 0 14025.37310087 0 24
0.00550000 0.00557378 57533.36592952 0 10247.14576927 0 36924.81288002 0 -15835.45644282 0 3174.37820496 0 45
0.00650000 0.00659388 58472.34666315 0 3312.82961646 0 37742.78865495 0 29833.10155133 0 17250.69317342 0 40
0.00750000 0.00754703 59350.21490160 0 -962.76802373 0 67139.45160637 0 -2549.11197700 0 -7724.70812092 0 57
0.00850000 0.00846663 60887.67662257 0 227.97178943 0 49104.83263265 0 29462.43374932 0 19224.14984642 0 75
0.00950000 0.00948925 67314.80343012 0 -652.60270107 0 65153.12914491 0 19163.14826320 0 12756.20743409 0 112
0.01050000 0.01054430 71610.20218423 0 1054.57207911 0 51759.28879827 0 10713.88551924 0 28292.42338325 0 105
0.01150000 0.01145670 72178.95876373 0 2533.00755904 0 65163.88760595 0 16736.83801881 0 31941.42717922 0 144
0.01250000 0.01249090 67957.42738130 0 5306.47226791 0 52478.99656824 0 7935.15249182 0 23262.12191935 0 169
0.01350000 0.01339930 64717.68875273 0 1535.44312312 0 52937.50665008 0 24683.12607236 0 36078.66546484 0 180
0.01450000 0.01448870 65668.09341922 0 -3342.25456197 0 46890.25333800 0 13472.25510907 0 40327.25936783 0 267
0.01550000 0.01550050 67837.86427820 0 188.23646725 0 31236.47070119 0 22430.94762005 0 7926.39044623 0 238
0.01650000 0.01653350 72311.27674333 0 -2187.01767024 0 26652.70082643 0 999.67287246 0 24388.43296945 0 315
0.01750000 0.01747870 68318.44584197 0 5454.17373767 0 13553.10993482 0 -6017.97255214 0 6519.29465420 0 297
0.01850000 0.01844180 63462.71981803 0 3692.47019681 0 25112.79904214 0 872.76074226 0 23050.83461749 0 388
0.01950000 0.01947590 61476.50826855 0 -1547.47707181 0 28183.17509331 0 4510.00232386 0 1408.63746841 0 399
0.02050000 0.02045430 63812.97981766 0 -2666.04646643 0 16253.15091989 0 16281.98803196 0 3188.57493705 0 462
0.02150000 0.02154770 72407.77015678 0 -6852.59621369 0 10331.94906113 0 9850.19183049 0 12224.05180451 0 571
0.02250000 0.02255340 72048.08263975 0 -1667.84983229 0 -5330.67325965 0 -24.13411182 0 8873.31247688 0 510
0.02350000 0.02348930 82399.94039940 0 1786.72528118 0 13097.26174025 0 -7677.00488285 0 7394.62300855 0 555
0.02450000 0.02439640 75721.48706900 0 3621.03179726 0 7058.36009947 0 -13282.04108140 0 -10609.81681828 0 592
0.02550000 0.02547300 71066.40079786 0 4939.12073379 0 30510.10821305 0 -13120.33142990 0 -1159.49591136 0 837
0.02650000 0.02652900 69270.51418800 0 4630.43054032 0 35739.71848611 0 -8616.93945942 0 -17062.03191333 0 723
0.02750000 0.02749970 64872.74368606 0 2500.95399985 0 46461.46766398 0 -2201.87987415 0 -10825.29659259 0 826
0.02850000 0.02848090 64163.01799335 0 2077.39227960 0 51412.91071758 0 4509.89141189 0 -16042.52908985 0 831
0.02950000 0.02946900 62375.78251711 0 1732.34514254 0 46377.84003899 0 4234.67445082 0 -5061.21262979 0 996
0.03050000 0.03053250 62673.47024320 0 -1903.87050334 0 45262.62018585 0 10538.94406978 0 -6653.04339819 0 1041
0.03150000 0.03150510 61195.34642591 0 -22.93526435 0 36927.80750320 0 10362.74931506 0 -4322.28381551 0 1036
0.03250000 0.03246190 61032.30583077 0 3139.09710747 0 39740.64596124 0 1127.69744971 0 5593.49026253 0 1059
0.03350000 0.03345080 56376.55408782 0 2339.68799623 0 32304.33114336 0 7303.39791365 0 5691.00406610 0 1302
0.03450000 0.03451200 53564.15927765 0 1431.57406370 0 29589.53886635 0 5161.86524210 0 11677.69944284 0 1339
0.03550000 0.03553350 51503.19306074 0 526.65217765 0 25026.62044185 0 5966.93086378 0 9776.71265071 0 1365
0.03650000 0.03647120 50804.55856497 0 -165.63482611 0 22512.02426975 0 3643.74656861 0 8665.23053093 0 1308
0.03750000 0.03744890 52283.01511817 0 -1838.25498220 0 14638.16173226 0 6868.29025737 0 11356.94202710 0 1579
0.03850000 0.03847530 50875.76404937 0 549.12072443 0 12265.64379307 0 547.18641968 0 243.82332811 0 1662
0.03950000 0.03950240 50912.36499930 0 2363.44534009 0 16006.37178780 0 -6987.55389815 0 1761.01588665 0 1683
0.04050000 0.04050350 47636.91271655 0 1988.92889274 0 13686.20429820 0 -1624.32797546 0 -4701.93548705 0 1822
0.04150000 0.04152450 46429.08136889 0 -665.92988333 0 14500.40906617 0 3924.43148978 0 2570.08543043 0 1887
0.04250000 0.04250150 48180.15954308 0 -981.14502795 0 10718.36636281 0 4550.95102299 0 -5088.60788625 0 1920
0.04350000 0.04349210 48582.88090427 0 603.40326053 0 13567.63940282 0 3113.95336399 0 2136.26435300 0 2005
0.04450000 0.04448520 46715.56698607 0 2349.11551363 0 12247.89787795 0 -1317.10182000 0 4517.46669940 0 2151
0.04550000 0.04548030 42777.63750960 0 3076.21002077 0 14332.59925634 0 -1752.12074670 0 8223.97835155 0 2274
0.04650000 0.04648670 41086.00815106 0 739.06523600 0 15287.21857767 0 2241.74163598 0 12464.84169026 0 2311
0.04750000 0.04749250 39714.58164841 0 31.02839985 0 15290.98958464 0 4324.01404223 0 9824.69316871 0 2568
0.04850000 0.04851840 40073.16004575 0 62.00810934 0 13524.93829457 0 2705.63094834 0 11261.11408547 0 2493
0.04950000 0.04949480 38987.99733633 0 -280.63501078 0 10369.23766527 0 2674.30940816 0 7575.49824838 0 2644
0.05050000 0.05050630 40499.61656840 0 14.00862539 0 8803.14956499 0 169.80733440 0 10433.01204772 0 2829
0.05150000 0.05149060 38890.06206728 0 611.36784906 0 8573.46196739 0 -1622.23173924 0 5058.51746893 0 2784
0.05250000 0.05249300 38684.43127586 0 1378.29195356 0 9004.14423608 0 -3743.87789466 0 1585.22041502 0 3055
0.05350000 0.05348950 36242.37153180 0 1565.92173233 0 11137.66906344 0 -1892.24692894 0 -1684.51990130 0 3009
0.05450000 0.05448610 34374.83578966 0 1340.37115119 0 11932.68606068 0 -1059.09506923 0 -425.64131968 0 3336
0.05550000 0.05550870 34139.03694254 0 431.25679270 0 12926.01365937 0 1586.01898120 0 -2287.88101528 0 3349
0.05650000 0.05647670 33503.84409331 0 215.81029198 0 13041.69484354 0 1411.72082116 0 -3830.06758614 0 3324
0.05750000 0.05747970 32119.44089024 0 1029.10003620 0 11438.79506058 0 -308.66357459 0 -2237.06115087 0 3639
0.05850000 0.05849280 31769.73545046 0 629.12485537 0 14044.67178356 0 -20.62518984 0 -429.19383007 0 3846
0.05950000 0.05951020 29934.36417947 0 1256.32206072 0 12160.38833403 0 -489.72847389 0 -426.75709410 0 3787
0.06050000 0.06049470 29536.52294493 0 883.69777157 0 16966.20397170 0 1204.54835336 0 2017.42217770 0 3930
0.06150000 0.06148310 28338.67367453 0 23.68846753 0 14275.92323994 0 660.59058112 0 1791.89377895 0 4083
0.06250000 0.06249100 28664.53304086 0 17.69301011 0 15060.84724796 0 2754.17711738 0 2887.85931420 0 4303
0.06350000 0.06350600 29232.62414855 0 -738.98537939 0 12500.99899231 0 3493.47194116 0 6176.88722201 0 4470
0.06450000 0.06451750 28972.86831602 0 -715.96338188 0 9055.38556598 0 2596.97049184 0 6024.28344320 0 4479
0.06550000 0.06550280 30227.39360284 0 -174.77064503 0 9252.99742201 0 1982.65127527 0 9605.90821770 0 4636
0.06650000 0.06648880 30330.76355840 0 84.43927878 0 7854.98532028 0 928.66813871 0 5892.47565867 0 4653
0.06750000 0.06749660 30369.69365968 0 259.55951834 0 8080.91300211 0 -1201.23208548 0 7681.14189931 0 5220
0.06850000 0.06852730 29390.11914522 0 735.88538984 0 9708.53506307 0 -2229.43040737 0 3826.24112320 0 5029
0.06950000 0.06949320 29007.02920263 0 187.08963748 0 8839.87251808 0 -2068.70787239 0 4301.12181173 0 5040
0.07050000 0.07048030 28867.16920911 0 -124.25024293 0 12300.58106346 0 54.95932094 0 2314.03405769 0 5475
0.07150000 0.07148790 29920.61109525 0 -28.98817417 0 11107.94465561 0 933.13234549 0 -1431.67388447 0 5509
0.07250000 0.07249820 29469.31029143 0 80.41783259 0 9375.84351941 0 390.53546310 0 -367.15965641 0 5916
0.07350000 0.07351270 29459.43912614 0 214.40725557 0 10643.09040912 0 659.72435863 0 -297.91731387 0 5721
0.07450000 0.07449140 28874.71122303 0 639.67591103 0 9692.48610108 0 831.04120494 0 1826.60922540 0 6028
0.07550000 0.07549160 27979.31889340 0 690.15416658 0 10193.93020631 0 829.36088860 0 2401.45487203 0 6183
0.07650000 0.07648840 27089.69398619 0 647.67155491 0 8609.46399268 0 -60.15565762 0 2735.14462342 0 6330
0.07750000 0.07749960 26169.56828736 0 -59.85453163 0 9127.94417642 0 2274.39411979 0 3457.96901973 0 6583
0.07850000 0.07848650 26012.62785054 0 80.40496680 0 7432.00034226 0 1480.41969506 0 3478.46555169 0 6549
0.07950000 0.07947320 25680.55741391 0 402.82672756 0 6835.57122637 0 -528.43342388 0 3606.03649899 0 6828
0.08050000 0.08048110 25114.57363365 0 928.02484929 0 6446.37003426 0 -376.86001727 0 1897.43760911 0 7147
0.08150000 0.08149960 23597.07606719 0 697.33793485 0 7834.02295804 0 -916.01419212 0 3437.70540290 0 7386
0.08250000 0.08250610 23268.66572555 0 39.78212704 0 6332.14179689 0 1076.22764115 0 1273.22504487 0 7227
0.08350000 0.08350160 23512.33932251 0 -77.36043324 0 6407.36229459 0 1532.44849994 0 1109.11969482 0 7798
0.08450000 0.08449610 23262.23283132 0 344.43379387 0 4793.78168898 0 -89.73055611 0 709.51717821 0 7371
0.08550000 0.08548940 22620.93982378 0 246.26893704 0 5750.39742576 0 451.56144695 0 1767.87024636 0 8256
0.08650000 0.08650700 21963.12093278 0 589.72115998 0 5311.05293225 0 226.89150685 0 2528.50453307 0 8037
0.08750000 0.08749060 21564.83605037 0 410.78798873 0 5809.12531360 0 200.09295678 0 1747.29607603 0 8155
0.08850000 0.08849210 21247.40599371 0 211.52798084 0 5519.27906375 0 687.51224347 0 2774.31873104 0 8718
0.08950000 0.08949900 20200.17517786 0 565.28725310 0 5758.60491150 0 -453.13750604 0 3234.63667798 0 8571
0.09050000 0.09049190 20238.99436718 0 204.87326267 0 6398.46715464 0 -12.43023716 0 3739.25286553 0 8932
0.09150000 0.09150830 19638.62787637 0 255.02987351 0 5642.61317382 0 128.01015870 0 1604.99601918 0 9285
0.09250000 0.09250820 19714.82439940 0 243.33309721 0 6451.37216408 0 191.86883425 0 2798.70827313 0 9204
0.09350000 0.09350330 18764.86338079 0 328.10089724 0 5522.22932214 0 -274.42172225 0 1553.82123646 0 9349
0.09450000 0.09448040 19063.99296248 0 143.18957084 0 6379.16847195 0 439.29680137 0 2078.96722957 0 9564
0.09550000 0.09549270 18424.03089857 0 399.01468317 0 5965.56664656 0 -518.17628494 0 247.42463976 0 10155
0.09650000 0.09649430 17948.77310934 0 330.33244607 0 5217.44323000 0 69.22126927 0 716.44252159 0 9913
0.09750000 0.09749140 17850.50510438 0 -75.25787504 0 5824.68626292 0 359.97145167 0 1134.56290062 0 10476
0.09850000 0.09850240 17743.36414186 0 7.57363493 0 5319.72624826 0 288.74711223 0 -886.42731514 0 10575
0.09950000 0.09950330 17978.83025307 0 197.56860036 0 5520.59891619 0 261.45278566 0 944.97108911 0 10882
0.10050000 0.10051200 17289.73418668 0 175.39064294 0 4404.00375462 0 101.30821296 0 -498.31638769 0 10875
0.10150000 0.10150300 17020.66174871 0 323.58567096 0 5522.97243234 0 -459.09347880 0 -216.84066418 0 11118
0.10250000 0.10250800 17057.26269864 0 325.65528831 0 5297.97641105 0 -188.96072241 0 -72.44348381 0 11575
0.10350000 0.10349800 16395.78371265 0 278.83934600 0 6364.10662650 0 335.43550578 0 -107.82218384 0 11364
0.10450000 0.10450100 16247.71623339 0 311.27666059 0 5626.39784388 0 -343.75723085 0 -721.66536623 0 12093
0.10550000 0.10551000 15723.43535365 0 337.47628602 0 6066.67399794 0 -390.85378046 0 -758.11325764 0 12067
0.10650000 0.10649700 15560.50567048 0 493.16896318 0 6874.30168611 0 -714.70120367 0 266.64568407 0 12054
0.10750000 0.10749900 14846.45441095 0 142.28674741 0 6481.42930781 0 74.37002472 0 -1718.17059284 0 12807
0.10850000 0.10850100 14926.53285292 0 -68.86013990 0 6712.86931453 0 477.87863907 0 -1267.72381118 0 12736
0.10950000 0.10950300 14962.69015497 0 -99.77552045 0 5681.13290082 0 780.34334369 0 -1851.70860410 0 12933
0.11050000 0.11050200 14880.83712149 0 -9.09792031 0 5354.38623872 0 795.26322182 0 -949.78688682 0 13428
0.11150000 0.11150900 14778.13263775 0 228.43540147 0 5011.36879071 0 146.21524937 0 -390.26483790 0 13453
0.11250000 0.11250000 14342.80315753 0 252.04634153 0 4530.49885582 0 586.20968702 0 -824.61718366 0 13668
0.11350000 0.11349100 14341.69403784 0 -110.22276250 0 4648.50919135 0 893.70203122 0 574.39201667 0 13791
0.11450000 0.11448600 14388.94253684 0 2.80760341 0 3911.55461012 0 -8.43059626 0 -79.63601412 0 14205
0.11550000 0.11549300 14360.21633674 0 101.53824438 0 4276.89863760 0 225.33873928 0 550.50934229 0 14776
0.11650000 0.11649800 14051.65923764 0 204.43626951 0 3979.67674178 0 -684.40338096 0 -484.80620068 0 14553
0.11750000 0.11747300 14054.87568476 0 188.02240715 0 4292.62595487 0 -611.07060498 0 -543.76034894 0 14568
0.11850000 0.11849100 13827.28432338 0 70.09370283 0 4433.28451457 0 74.97782231 0 -1114.18837183 0 16015
0.11950000 0.11950300 13735.11647674 0 -2.47151796 0 4552.14887226 0 -100.59183255 0 -1285.92446537 0 15270
0.12050000 0.12050700 13796.89444374 0 78.80284341 0 4134.98677265 0 586.38603705 0 -1043.21358432 0 15999
0.12150000 0.12150000 13905.80999777 0 -136.86537034 0 3312.17523584 0 1080.92365394 0 -975.19349167 0 15670
0.12250000 0.12250700 13602.57667321 0 68.25311869 0 3569.57973462 0 633.57020711 0 366.76702804 0 16887
0.12350000 0.12352200 13904.81179005 0 -19.18732707 0 2328.00896584 0 404.10443345 0 471.37254294 0 16407
0.12450000 0.12449800 13558.65553329 0 198.91950815 0 2681.80705729 0 -9.83941119 0 -2.86937029 0 16306
0.12550000 0.12549900 13235.01440634 0 283.40670090 0 2370.78771247 0 -443.42383575 0 582.99323991 0 17523
0.12650000 0.12650100 13124.21334883 0 -61.97173021 0 2628.04802568 0 117.48350367 0 835.19042171 0 17154
0.12750000 0.12750600 13197.52616066 0 132.28914248 0 3083.89622026 0 34.08934838 0 217.92760148 0 18007
0.12850000 0.12850300 13091.16158193 0 201.25753246 0 3184.97029805 0 -205.13612404 0 43.80279684 0 17496
0.12950000 0.12949900 12741.89979003 0 225.06145935 0 3234.37048925 0 -51.46825579 0 59.54652909 0 18405
0.13050000 0.13049000 12841.94238650 0 -27.44195040 0 3657.72147677 0 -582.90894681 0 -63.87631055 0 18100
0.13150000 0.13148800 12697.86773814 0 144.70795570 0 3638.17878774 0 -58.55031778 0 -429.71178896 0 19059
0.13250000 0.13249300 12508.65191821 0 301.23136352 0 4305.09246024 0 -691.79122725 0 -1150.52313303 0 18957
0.13350000 0.13349100 12232.81385010 0 311.18904014 0 4397.33794526 0 -527.91657410 0 -1277.53952048 0 19468
0.13450000 0.13450700 12014.09544628 0 -12.56610432 0 4471.28295531 0 414.46693876 0 -1016.48601791 0 19953
0.13550000 0.13551000 12084.63545887 0 33.24841383 0 4637.73963911 0 140.93805786 0 -1457.05054309 0 19956
0.13650000 0.13649900 11996.34953117 0 241.14147669 0 4042.71910523 0 267.90453493 0 -920.15564506 0 19723
0.13750000 0.13749600 11584.20065257 0 274.00358413 0 4611.10967524 0 -27.64968852 0 -957.49748694 0 20946
0.13850000 0.13851100 11297.38229949 0 123.99736364 0 4352.51841839 0 179.93470633 0 -560.33836102 0 20955
0.13950000 0.13949800 11306.47708099 0 100.02440691 0 4283.40917021 0 383.76317825 0 -272.19350079 0 20506
0.14050000 0.14048300 11069.77984692 0 14.23577311 0 4120.37966626 0 133.11100017 0 10.62750728 0 21447
0.14150000 0.14148400 11175.93369291 0 29.04595930 0 3916.87838466 0 396.03226031 0 156.39807729 0 21771
0.14250000 0.14249400 10926.65904150 0 -5.43094877 0 3926.15062531 0 114.20605498 0 -215.02392612 0 22470
0.14350000 0.14350900 11084.59768604 0 152.76016469 0 3604.16208670 0 243.57155794 0 31.44210149 0 22519
0.14450000 0.14449900 10673.36937679 0 193.79426604 0 3624.52552430 0 -74.80812700 0 132.60302335 0 22218
0.14550000 0.14550500 10449.63775195 0 292.14767321 0 3888.49601167 0 -63.57973195 0 264.55277521 0 23559
0.14650000 0.14650700 10294.46081545 0 129.35884825 0 3791.14857605 0 -70.10512676 0 -67.20244961 0 23044
0.14750000 0.14750500 10042.69064472 0 43.50477638 0 3835.33590470 0 278.35798805 0 177.94716384 0 23649
0.14850000 0.14849900 10060.64729258 0 84.12528700 0 3386.00933393 0 100.31344350 0 67.78096644 0 23640
0.14950000 0.14949500 9980.51339463 0 57.89981908 0 3548.81701393 0 36.09374949 0 476.91370494 0 24457
0.15050000 0.15050000 9800.66963612 0 187.62866965 0 3343.46350244 0 0.80600726 0 229.09200032 0 24591
0.15150000 0.15149900 9651.00502450 0 57.05799723 0 3465.02302099 0 457.84904650 0 543.13924191 0 25020
0.15250000 0.15250500 9639.17071735 0 -110.76501112 0 3112.27859325 0 407.78781996 0 417.42939746 0 25297
0.15350000 0.15350100 9827.14432323 0 -67.23694323 0 2641.10236449 0 356.62745579 0 663.08499131 0 25452
0.15450000 0.15450400 9659.95562043 0 83.23078196 0 2662.34200665 0 -104.68381875 0 228.43207411 0 26061
0.15550000 0.15549900 9607.74935640 0 202.61620409 0 2608.27242153 0 -452.30344803 0 -116.99549101 0 26128
0.15650000 0.15649500 9461.68938379 0 93.82842065 0 2559.11623665 0 -53.15090128 0 -269.85214911 0 26331
0.15750000 0.15749700 9339.68621736 0 34.91220428 0 2397.22912599 0 339.43831876 0 -503.34957286 0 27345
0.15850000 0.15849900 9319.36714455 0 -18.28594550 0 2474.74550147 0 256.23437750 0 -307.89495464 0 26980
0.15950000 0.15949700 9369.15552765 0 35.06004994 0 1944.33118981 0 252.80276116 0 -422.10877346 0 27777
0.16050000 0.16050000 9089.53536139 0 113.37421520 0 2117.67550691 0 39.32117689 0 -69.49788373 0 28224
0.16150000 0.16150500 9047.59954572 0 126.18898416 0 1837.94442868 0 -49.85226839 0 -578.14416860 0 28075
0.16250000 0.16249700 8983.60333933 0 100.87177436 0 2308.88774230 0 -127.15613653 0 -288.42990400 0 28590
0.16350000 0.16349900 8816.40354534 0 171.52203345 0 2177.94507113 0 -253.94515445 0 -269.35304525 0 29163
0.16450000 0.16449100 8713.04468098 0 -36.86946781 0 2361.79275175 0 96.49385710 0 -662.50492171 0 28996
0.16550000 0.16550500 8791.52599058 0 57.81441686 0 1976.88385285 0 9.14628902 0 -783.80379713 0 30777
0.16650000 0.16650700 8641.69501101 0 90.31972049 0 2203.24409137 0 -17.08887261 0 -1112.60233066 0 29211
0.16750000 0.16749900 8586.49412380 0 63.72901946 0 2050.06357032 0 87.79636227 0 -682.97483480 0 30922
0.16850000 0.16850800 8568.82584706 0 -26.98776589 0 1646.87637886 0 427.59891594 0 -979.02439110 0 30867
0.16950000 0.16949900 8540.39910928 0 -37.73025560 0 1625.52582473 0 304.21711373 0 -524.49383072 0 30852
0.17050000 0.17049200 8524.59415363 0 5.89764416 0 1305.11223609 0 219.93067165 0 -651.40374268 0 31257
0.17150000 0.17149500 8590.58677547 0 24.29504509 0 1019.35863792 0 149.87756260 0 -412.59918119 0 32608
0.17250000 0.17250900 8470.65766287 0 158.77048431 0 1296.79383838 0 -267.22464455 0 -420.46727631 0 32361
0.17350000 0.17350400 8179.80211410 0 270.01075323 0 1591.64221805 0 -383.98056571 0 -724.50914913 0 32508
0.17450000 0.17449800 8201.62958970 0 101.22802360 0 1873.50280610 0 -254.95223513 0 -55.27652917 0 32791
0.17550000 0.17549800 8104.94762590 0 -100.69775348 0 1849.37945274 0 307.78404267 0 -587.62048727 0 33633
0.17650000 0.17650100 8205.97733890 0 -22.21112010 0 1888.37610121 0 124.10716649 0 -310.79197528 0 33984
0.17750000 0.17750300 8288.61784736 0 80.80325169 0 1735.19558016 0 -33.30952632 0 -347.49052775 0 34069
0.17850000 0.17849800 7999.23742778 0 216.68206006 0 1856.35581562 0 -205.99791004 0 -186.50291316 0 34536
