### header ###
fiducial parameters:
Omega_m = 0.31
Omega_nu = 0
Omega_de = 0.69
Omega_k = 0
H_0 = 100
w_de = -1
zeff = 0
beta = 0
fgrowth = 0
b_1 = 2
gamma = 0.55
Lx = 3500 Ly = 3500 Lz = 3500
nx = 700 ny = 700 nz = 700
xoffset = 1379.75464 yoffset = 22.6059522 zoffset = 368.141391
bins = 400 dk = 0.001
kx_ny = 0.628318531 ky_ny = 0.628318531 kz_ny = 0.628318531
############################
A(data) = 3.37799726 (not used)
A(ran) = 3.39257975 (used)
Ngal = 190357
weighted Ngal = 0
Nran = 9399747
weighted Nran = 0
SN(data) = 6533.91947
SN(ran) = 134.941159
SN(data+ran) = 6668.86063
############################
13 columns: k_central k_mean P_0(k) sigma^{lin}_{P_0(k)} P^img_1(k) sigma^{lin}_{P_1(k)} P_2(k) sigma^{lin}_{P_2(k)} P^img_3(k) sigma^{lin}_{P_3(k)} P_4(k) sigma^{lin}_{P_4(k)} N_modes
### header ###
0.00050000 0 0 0 0 0 0 0 0 0 0 0 0
0.00150000 0.00179520 84309.73360191 0 -33714.68774730 0 -5153.09210531 0 68618.46271942 0 225340.95751673 0 3
0.00250000 0.00253879 67689.68588697 0 -26091.04261297 0 22755.25421882 0 -41846.97517367 0 -123149.99619489 0 6
0.00350000 0.00331552 96081.15365897 0 -8789.01938007 0 -286.53885492 0 48838.31116999 0 38256.75472153 0 7
0.00450000 0.00420575 110933.04275643 0 -2960.58429259 0 25818.31008001 0 -5223.01101087 0 -26333.93982613 0 24
0.00550000 0.00557378 120404.92495021 0 2245.52373414 0 48326.56334280 0 22703.79106498 0 61705.87422144 0 45
0.00650000 0.00659388 117892.76884144 0 -3779.22553933 0 41554.38939818 0 35537.08231786 0 -13754.08242352 0 40
0.00750000 0.00754703 121023.81373992 0 -6709.68614101 0 72682.16636928 0 26436.64430987 0 66825.79255667 0 57
0.00850000 0.00846663 130283.85407199 0 13970.58258795 0 26737.77030702 0 27863.52679726 0 32488.77774861 0 75
0.00950000 0.00948925 123012.46535274 0 12944.97960615 0 70108.45411744 0 6018.21655847 0 66677.17051757 0 112
0.01050000 0.01054430 103265.69830612 0 11958.86128548 0 69028.50427059 0 20442.62874315 0 41307.27753017 0 105
0.01150000 0.01145670 88569.75143776 0 18390.75730773 0 92689.46563220 0 21591.34401107 0 69061.00147765 0 144
0.01250000 0.01249090 74857.59373870 0 8252.02798863 0 78198.81681935 0 17112.71868338 0 57974.35192018 0 169
0.01350000 0.01339930 74076.77347354 0 2566.49188262 0 86467.85870410 0 34832.68039968 0 59884.58877057 0 180
0.01450000 0.01448870 66242.06286129 0 935.83194282 0 75596.15654348 0 32511.51470236 0 66592.98833273 0 267
0.01550000 0.01550050 61844.84691920 0 2593.31039684 0 51347.25083164 0 1536.55224281 0 25935.65494372 0 238
0.01650000 0.01653350 69785.70028625 0 -3158.08523664 0 43472.61191038 0 26804.31748871 0 55081.21319623 0 315
0.01750000 0.01747870 61714.08170718 0 -2653.90160577 0 39755.06451727 0 14957.81002831 0 32448.73852763 0 297
0.01850000 0.01844180 75569.09402293 0 -4345.90806501 0 22176.95920994 0 14401.58650136 0 40361.30934246 0 388
0.01950000 0.01947590 73857.61142185 0 545.04692779 0 5297.77676950 0 6186.53656336 0 20115.54934514 0 399
0.02050000 0.02045430 72798.18028935 0 724.51691297 0 7019.97346683 0 -3549.87067764 0 16363.28650559 0 462
0.02150000 0.02154770 66773.33119511 0 5451.24566167 0 8604.57277482 0 -7748.32127923 0 17375.02549121 0 571
0.02250000 0.02255340 64990.75402159 0 2996.61959147 0 3846.40491925 0 140.18496559 0 837.58168378 0 510
0.02350000 0.02348930 60662.52532452 0 -524.02134573 0 11663.05906287 0 7579.31362013 0 5355.17371371 0 555
0.02450000 0.02439640 56545.47301734 0 -1086.53801784 0 280.82577937 0 9302.80798750 0 -5344.68144139 0 592
0.02550000 0.02547300 63225.36820334 0 -2041.74517261 0 -2879.99565556 0 8288.14092589 0 16592.43063454 0 837
0.02650000 0.02652900 59473.32718773 0 339.89638520 0 -9221.52060507 0 2741.94352715 0 7681.90719190 0 723
0.02750000 0.02749970 62866.45707010 0 2671.82498004 0 951.18548676 0 -3148.73535762 0 23405.64200786 0 826
0.02850000 0.02848090 56937.32500552 0 822.44885466 0 -201.12887458 0 -5825.79538261 0 8550.88029040 0 831
0.02950000 0.02946900 60021.23231697 0 2254.55196845 0 10159.98005245 0 -6569.03867251 0 14553.86863546 0 996
0.03050000 0.03053250 54640.44902951 0 3686.55858883 0 17548.38089951 0 -9551.11770478 0 10490.06516483 0 1041
0.03150000 0.03150510 54233.29118954 0 2839.62369867 0 28032.88937466 0 -8349.34215065 0 2161.91829154 0 1036
0.03250000 0.03246190 52318.39603643 0 1318.76549954 0 28038.65679708 0 -507.09396095 0 5852.78026479 0 1059
0.03350000 0.03345080 52148.47889918 0 -1033.72617445 0 34985.29526969 0 5312.46151426 0 -6659.08810053 0 1302
0.03450000 0.03451200 53554.39902434 0 -606.44446673 0 27227.22482834 0 5468.91393841 0 735.55154481 0 1339
0.03550000 0.03553350 54260.13188616 0 -73.79306066 0 24760.65353903 0 1512.83926374 0 -9416.27093228 0 1365
0.03650000 0.03647120 51353.24007800 0 1873.17007019 0 19599.47595114 0 719.68780582 0 3175.68696620 0 1308
0.03750000 0.03744890 50102.70762208 0 1914.34059326 0 20425.88103576 0 1035.17468477 0 -4385.27072298 0 1579
0.03850000 0.03847530 45795.66311118 0 643.05761698 0 19314.21036563 0 3381.17357206 0 -3718.47905365 0 1662
0.03950000 0.03950240 46360.64868372 0 1274.20107020 0 13551.00260740 0 3712.19034498 0 -8393.13019620 0 1683
0.04050000 0.04050350 43548.14296159 0 166.13282085 0 14226.34558958 0 822.36123420 0 -5477.86453435 0 1822
0.04150000 0.04152450 43499.67443093 0 119.31576941 0 8046.89630107 0 4052.47935855 0 1383.51590732 0 1887
0.04250000 0.04250150 42753.12596434 0 -440.44695849 0 8805.87799944 0 787.17330277 0 -6701.16810175 0 1920
0.04350000 0.04349210 43182.24437427 0 399.55593358 0 2135.53233400 0 195.90270258 0 -4017.29808183 0 2005
0.04450000 0.04448520 42364.93407116 0 1348.06844187 0 7007.57350864 0 -2544.66440703 0 -8050.81149359 0 2151
0.04550000 0.04548030 41046.96713780 0 1471.06981603 0 8074.30264873 0 -4638.60475247 0 -4198.76115510 0 2274
0.04650000 0.04648670 39977.22119214 0 341.20403732 0 11365.26042481 0 2037.07577869 0 -6426.09532624 0 2311
0.04750000 0.04749250 38914.57361253 0 865.45718907 0 11243.47908232 0 -826.88200608 0 -4436.34568493 0 2568
0.04850000 0.04851840 37755.65444341 0 1116.67279994 0 12160.83198191 0 1901.89627029 0 -2119.26154808 0 2493
0.04950000 0.04949480 38190.09662788 0 246.19240778 0 13952.17120102 0 2192.74072786 0 792.84090441 0 2644
0.05050000 0.05050630 37005.22405790 0 -216.83511858 0 11702.21098810 0 1760.08422611 0 6871.35142773 0 2829
0.05150000 0.05149060 38991.54651935 0 -346.51893889 0 14001.41611547 0 1952.61631393 0 2417.00473015 0 2784
0.05250000 0.05249300 37810.22313240 0 -129.00282082 0 11667.60645362 0 558.44953018 0 7682.45066055 0 3055
0.05350000 0.05348950 37637.86593182 0 1052.24625511 0 14661.67506979 0 -1593.11734725 0 4046.76739212 0 3009
0.05450000 0.05448610 36692.45230396 0 1424.47569765 0 12597.49240576 0 -2685.42278750 0 4629.21050866 0 3336
0.05550000 0.05550870 36272.53958750 0 685.44151700 0 16939.14145114 0 427.23068821 0 2246.38884750 0 3349
0.05650000 0.05647670 34966.88388275 0 326.64573220 0 16207.67701241 0 539.07875471 0 974.78755386 0 3324
0.05750000 0.05747970 34038.99434606 0 781.82180024 0 13932.09613454 0 2049.35373371 0 -1109.09085771 0 3639
0.05850000 0.05849280 33621.74351687 0 853.02950289 0 15124.39980647 0 -1788.27804875 0 -40.51836069 0 3846
0.05950000 0.05951020 31768.07177092 0 1122.34040158 0 15984.41121784 0 814.55746803 0 498.07349047 0 3787
0.06050000 0.06049470 31579.07777492 0 -155.66938565 0 14889.93190299 0 1084.19333880 0 1344.19761414 0 3930
0.06150000 0.06148310 30609.92898558 0 99.70597865 0 13894.05332901 0 2246.51085067 0 -48.20855301 0 4083
0.06250000 0.06249100 32518.61306840 0 -654.21314287 0 12158.05918267 0 1831.46716967 0 -229.36706201 0 4303
0.06350000 0.06350600 31460.51287954 0 312.00202487 0 13360.45584383 0 -783.82597953 0 3149.19009669 0 4470
0.06450000 0.06451750 31232.14513438 0 1384.94667173 0 12796.80121492 0 -1855.45742867 0 1376.81682436 0 4479
0.06550000 0.06550280 29937.02606673 0 733.77029858 0 15674.96682298 0 -1507.32693885 0 607.31290746 0 4636
0.06650000 0.06648880 29486.61255867 0 190.53567237 0 16408.64950111 0 1980.13357356 0 1694.94562643 0 4653
0.06750000 0.06749660 29912.62543345 0 -873.96746449 0 14577.71470890 0 2508.56256096 0 2258.57807295 0 5220
0.06850000 0.06852730 31004.88650891 0 -225.87000761 0 13641.61768647 0 2193.91639474 0 660.94993590 0 5029
0.06950000 0.06949320 30842.28956165 0 616.50640061 0 11509.44598514 0 282.56598817 0 1617.41815976 0 5040
0.07050000 0.07048030 29148.33105175 0 612.75313956 0 11842.73645343 0 -84.35664937 0 1788.17822798 0 5475
0.07150000 0.07148790 28564.71226833 0 1012.86252387 0 11415.50354699 0 -588.53883838 0 152.47733917 0 5509
0.07250000 0.07249820 27575.48841252 0 635.72189932 0 12169.15037962 0 271.02005215 0 1473.65406492 0 5916
0.07350000 0.07351270 26236.89185284 0 644.16119108 0 11607.82490207 0 -755.06983320 0 -2151.41492803 0 5721
0.07450000 0.07449140 26314.30840754 0 308.77448656 0 10477.89812177 0 1694.92344404 0 -557.95929928 0 6028
0.07550000 0.07549160 25117.23552091 0 -142.48084336 0 10543.79092284 0 1865.04022283 0 1074.01272912 0 6183
0.07650000 0.07648840 26065.08921211 0 -307.95262887 0 7783.76874467 0 2228.60965879 0 540.08250803 0 6330
0.07750000 0.07749960 25755.09025741 0 91.64445306 0 6472.13488477 0 1987.99723220 0 478.72711564 0 6583
0.07850000 0.07848650 25741.66990910 0 306.71706953 0 6559.36714877 0 117.20844199 0 2208.12421803 0 6549
0.07950000 0.07947320 23880.56706119 0 979.48578489 0 7151.73688658 0 -1082.13259441 0 2253.43175756 0 6828
0.08050000 0.08048110 24268.86986634 0 699.83234504 0 7108.29266813 0 -267.25015431 0 2067.23274319 0 7147
0.08150000 0.08149960 22481.19074223 0 154.42495335 0 7616.38040033 0 255.11971220 0 2993.10368204 0 7386
0.08250000 0.08250610 22889.34678992 0 133.61786787 0 7133.56950598 0 1299.72191438 0 2717.34325231 0 7227
0.08350000 0.08350160 22400.55774042 0 148.58543816 0 5766.26892859 0 929.86820622 0 1847.28321651 0 7798
0.08450000 0.08449610 22173.63185086 0 467.38525764 0 6221.15218903 0 139.50396610 0 3858.43886794 0 7371
0.08550000 0.08548940 21693.38302300 0 296.09170285 0 5942.81860161 0 450.26377691 0 2170.30323643 0 8256
0.08650000 0.08650700 21074.16149738 0 211.82189756 0 5627.32950442 0 389.05922479 0 3753.90433670 0 8037
0.08750000 0.08749060 21268.47926791 0 314.62842031 0 6020.26842990 0 290.27769741 0 3120.31971103 0 8155
0.08850000 0.08849210 20276.92626074 0 318.58575938 0 5913.69311843 0 -516.53700603 0 3509.18816724 0 8718
0.08950000 0.08949900 20016.06130852 0 116.00282888 0 5724.21110977 0 1067.14173261 0 3867.22309592 0 8571
0.09050000 0.09049190 20237.21977567 0 49.58840882 0 5852.21461374 0 42.60550213 0 3135.25955332 0 8932
0.09150000 0.09150830 20144.27554524 0 516.91077937 0 6280.93374058 0 -535.27558328 0 3038.61086312 0 9285
0.09250000 0.09250820 19432.10978919 0 329.58600851 0 6691.19711570 0 -1104.33827982 0 1798.49304114 0 9204
0.09350000 0.09350330 19598.03409554 0 284.64891496 0 7337.74735060 0 -1111.36011661 0 1550.52715097 0 9349
0.09450000 0.09448040 18959.18115132 0 140.54099301 0 7627.85978917 0 -515.81275087 0 -497.07195539 0 9564
0.09550000 0.09549270 18723.60412814 0 445.47570719 0 8531.68142848 0 280.93003662 0 1.85188606 0 10155
0.09650000 0.09649430 18414.93611707 0 135.52888111 0 7737.46299741 0 397.37984074 0 -1681.30345418 0 9913
0.09750000 0.09749140 18157.28761197 0 164.04434846 0 7878.11046591 0 551.49202234 0 -674.93038965 0 10476
0.09850000 0.09850240 18001.78903075 0 75.90127537 0 7225.64862304 0 866.34115746 0 -580.80827411 0 10575
0.09950000 0.09950330 17492.25944295 0 158.83037678 0 5737.42072533 0 840.42990315 0 -341.10532566 0 10882
0.10050000 0.10051200 17368.81442092 0 269.14896722 0 5597.30563428 0 534.67222216 0 92.83032383 0 10875
0.10150000 0.10150300 16763.12415557 0 311.84674811 0 5094.58604141 0 456.12325626 0 -491.52968427 0 11118
0.10250000 0.10250800 16354.74628394 0 231.09728873 0 4275.06859010 0 302.74198454 0 845.84573462 0 11575
0.10350000 0.10349800 16028.88691760 0 198.88956191 0 4641.43300770 0 531.23062375 0 -412.63134566 0 11364
0.10450000 0.10450100 15607.64325751 0 237.78195313 0 3679.13857807 0 294.31822046 0 633.70219235 0 12093
0.10550000 0.10551000 15443.27171874 0 60.46421472 0 3381.53958156 0 684.27472308 0 714.07898752 0 12067
0.10650000 0.10649700 15221.33686780 0 -62.41604356 0 2919.39158712 0 839.65130113 0 1591.22075257 0 12054
0.10750000 0.10749900 15300.86074992 0 -38.90015506 0 2452.43001321 0 766.50152989 0 1329.92324367 0 12807
0.10850000 0.10850100 15096.11725426 0 314.75153260 0 2720.14932514 0 -282.80112155 0 1415.64710488 0 12736
0.10950000 0.10950300 14758.61213112 0 332.93554999 0 2612.40943799 0 -600.13801215 0 1777.49740532 0 12933
0.11050000 0.11050200 14584.81307494 0 191.14014261 0 3017.99232799 0 -114.13950779 0 1686.29449281 0 13428
0.11150000 0.11150900 14473.79019349 0 -176.61067461 0 2977.38745596 0 -25.19565028 0 1569.85910725 0 13453
0.11250000 0.11250000 14899.02668449 0 -93.77141189 0 3884.66954872 0 83.80186769 0 824.54065441 0 13668
0.11350000 0.11349100 14851.22362564 0 14.89913760 0 3296.24827703 0 -137.96783532 0 1145.39900004 0 13791
0.11450000 0.11448600 14774.80527867 0 385.65089997 0 3751.30899662 0 -555.23973778 0 647.21459760 0 14205
0.11550000 0.11549300 14414.67411376 0 262.15042195 0 4837.55864333 0 -652.28216548 0 545.30978916 0 14776
0.11650000 0.11649800 14049.55191022 0 467.46955073 0 5465.59767052 0 -914.93501865 0 -305.09775477 0 14553
0.11750000 0.11747300 13854.23593196 0 245.00564971 0 5770.88286652 0 -477.94074977 0 -187.32366174 0 14568
0.11850000 0.11849100 13454.84192986 0 217.90985556 0 6165.18600923 0 -206.56023372 0 -394.97748748 0 16015
0.11950000 0.11950300 13221.70497001 0 179.46000310 0 5992.87317344 0 134.15357269 0 -1450.20727457 0 15270
0.12050000 0.12050700 13163.58709800 0 136.79993228 0 6124.02657736 0 342.01591293 0 -715.11490531 0 15999
0.12150000 0.12150000 12776.06067663 0 108.90080274 0 5713.40828394 0 639.48070596 0 -845.93113684 0 15670
0.12250000 0.12250700 12726.59393824 0 10.21540276 0 5525.56777242 0 1020.26478871 0 62.52551368 0 16887
0.12350000 0.12352200 12677.68175970 0 -83.73986790 0 4153.46470676 0 803.50065379 0 98.17894265 0 16407
0.12450000 0.12449800 12701.63874510 0 -171.64625485 0 3958.49255561 0 872.39695100 0 769.44069709 0 16306
0.12550000 0.12549900 13039.80934006 0 -161.62424929 0 3095.74161860 0 360.84100151 0 1004.18255314 0 17523
0.12650000 0.12650100 12869.44855493 0 65.49019062 0 3075.45581938 0 16.15543747 0 773.06086377 0 17154
0.12750000 0.12750600 13236.23443801 0 -23.16840131 0 2703.93399520 0 -75.39108031 0 679.34468604 0 18007
0.12850000 0.12850300 12931.55925784 0 37.02407909 0 3143.05666478 0 -457.28783194 0 -159.97498830 0 17496
0.12950000 0.12949900 13237.56538164 0 245.75985110 0 3281.30843474 0 -440.11422258 0 -178.40079379 0 18405
0.13050000 0.13049000 12803.01228521 0 149.89752676 0 3421.67862331 0 -461.82745885 0 -555.08778839 0 18100
0.13150000 0.13148800 12656.60848549 0 174.49225599 0 3880.33289071 0 -131.36413665 0 290.34202635 0 19059
0.13250000 0.13249300 12461.18159527 0 36.07189983 0 3900.04194769 0 712.44303597 0 -291.64080551 0 18957
0.13350000 0.13349100 12846.71160119 0 -189.41213412 0 3790.56074262 0 589.19876460 0 257.07509022 0 19468
0.13450000 0.13450700 12957.06901082 0 -115.23864541 0 2983.52088787 0 669.75190980 0 420.95307073 0 19953
0.13550000 0.13551000 12789.81376084 0 193.23748795 0 3441.68714261 0 -416.25705795 0 962.57392778 0 19956
0.13650000 0.13649900 12624.00036647 0 413.34007315 0 3456.32752258 0 -664.79858124 0 594.89853071 0 19723
0.13750000 0.13749600 12081.75174767 0 376.64706628 0 4239.70985423 0 -637.58965689 0 -118.81999291 0 20946
0.13850000 0.13851100 11690.45431934 0 372.42132025 0 4653.34495322 0 -373.68238934 0 -127.54876490 0 20955
0.13950000 0.13949800 11385.55731523 0 196.57926559 0 4964.75248993 0 -48.30238453 0 -656.29163318 0 20506
0.14050000 0.14048300 11224.73495948 0 55.65152254 0 4430.71135688 0 237.81522672 0 -679.69738610 0 21447
0.14150000 0.14148400 11157.07865810 0 33.02525894 0 4487.53155884 0 467.23441736 0 -853.10603215 0 21771
0.14250000 0.14249400 10941.48797182 0 43.69088667 0 3836.79994269 0 387.07168230 0 -911.81284671 0 22470
0.14350000 0.14350900 10900.11780720 0 119.91136669 0 3527.72155734 0 342.12017018 0 -179.97796200 0 22519
0.14450000 0.14449900 10845.70439497 0 -52.88970359 0 3317.70974312 0 187.73403602 0 -469.06557398 0 22218
0.14550000 0.14550500 10787.23160466 0 152.13018470 0 3104.52584658 0 192.24260758 0 -498.13116470 0 23559
0.14650000 0.14650700 10540.13082785 0 158.50651383 0 3157.86341270 0 25.46272631 0 -690.77860097 0 23044
0.14750000 0.14750500 10317.10903962 0 146.76980922 0 3183.18461534 0 -207.38320054 0 -356.95908258 0 23649
0.14850000 0.14849900 10259.33499471 0 126.39084394 0 3340.00304899 0 13.54257330 0 -482.88964185 0 23640
0.14950000 0.14949500 10076.69625457 0 123.79883122 0 3195.50693515 0 -195.49898301 0 -594.99724236 0 24457
0.15050000 0.15050000 9995.10940981 0 156.04981370 0 3526.93408235 0 244.50987320 0 -448.81304835 0 24591
0.15150000 0.15149900 9749.69449494 0 98.69645790 0 3116.09396500 0 431.83908054 0 -102.73498453 0 25020
0.15250000 0.15250500 9695.55836264 0 -23.67615630 0 2918.54865615 0 638.18858152 0 74.14198971 0 25297
0.15350000 0.15350100 9691.74299089 0 0.91624267 0 2794.87071898 0 415.46847384 0 169.44797962 0 25452
0.15450000 0.15450400 9453.57062762 0 178.73242058 0 2213.18180384 0 146.10211916 0 711.05663635 0 26061
0.15550000 0.15549900 9361.07004507 0 123.13003204 0 2336.49373151 0 -35.67572228 0 668.55849700 0 26128
0.15650000 0.15649500 9143.17238983 0 137.41549371 0 2245.25754541 0 -225.12135182 0 543.09598625 0 26331
0.15750000 0.15749700 9258.07719021 0 19.78658444 0 2589.15119799 0 34.83046216 0 386.20545981 0 27345
0.15850000 0.15849900 9106.56034870 0 -45.26805487 0 2333.92057381 0 99.83197464 0 537.44169404 0 26980
0.15950000 0.15949700 9261.72619401 0 -27.73542347 0 2168.73937766 0 115.41166808 0 216.22288451 0 27777
0.16050000 0.16050000 9294.11248910 0 145.70283607 0 2338.32377900 0 -134.96766654 0 447.66289122 0 28224
0.16150000 0.16150500 9140.71014411 0 115.92740874 0 2570.66217267 0 -36.60749374 0 402.35202433 0 28075
0.16250000 0.16249700 9035.49904985 0 116.79806770 0 2823.37509514 0 -95.43387141 0 472.36742331 0 28590
0.16350000 0.16349900 8923.23395434 0 170.80332388 0 2804.61988110 0 -53.82114231 0 718.08623698 0 29163
0.16450000 0.16449100 8703.45079562 0 130.41916667 0 3039.91962436 0 -34.24540152 0 591.24398132 0 28996
0.16550000 0.16550500 8597.40786160 0 109.15867307 0 3353.27921173 0 82.20052068 0 1007.15832128 0 30777
0.16650000 0.16650700 8477.27910745 0 119.29469614 0 2883.72229773 0 67.04040722 0 239.37686725 0 29211
0.16750000 0.16749900 8317.99842808 0 93.13721725 0 3080.61322596 0 47.54507761 0 961.84412703 0 30922
0.16850000 0.16850800 8202.31724391 0 88.83383284 0 2794.94835736 0 -182.60213920 0 105.79205115 0 30867
0.16950000 0.16949900 8159.11703179 0 61.09142191 0 2965.32023368 0 68.35415950 0 281.73969400 0 30852
0.17050000 0.17049200 8008.42093886 0 -20.67044193 0 2479.07106828 0 263.73091751 0 -190.46579783 0 31257
0.17150000 0.17149500 8162.31129651 0 32.16657848 0 2301.15717803 0 164.83847816 0 -109.77390176 0 32608
0.17250000 0.17250900 8030.00440812 0 63.95483623 0 2264.57841049 0 174.90928499 0 -327.82805380 0 32361
0.17350000 0.17350400 7898.44062992 0 106.92656968 0 2087.72927515 0 -30.62312751 0 -411.75403198 0 32508
0.17450000 0.17449800 7738.26156359 0 78.56460449 0 1938.75231775 0 32.81729900 0 -4.77734454 0 32791
0.17550000 0.17549800 7721.48058261 0 34.72953227 0 1992.41152858 0 127.87373698 0 -421.95238758 0 33633
0.17650000 0.17650100 7827.82297895 0 -32.27028117 0 1974.93180219 0 345.79690197 0 168.55735650 0 33984
0.17750000 0.17750300 7873.06397130 0 -67.48139321 0 1480.88552533 0 203.63548509 0 11.95830673 0 34069
0.17850000 0.17849800 7802.84560342 0 40.67308289 0 1704.01822553 0 51.26428868 0 435.44371955 0 34536
