### header ###
fiducial parameters:
Omega_m = 0.31
Omega_nu = 0
Omega_de = 0.69
Omega_k = 0
H_0 = 100
w_de = -1
zeff = 0
beta = 0
fgrowth = 0
b_1 = 2
gamma = 0.55
Lx = 3500 Ly = 3500 Lz = 3500
nx = 700 ny = 700 nz = 700
xoffset = 1379.75464 yoffset = 22.6059522 zoffset = 368.141391
bins = 400 dk = 0.001
kx_ny = 0.628318531 ky_ny = 0.628318531 kz_ny = 0.628318531
############################
A(data) = 3.39195579 (not used)
A(ran) = 3.40151758 (used)
Ngal = 190633
weighted Ngal = 0
Nran = 9399747
weighted Nran = 0
SN(data) = 6533.94024
SN(ran) = 135.296664
SN(data+ran) = 6669.2369
############################
13 columns: k_central k_mean P_0(k) sigma^{lin}_{P_0(k)} P^img_1(k) sigma^{lin}_{P_1(k)} P_2(k) sigma^{lin}_{P_2(k)} P^img_3(k) sigma^{lin}_{P_3(k)} P_4(k) sigma^{lin}_{P_4(k)} N_modes
### header ###
0.00050000 0 0 0 0 0 0 0 0 0 0 0 0
0.00150000 0.00179520 80963.29765870 0 -37033.06296224 0 -17825.21717534 0 75566.43213566 0 235277.56086265 0 3
0.00250000 0.00253879 73950.00109243 0 -23066.02955731 0 34214.45708179 0 -70134.96207815 0 -121845.67143378 0 6
0.00350000 0.00331552 97629.48475294 0 5804.10100138 0 9306.29062335 0 39812.62782943 0 36725.39315889 0 7
0.00450000 0.00420575 110566.14596138 0 10980.42916430 0 59289.98970217 0 -18831.74329839 0 -6287.52191157 0 24
0.00550000 0.00557378 89378.63243119 0 26195.52168822 0 101939.19115111 0 19783.81164442 0 76955.71546540 0 45
0.00650000 0.00659388 68071.88853381 0 11471.07044370 0 90683.17901624 0 86611.93335246 0 7250.44853942 0 40
0.00750000 0.00754703 67483.27871177 0 -7831.51634753 0 112694.32483181 0 57328.73334582 0 77201.94003765 0 57
0.00850000 0.00846663 74311.35228900 0 798.04267578 0 54409.41939708 0 63813.64528948 0 37518.30282872 0 75
0.00950000 0.00948925 75108.47661367 0 -866.50530718 0 53575.13956263 0 31797.46344283 0 65651.56753577 0 112
0.01050000 0.01054430 78561.83169547 0 1239.00870228 0 40915.53645396 0 361.91462938 0 56934.10855840 0 105
0.01150000 0.01145670 70459.82323676 0 914.70543088 0 29558.59442686 0 5491.00760273 0 27299.76125639 0 144
0.01250000 0.01249090 81015.53719632 0 -4709.06712669 0 31539.14946590 0 3289.12772859 0 21711.57258599 0 169
0.01350000 0.01339930 79876.13853383 0 -2171.76727443 0 34412.21312337 0 3457.65846621 0 336.35607513 0 180
0.01450000 0.01448870 83250.30246942 0 -1880.09097709 0 17347.51932278 0 7319.10304853 0 11159.96236930 0 267
0.01550000 0.01550050 91962.21584831 0 -824.55174560 0 26669.67035776 0 3400.91590263 0 -5460.41808155 0 238
0.01650000 0.01653350 88467.60151386 0 4488.97341444 0 15448.92822918 0 -750.78530382 0 13195.19700930 0 315
0.01750000 0.01747870 80285.29278925 0 4909.71797068 0 29002.25998794 0 3561.42770486 0 4009.22369045 0 297
0.01850000 0.01844180 75092.94893794 0 7387.31390976 0 47291.42193162 0 -12179.13245687 0 19920.34427886 0 388
0.01950000 0.01947590 68054.47535460 0 2502.51785862 0 36174.49340648 0 13598.80566625 0 1127.46453457 0 399
0.02050000 0.02045430 70854.00437630 0 -1335.36902137 0 43611.36278420 0 8000.39091227 0 14245.08971242 0 462
0.02150000 0.02154770 70351.68406651 0 -2099.55249110 0 31505.87587506 0 4272.00741974 0 17387.44763179 0 571
0.02250000 0.02255340 71249.29463553 0 1391.32410997 0 29658.30428743 0 11116.70670120 0 12370.89925211 0 510
0.02350000 0.02348930 73929.59329004 0 752.79946518 0 21363.41991379 0 3232.50716817 0 9043.49580285 0 555
0.02450000 0.02439640 66697.13467208 0 277.16013878 0 14092.58575438 0 8094.79918069 0 -50.42479598 0 592
0.02550000 0.02547300 67296.28113122 0 2849.79432627 0 23194.68744191 0 -5932.92525394 0 8378.02398596 0 837
0.02650000 0.02652900 61931.02551949 0 4425.24339678 0 15146.47128840 0 -1602.44504388 0 -3466.76433891 0 723
0.02750000 0.02749970 58506.84028566 0 2451.25434633 0 23894.87470525 0 4534.82442263 0 9236.70445369 0 826
0.02850000 0.02848090 56123.56388543 0 -277.15459318 0 15970.54722165 0 4402.75044937 0 -1669.41369106 0 831
0.02950000 0.02946900 55925.69693187 0 759.94330514 0 21288.44342242 0 3977.74687351 0 5934.17855919 0 996
0.03050000 0.03053250 55626.34552624 0 1337.49853118 0 20451.72352464 0 2545.64043236 0 9112.18358555 0 1041
0.03150000 0.03150510 52454.48502298 0 2099.86304462 0 18371.01497716 0 -1881.06700242 0 6467.99786831 0 1036
0.03250000 0.03246190 52602.99615012 0 765.78614769 0 24493.57751652 0 1771.02014630 0 15153.56965445 0 1059
0.03350000 0.03345080 50354.92144069 0 135.61982892 0 23084.66276818 0 -175.23092970 0 2938.16898355 0 1302
0.03450000 0.03451200 51921.22027371 0 1350.57505239 0 23039.85433251 0 227.54477835 0 11175.71186897 0 1339
0.03550000 0.03553350 50217.83424641 0 1529.90861584 0 26175.00297387 0 -3187.34381419 0 4474.31085208 0 1365
0.03650000 0.03647120 46939.38734048 0 1265.69412214 0 22577.79506765 0 3289.78210921 0 5265.13537688 0 1308
0.03750000 0.03744890 47755.03396405 0 1077.23915831 0 29482.28699186 0 -863.22564024 0 6050.00392892 0 1579
0.03850000 0.03847530 45850.34271214 0 1095.11816779 0 23025.76851239 0 2559.27151341 0 -1567.03085203 0 1662
0.03950000 0.03950240 44997.98422666 0 1154.33850478 0 25701.18704024 0 -156.68977577 0 -1432.88282494 0 1683
0.04050000 0.04050350 43022.08749034 0 310.06439276 0 22024.45525190 0 3339.27102999 0 -1795.89770105 0 1822
0.04150000 0.04152450 42042.40206390 0 -184.18596212 0 20406.47144110 0 3738.22138422 0 2882.19171256 0 1887
0.04250000 0.04250150 43715.50912354 0 380.49903898 0 17993.35972107 0 1996.80364257 0 -5359.94292839 0 1920
0.04350000 0.04349210 42915.39017570 0 955.59091019 0 19927.99720475 0 753.36067975 0 649.35519861 0 2005
0.04450000 0.04448520 40364.41487761 0 1807.39927229 0 17214.86860728 0 29.97928353 0 -2570.79526704 0 2151
0.04550000 0.04548030 37007.22047335 0 1576.66910217 0 18152.51839728 0 281.10195017 0 5545.70938608 0 2274
0.04650000 0.04648670 37476.93266411 0 -622.67865171 0 17269.88094414 0 4210.80619498 0 4765.26622162 0 2311
0.04750000 0.04749250 37195.21626162 0 189.33671398 0 17022.76907613 0 2356.69080115 0 2340.18710009 0 2568
0.04850000 0.04851840 38430.11012984 0 332.59615937 0 17384.89665649 0 234.21835155 0 5095.26260442 0 2493
0.04950000 0.04949480 37482.81099849 0 -189.93342038 0 14201.39039644 0 1148.47126159 0 2900.92474420 0 2644
0.05050000 0.05050630 37524.40298704 0 684.71171624 0 15500.05864711 0 -951.56924217 0 6195.40952091 0 2829
0.05150000 0.05149060 36636.44175937 0 -112.17303858 0 16910.63707499 0 -341.57559241 0 3932.31733081 0 2784
0.05250000 0.05249300 37841.94395567 0 78.67695832 0 14291.78365157 0 3987.58476520 0 3066.03939317 0 3055
0.05350000 0.05348950 36646.09110071 0 393.70532719 0 14440.51660265 0 -735.86542568 0 2577.27252606 0 3009
0.05450000 0.05448610 36860.92758560 0 141.03122391 0 13886.40040311 0 641.83203972 0 3307.13983243 0 3336
0.05550000 0.05550870 36639.99094239 0 798.69483816 0 14898.47212464 0 2190.12320538 0 3138.47600044 0 3349
0.05650000 0.05647670 35204.56823335 0 423.91109296 0 13568.30487464 0 -1394.16345639 0 2541.13740640 0 3324
0.05750000 0.05747970 34337.90210382 0 626.93767134 0 14112.77173283 0 -870.24525879 0 2055.69789837 0 3639
0.05850000 0.05849280 34883.14534579 0 309.08614919 0 15240.30281458 0 329.67362897 0 717.50949474 0 3846
0.05950000 0.05951020 33626.40181959 0 543.65498257 0 16333.11844989 0 700.05638722 0 961.34835052 0 3787
0.06050000 0.06049470 34729.42135609 0 -825.85274300 0 13788.46513406 0 1167.93631224 0 -650.05505314 0 3930
0.06150000 0.06148310 34634.25888628 0 -283.78491072 0 14662.34054161 0 1198.14873273 0 1968.21053684 0 4083
0.06250000 0.06249100 34875.27059596 0 534.97390272 0 12858.57918192 0 1747.12970807 0 1903.92595933 0 4303
0.06350000 0.06350600 34089.57020415 0 998.48611438 0 12831.07301349 0 -537.87425072 0 1617.81744285 0 4470
0.06450000 0.06451750 32112.67526010 0 1291.89152933 0 11639.54572534 0 5.56853507 0 1797.55028940 0 4479
0.06550000 0.06550280 31087.29410223 0 807.16740351 0 15416.09828621 0 879.05721476 0 2966.86191006 0 4636
0.06650000 0.06648880 30381.00668057 0 752.97137874 0 13832.27536201 0 371.77359435 0 4373.86897252 0 4653
0.06750000 0.06749660 29473.74677021 0 367.95267700 0 11977.82723226 0 2908.73294685 0 3015.21952875 0 5220
0.06850000 0.06852730 27923.75199669 0 736.13716001 0 12429.46077200 0 -1075.43683881 0 4073.90755105 0 5029
0.06950000 0.06949320 27513.71044552 0 660.23566281 0 11648.75141881 0 612.23628978 0 3494.71415522 0 5040
0.07050000 0.07048030 26551.99275814 0 633.91070686 0 14691.95403746 0 -448.55129610 0 4150.85827548 0 5475
0.07150000 0.07148790 26470.47246057 0 223.09277190 0 11928.91505372 0 1358.73817334 0 3331.86211043 0 5509
0.07250000 0.07249820 26704.16398027 0 -603.21803754 0 11394.98483263 0 2059.19162541 0 3873.89999648 0 5916
0.07350000 0.07351270 26693.51643120 0 9.39873575 0 12067.77683951 0 157.81331402 0 2647.19143162 0 5721
0.07450000 0.07449140 26788.45707707 0 665.41414267 0 10794.09705557 0 -368.19446509 0 2535.08161286 0 6028
0.07550000 0.07549160 25711.72367734 0 573.04221801 0 11881.22290684 0 315.67875666 0 5974.37305693 0 6183
0.07650000 0.07648840 25300.57300647 0 161.25158507 0 11981.70915120 0 234.41688398 0 4283.48680859 0 6330
0.07750000 0.07749960 25312.77332311 0 254.77477598 0 11467.07761280 0 1428.96763242 0 4644.54963404 0 6583
0.07850000 0.07848650 24743.35127179 0 309.76825781 0 12274.62766260 0 827.93677891 0 2688.01812758 0 6549
0.07950000 0.07947320 24037.06385013 0 736.12828705 0 10891.65522393 0 -946.60260418 0 3875.70786159 0 6828
0.08050000 0.08048110 23525.98149475 0 159.32171680 0 12047.14721319 0 -495.51364222 0 2664.42715167 0 7147
0.08150000 0.08149960 23842.74607959 0 -158.34790971 0 10437.79235361 0 452.89904530 0 2069.66171533 0 7386
0.08250000 0.08250610 23717.30464211 0 -32.49288149 0 10161.84337354 0 1076.82545667 0 -363.38532209 0 7227
0.08350000 0.08350160 23520.21407234 0 309.12829574 0 9538.79538497 0 -1007.04519107 0 -2239.86722369 0 7798
0.08450000 0.08449610 23292.40088702 0 260.27046407 0 9852.28806671 0 29.53408288 0 -771.46262229 0 7371
0.08550000 0.08548940 22602.97208472 0 464.98734086 0 10574.36935283 0 -320.04647002 0 -3196.50514287 0 8256
0.08650000 0.08650700 22395.56670179 0 290.52059462 0 8782.09847318 0 -270.25365044 0 -2611.82160455 0 8037
0.08750000 0.08749060 22066.26906440 0 50.45551860 0 10571.20836170 0 1116.68389114 0 -4476.81746259 0 8155
0.08850000 0.08849210 21482.87210492 0 565.13197634 0 9480.92151929 0 -106.40173424 0 -2739.27054868 0 8718
0.08950000 0.08949900 21192.94821669 0 469.61680646 0 9380.43527494 0 459.63140185 0 -2611.77723976 0 8571
0.09050000 0.09049190 20285.13374648 0 477.66236073 0 9430.34566121 0 971.57665235 0 -1623.28540295 0 8932
0.09150000 0.09150830 19952.06510213 0 99.14764779 0 8628.80704016 0 1233.99548126 0 -625.81413309 0 9285
0.09250000 0.09250820 19644.61712272 0 74.44034291 0 8189.50691143 0 2275.88034018 0 -260.31261061 0 9204
0.09350000 0.09350330 19434.77167646 0 288.93566258 0 7805.25239316 0 175.18101932 0 1151.17751365 0 9349
0.09450000 0.09448040 18862.24408999 0 279.73218735 0 5634.89370074 0 453.49242434 0 1037.93195633 0 9564
0.09550000 0.09549270 18334.74676314 0 331.94066963 0 7146.15801451 0 -223.27466753 0 1862.45597394 0 10155
0.09650000 0.09649430 17882.89139947 0 322.91021707 0 6009.27705373 0 288.20253446 0 277.33648881 0 9913
0.09750000 0.09749140 17520.32017123 0 209.40734398 0 6286.10223836 0 598.54642539 0 815.97603212 0 10476
0.09850000 0.09850240 17432.58880337 0 138.63996185 0 5693.78795654 0 -340.52747430 0 298.09920950 0 10575
0.09950000 0.09950330 16751.36748681 0 275.54969698 0 5050.68708389 0 685.68885069 0 -245.63341145 0 10882
0.10050000 0.10051200 16666.74165409 0 327.00508698 0 5760.59023576 0 -558.07353860 0 31.15694682 0 10875
0.10150000 0.10150300 16160.76124932 0 122.06971361 0 4852.63157998 0 121.25672888 0 -1278.82609933 0 11118
0.10250000 0.10250800 16637.46089415 0 -150.75487628 0 5763.88432125 0 866.50974366 0 825.28931020 0 11575
0.10350000 0.10349800 16204.68238923 0 -17.27653566 0 3773.19192819 0 -276.89505917 0 -1540.97763040 0 11364
0.10450000 0.10450100 16589.32509940 0 184.49873387 0 5571.80697250 0 184.04621304 0 81.85569537 0 12093
0.10550000 0.10551000 16268.23494774 0 307.96704742 0 5334.86573210 0 -747.77071649 0 -862.55573195 0 12067
0.10650000 0.10649700 15987.40584102 0 -54.91639801 0 5687.52143026 0 108.85433062 0 -420.48280398 0 12054
0.10750000 0.10749900 16209.78433983 0 182.42024357 0 5751.38454229 0 -464.15993756 0 -431.84684438 0 12807
0.10850000 0.10850100 15867.51000201 0 13.31276370 0 5820.56033765 0 341.24396563 0 -504.81693822 0 12736
0.10950000 0.10950300 16310.27058418 0 107.40326933 0 6491.01210198 0 302.08871304 0 -463.16172984 0 12933
0.11050000 0.11050200 16061.82777254 0 124.34008163 0 5840.05866189 0 -76.23378946 0 -638.27065638 0 13428
0.11150000 0.11150900 15894.79434650 0 95.59391738 0 6353.45907743 0 433.91978909 0 234.26604370 0 13453
0.11250000 0.11250000 15697.81468870 0 195.60989498 0 6147.93919798 0 -38.07885192 0 9.65035064 0 13668
0.11350000 0.11349100 15537.65780477 0 197.73275007 0 5930.16354590 0 559.90913170 0 918.09157330 0 13791
0.11450000 0.11448600 15492.18389728 0 62.09384429 0 6329.12499132 0 480.23773666 0 805.05674873 0 14205
0.11550000 0.11549300 15459.90851416 0 124.69499993 0 6250.24439863 0 32.67111703 0 1544.43808384 0 14776
0.11650000 0.11649800 15077.59495535 0 172.46367607 0 6347.79147579 0 -15.36452422 0 891.99953248 0 14553
0.11750000 0.11747300 15050.31061086 0 281.97482737 0 6385.54591020 0 -545.36857250 0 1436.37655198 0 14568
0.11850000 0.11849100 14602.33716612 0 183.48278023 0 6593.69440332 0 65.83457229 0 711.01005332 0 16015
0.11950000 0.11950300 14324.39177060 0 325.73625405 0 6721.96409603 0 173.30771615 0 693.06560578 0 15270
0.12050000 0.12050700 13968.03161265 0 283.15160337 0 6502.94622989 0 125.13421133 0 1384.97994532 0 15999
0.12150000 0.12150000 13806.43287312 0 154.77099869 0 6612.40525258 0 670.47505584 0 1250.06662564 0 15670
0.12250000 0.12250700 13270.17350067 0 213.91702466 0 6042.40645901 0 713.11072603 0 1805.42503923 0 16887
0.12350000 0.12352200 13265.40428598 0 165.83890413 0 5780.65421103 0 349.32168436 0 1628.29862397 0 16407
0.12450000 0.12449800 12806.33964430 0 239.16169803 0 5881.63955925 0 58.64392748 0 1736.53761499 0 16306
0.12550000 0.12549900 12588.28671229 0 169.21728272 0 5641.50405412 0 161.40242535 0 2421.45230013 0 17523
0.12650000 0.12650100 12390.08702283 0 13.06188082 0 5317.54128246 0 557.54781587 0 2571.41637407 0 17154
0.12750000 0.12750600 12527.83968893 0 -126.73799841 0 4308.26454257 0 1019.01702905 0 2954.79468778 0 18007
0.12850000 0.12850300 12870.00311478 0 -425.83652475 0 3993.29673163 0 1470.52634738 0 3259.00403767 0 17496
0.12950000 0.12949900 12873.55229780 0 -141.80982594 0 2990.13124126 0 518.16852110 0 2877.74414258 0 18405
0.13050000 0.13049000 13278.04825050 0 38.23080132 0 3204.13588637 0 30.99534808 0 3750.32188009 0 18100
0.13150000 0.13148800 12977.69863715 0 116.64500918 0 2529.65801756 0 -473.94126415 0 3110.17126583 0 19059
0.13250000 0.13249300 13135.63728169 0 125.03217232 0 3322.46786661 0 -234.31373585 0 2684.05857027 0 18957
0.13350000 0.13349100 12852.36811163 0 230.46730875 0 3657.85457113 0 -740.63907685 0 1850.31111328 0 19468
0.13450000 0.13450700 12439.66467319 0 409.21636612 0 3929.55562277 0 -575.33476841 0 1553.67705090 0 19953
0.13550000 0.13551000 12063.00762483 0 295.67578296 0 4700.27180751 0 -327.10823512 0 1703.39711850 0 19956
0.13650000 0.13649900 11827.98516149 0 270.66735209 0 4801.41243248 0 -186.95876136 0 664.82076363 0 19723
0.13750000 0.13749600 11614.47962024 0 103.19626741 0 4964.15356530 0 157.92755335 0 381.99413233 0 20946
0.13850000 0.13851100 11298.04777131 0 122.14735199 0 4890.03109609 0 -83.45537870 0 940.73425187 0 20955
0.13950000 0.13949800 11158.85324961 0 245.16647206 0 4835.28494796 0 237.76420722 0 621.68820782 0 20506
0.14050000 0.14048300 11249.80106458 0 -13.34415178 0 4512.24274564 0 627.36468242 0 1400.41889147 0 21447
0.14150000 0.14148400 10977.76727703 0 -165.32538171 0 3833.99386986 0 672.53358199 0 1012.76935781 0 21771
0.14250000 0.14249400 11225.51134327 0 8.70971732 0 3738.26574900 0 688.95077171 0 2164.84636754 0 22470
0.14350000 0.14350900 11142.77101403 0 88.36134785 0 3243.39872357 0 44.42867309 0 1451.49385342 0 22519
0.14450000 0.14449900 11247.91556110 0 57.82739356 0 3299.15417063 0 32.60590079 0 2375.55692716 0 22218
0.14550000 0.14550500 10875.35116441 0 56.98246618 0 3341.04562150 0 56.69553691 0 2340.56420079 0 23559
0.14650000 0.14650700 11030.91629281 0 55.72317168 0 3069.95458569 0 95.13108173 0 1613.05931936 0 23044
0.14750000 0.14750500 10885.71034236 0 157.94419014 0 3219.82993005 0 81.49567511 0 1584.34421046 0 23649
0.14850000 0.14849900 10516.98349982 0 282.22216107 0 3097.70476046 0 -99.06102554 0 1054.13397683 0 23640
0.14950000 0.14949500 10244.42842601 0 233.27116333 0 3221.75979832 0 0.10316998 0 2113.36103130 0 24457
0.15050000 0.15050000 9891.77272785 0 97.06250276 0 2898.72868721 0 417.14546282 0 1145.33245286 0 24591
0.15150000 0.15149900 9907.56659230 0 109.39103364 0 2937.04877266 0 246.87229815 0 1600.63717878 0 25020
0.15250000 0.15250500 9583.57054705 0 -11.25091018 0 2112.38500597 0 184.98120094 0 767.35666118 0 25297
0.15350000 0.15350100 9609.70140706 0 95.09669902 0 2351.56666816 0 48.43736440 0 1235.20442173 0 25452
0.15450000 0.15450400 9469.39776567 0 203.45691682 0 2219.23759737 0 -388.58452156 0 489.73401949 0 26061
0.15550000 0.15549900 9285.50572026 0 70.52049208 0 2443.36850530 0 -153.98796019 0 387.36338078 0 26128
0.15650000 0.15649500 9204.28488501 0 28.30639829 0 2487.00127409 0 -156.03317691 0 169.64429380 0 26331
0.15750000 0.15749700 9327.29735037 0 97.79629636 0 2833.22407803 0 -141.14768148 0 29.36782584 0 27345
0.15850000 0.15849900 9225.56889196 0 164.16746075 0 3003.32976562 0 -202.88461106 0 185.79418568 0 26980
0.15950000 0.15949700 9056.72760081 0 180.66894357 0 3404.46508565 0 -270.64516969 0 255.28497104 0 27777
0.16050000 0.16050000 8839.89470048 0 107.30744139 0 3694.41115627 0 73.78607320 0 403.95802965 0 28224
0.16150000 0.16150500 8786.54604315 0 161.81945435 0 4056.58310142 0 -96.69582779 0 108.14737773 0 28075
0.16250000 0.16249700 8691.25047898 0 104.37648168 0 3737.22317649 0 -115.68229329 0 -26.91622767 0 28590
0.16350000 0.16349900 8490.24471668 0 61.90573759 0 4030.58533577 0 105.25645725 0 341.07648855 0 29163
0.16450000 0.16449100 8515.73228727 0 89.42022442 0 3578.88524886 0 123.45833147 0 -95.21104926 0 28996
0.16550000 0.16550500 8444.87062997 0 10.02301486 0 3393.10769998 0 384.69816615 0 107.97357867 0 30777
0.16650000 0.16650700 8346.05915636 0 -62.70763113 0 3015.86281818 0 486.76490607 0 113.64151305 0 29211
0.16750000 0.16749900 8447.98725631 0 37.14563861 0 2722.44520291 0 242.16297593 0 7.55799634 0 30922
0.16850000 0.16850800 8323.78803288 0 47.89533761 0 2555.25650011 0 164.89947975 0 113.03260634 0 30867
0.16950000 0.16949900 8272.59106777 0 73.12159959 0 2407.65485113 0 -31.25244202 0 451.92412909 0 30852
0.17050000 0.17049200 8163.07658910 0 43.65583848 0 2607.25203141 0 -125.85624825 0 73.26711610 0 31257
0.17150000 0.17149500 8270.13991325 0 24.61125512 0 2456.17883777 0 23.49503706 0 -31.21528652 0 32608
0.17250000 0.17250900 8255.03370300 0 -86.62868106 0 2487.62238112 0 199.14244121 0 50.60236604 0 32361
0.17350000 0.17350400 8371.91273644 0 16.52710348 0 2472.02815821 0 78.55672974 0 27.96700766 0 32508
0.17450000 0.17449800 8292.71049903 0 147.37982505 0 2451.68690301 0 75.54979534 0 239.01085776 0 32791
0.17550000 0.17549800 8139.98471706 0 109.46423554 0 2402.26452941 0 72.16121285 0 378.80319497 0 33633
0.17650000 0.17650100 8018.96866716 0 29.47186127 0 2374.22598352 0 403.52880033 0 812.27046322 0 33984
0.17750000 0.17750300 7928.02085218 0 82.17911467 0 2019.42968435 0 114.48444402 0 544.75966579 0 34069
0.17850000 0.17849800 7944.76855957 0 106.07321299 0 2150.11725799 0 109.28466907 0 1010.85390810 0 34536
