### header ###
fiducial parameters:
Omega_m = 0.31
Omega_nu = 0
Omega_de = 0.69
Omega_k = 0
H_0 = 100
w_de = -1
zeff = 0
beta = 0
fgrowth = 0
b_1 = 2
gamma = 0.55
Lx = 3500 Ly = 3500 Lz = 3500
nx = 700 ny = 700 nz = 700
xoffset = 1379.75464 yoffset = 22.6059522 zoffset = 368.141391
bins = 400 dk = 0.001
kx_ny = 0.628318531 ky_ny = 0.628318531 kz_ny = 0.628318531
############################
A(data) = 3.32897646 (not used)
A(ran) = 3.33637119 (used)
Ngal = 187670
weighted Ngal = 0
Nran = 9399747
weighted Nran = 0
SN(data) = 6639.26419
SN(ran) = 132.705441
SN(data+ran) = 6771.96963
############################
13 columns: k_central k_mean P_0(k) sigma^{lin}_{P_0(k)} P^img_1(k) sigma^{lin}_{P_1(k)} P_2(k) sigma^{lin}_{P_2(k)} P^img_3(k) sigma^{lin}_{P_3(k)} P_4(k) sigma^{lin}_{P_4(k)} N_modes
### header ###
0.00050000 0 0 0 0 0 0 0 0 0 0 0 0
0.00150000 0.00179520 42861.04331065 0 -37960.39793908 0 -27234.54501833 0 32652.81655148 0 83551.53937853 0 3
0.00250000 0.00253879 71348.33902428 0 -32938.52578486 0 -11869.79897399 0 -59272.13287509 0 -48347.19296912 0 6
0.00350000 0.00331552 88613.78348964 0 -13466.26586271 0 -55816.89228981 0 33972.33625241 0 99272.20193294 0 7
0.00450000 0.00420575 106983.13478726 0 -5930.06372512 0 -14179.54073846 0 -55871.57189076 0 -5304.47585246 0 24
0.00550000 0.00557378 106900.83810590 0 11204.77080497 0 30403.85454628 0 -33605.43945736 0 19270.84378557 0 45
0.00650000 0.00659388 84538.87773086 0 16037.87078713 0 -21281.45596834 0 38352.13901529 0 -32677.99356855 0 40
0.00750000 0.00754703 81462.62334531 0 4992.46939111 0 56907.60059770 0 -7729.94316588 0 73132.02531750 0 57
0.00850000 0.00846663 74236.15397369 0 1870.17544702 0 12830.18571773 0 59875.05034119 0 1986.22264068 0 75
0.00950000 0.00948925 92378.46846978 0 -10178.65762811 0 39030.58753261 0 50862.12187713 0 70690.18739737 0 112
0.01050000 0.01054430 83303.54021477 0 -3995.80334214 0 -9614.91426963 0 10499.52595582 0 37713.39698304 0 105
0.01150000 0.01145670 91476.53233395 0 3034.22984032 0 -9686.57449311 0 10644.83172704 0 52023.48110958 0 144
0.01250000 0.01249090 81049.14352308 0 10032.16509882 0 13207.95188579 0 -21603.21159181 0 30244.91769402 0 169
0.01350000 0.01339930 77787.22250060 0 11680.69406602 0 24666.82201285 0 -12162.82839736 0 45283.58254808 0 180
0.01450000 0.01448870 57278.60113561 0 3766.20447412 0 24000.24107626 0 12966.27470429 0 27997.50845640 0 267
0.01550000 0.01550050 64193.74060889 0 -7244.17092194 0 8945.12797712 0 1915.59389852 0 7869.18205237 0 238
0.01650000 0.01653350 68716.28707650 0 -5728.47012939 0 6189.28718020 0 23549.16209637 0 15621.28542975 0 315
0.01750000 0.01747870 74376.56852706 0 -911.72189890 0 -566.93096849 0 4018.97285257 0 20173.22356927 0 297
0.01850000 0.01844180 72254.60072692 0 944.75148341 0 -901.38933982 0 -6627.97729309 0 12573.75724429 0 388
0.01950000 0.01947590 73464.98304988 0 1681.49200453 0 5706.90884253 0 -7581.62058909 0 2885.47470685 0 399
0.02050000 0.02045430 69295.13664523 0 1951.76229177 0 5227.78022556 0 -8906.45297336 0 -2493.44525952 0 462
0.02150000 0.02154770 71572.15937870 0 -371.23899865 0 12743.45255760 0 493.38191416 0 -4612.22988613 0 571
0.02250000 0.02255340 73923.04948384 0 -2440.45152050 0 23188.36545965 0 -11124.24871513 0 2685.75552341 0 510
0.02350000 0.02348930 73689.80161202 0 366.04720936 0 8367.21006894 0 6531.82770675 0 -14143.27252443 0 555
0.02450000 0.02439640 78360.97011873 0 196.91754710 0 27429.75008462 0 -1215.57300313 0 -8499.91624042 0 592
0.02550000 0.02547300 71842.00820045 0 3082.31017909 0 18589.51155704 0 -1976.21838104 0 3378.81114711 0 837
0.02650000 0.02652900 76056.99577668 0 219.02230262 0 29077.90195112 0 5355.67281757 0 2395.21052815 0 723
0.02750000 0.02749970 67255.02187857 0 1612.00565565 0 22779.21120423 0 -2369.29040088 0 -4252.25399798 0 826
0.02850000 0.02848090 71142.59732089 0 3824.52198767 0 28231.53271201 0 -2737.97287864 0 -289.40482021 0 831
0.02950000 0.02946900 64963.46967710 0 2335.67298293 0 27993.18288959 0 -3275.82938345 0 -5432.66790678 0 996
0.03050000 0.03053250 60917.51194236 0 2190.72213002 0 34184.06720215 0 355.88545472 0 -9375.47750991 0 1041
0.03150000 0.03150510 59993.39341263 0 3568.90317161 0 25514.96584348 0 -3216.96840124 0 -21250.06788098 0 1036
0.03250000 0.03246190 54937.36037181 0 544.86170480 0 26539.34879362 0 2089.37077230 0 -11717.96048777 0 1059
0.03350000 0.03345080 52492.08418064 0 710.51649506 0 21453.48043301 0 8723.44822372 0 -13667.46017536 0 1302
0.03450000 0.03451200 54120.05006870 0 -1387.36455266 0 15141.25842584 0 11725.05885381 0 -5726.64008190 0 1339
0.03550000 0.03553350 53176.85468022 0 -1384.32556470 0 6350.76391657 0 7521.47302804 0 -9853.11990648 0 1365
0.03650000 0.03647120 53793.96887842 0 1727.20991835 0 2661.43252850 0 1767.14931856 0 2598.70071856 0 1308
0.03750000 0.03744890 50788.03268151 0 -244.97126700 0 -882.44668455 0 1752.09856430 0 575.52664612 0 1579
0.03850000 0.03847530 51789.45685397 0 1266.19322600 0 1555.72892234 0 -1340.39333359 0 3753.32759446 0 1662
0.03950000 0.03950240 49986.13914216 0 2064.92577423 0 1644.33649476 0 -4276.03352424 0 641.43830223 0 1683
0.04050000 0.04050350 46626.61558654 0 3185.93523218 0 12291.15354605 0 -5859.44607416 0 -1711.19422996 0 1822
0.04150000 0.04152450 45733.99605615 0 1722.17451494 0 17939.34559193 0 -1931.03284467 0 9485.76837236 0 1887
0.04250000 0.04250150 42930.25237961 0 286.92704681 0 21069.17045875 0 -367.40809923 0 3064.55317278 0 1920
0.04350000 0.04349210 45276.70600597 0 319.81355488 0 19196.53276601 0 3451.65812867 0 9715.01232208 0 2005
0.04450000 0.04448520 43368.02192315 0 367.62881405 0 26500.52960430 0 1236.03626150 0 11069.44711101 0 2151
0.04550000 0.04548030 44778.04579118 0 927.91837380 0 24627.89191156 0 471.44352660 0 14974.89047161 0 2274
0.04650000 0.04648670 42580.10329195 0 977.33409268 0 27620.74049607 0 -225.40417734 0 12664.81597124 0 2311
0.04750000 0.04749250 42400.20407745 0 1377.08301309 0 30977.26942851 0 -1804.62647305 0 12822.75461578 0 2568
0.04850000 0.04851840 39207.27030000 0 2124.16385713 0 28704.01770200 0 -850.68704209 0 9104.67484522 0 2493
0.04950000 0.04949480 39821.83352290 0 1308.39523039 0 32925.43817246 0 -387.57300440 0 10665.99373082 0 2644
0.05050000 0.05050630 36699.99431788 0 454.57714340 0 28169.75474500 0 4269.07934375 0 6219.31105034 0 2829
0.05150000 0.05149060 36594.73885884 0 216.82735474 0 27887.92743055 0 4564.67083362 0 6509.42348891 0 2784
0.05250000 0.05249300 35583.44352110 0 357.42269461 0 25466.05366494 0 2920.56725400 0 6890.58356323 0 3055
0.05350000 0.05348950 35219.54134923 0 153.75948153 0 20981.32817892 0 2338.51232935 0 5681.31035997 0 3009
0.05450000 0.05448610 35144.56485786 0 -26.94051739 0 20187.19847743 0 2414.37611648 0 6312.61019907 0 3336
0.05550000 0.05550870 33724.00435274 0 455.14168533 0 15910.32202223 0 -158.29023549 0 1713.72302286 0 3349
0.05650000 0.05647670 34720.99204641 0 219.42380394 0 18588.51334931 0 2160.49861833 0 4632.67096211 0 3324
0.05750000 0.05747970 32626.41950274 0 879.90458221 0 13612.55875046 0 -398.52777962 0 470.87232996 0 3639
0.05850000 0.05849280 33101.34455606 0 456.50479343 0 17644.54157705 0 579.06141059 0 3184.73738291 0 3846
0.05950000 0.05951020 31608.02579895 0 534.59680202 0 15504.71694983 0 -248.80105730 0 490.06786452 0 3787
0.06050000 0.06049470 31912.03550730 0 784.70329321 0 18401.62668074 0 -949.62606447 0 -392.12261339 0 3930
0.06150000 0.06148310 30194.78548381 0 424.08411563 0 17408.74272993 0 173.48295707 0 105.32843911 0 4083
0.06250000 0.06249100 30318.00868191 0 -82.82428959 0 17578.54895521 0 1946.03923414 0 1134.35216788 0 4303
0.06350000 0.06350600 31326.30939647 0 -484.49675629 0 16213.55534679 0 2418.14712344 0 1679.28485634 0 4470
0.06450000 0.06451750 30717.40268401 0 208.10080098 0 15531.66855841 0 1222.71573397 0 -312.57987623 0 4479
0.06550000 0.06550280 31404.94598283 0 464.19099292 0 14730.99505072 0 991.31565556 0 2910.04170809 0 4636
0.06650000 0.06648880 29622.81245719 0 161.02643377 0 13624.31541923 0 -135.94923747 0 333.88939293 0 4653
0.06750000 0.06749660 30104.39222868 0 319.84128287 0 13339.16074569 0 1136.02693862 0 1681.93565241 0 5220
0.06850000 0.06852730 29546.72684613 0 120.47369037 0 12301.80109512 0 717.46845731 0 1534.96620165 0 5029
0.06950000 0.06949320 29241.49710611 0 167.67560634 0 10329.69754815 0 1936.22352484 0 15.35509670 0 5040
0.07050000 0.07048030 28823.46989313 0 -258.31175868 0 9495.67281124 0 1775.93354655 0 3306.29690146 0 5475
0.07150000 0.07148790 29142.11998145 0 -211.56458179 0 8630.60381406 0 1519.64925866 0 969.17651733 0 5509
0.07250000 0.07249820 28778.55054549 0 371.02604767 0 8371.01434949 0 -410.66709468 0 2109.13528526 0 5916
0.07350000 0.07351270 28390.35865230 0 717.19228650 0 8524.11723216 0 -1651.95614706 0 -140.12950960 0 5721
0.07450000 0.07449140 27749.84202854 0 703.47247588 0 10019.27712796 0 -764.50400532 0 1358.22797828 0 6028
0.07550000 0.07549160 27022.59224465 0 601.14287459 0 10732.38563575 0 -916.66080890 0 -266.86639889 0 6183
0.07650000 0.07648840 26679.09787516 0 383.22525519 0 11557.24904399 0 68.10571668 0 -468.23373420 0 6330
0.07750000 0.07749960 26556.98379676 0 -10.65891755 0 10918.77320047 0 939.06835409 0 -564.93898952 0 6583
0.07850000 0.07848650 25680.00285407 0 257.85147401 0 10920.23723846 0 433.36633836 0 -814.17149438 0 6549
0.07950000 0.07947320 25878.97892732 0 770.61747308 0 10397.53130869 0 407.28095226 0 -719.54251114 0 6828
0.08050000 0.08048110 24617.79892234 0 533.00965174 0 10915.33492941 0 -363.99090145 0 -1990.73675784 0 7147
0.08150000 0.08149960 23864.59573758 0 542.01570366 0 10039.19691768 0 -403.61752990 0 -1583.05763162 0 7386
0.08250000 0.08250610 23610.71823944 0 205.00413879 0 10782.88385546 0 630.52123707 0 -3377.43583869 0 7227
0.08350000 0.08350160 22637.35479526 0 391.41721326 0 8933.88150341 0 203.56561055 0 -3461.37401719 0 7798
0.08450000 0.08449610 21985.52515061 0 335.61961965 0 8567.29526188 0 768.03766067 0 -2975.90123557 0 7371
0.08550000 0.08548940 21830.35930531 0 -32.08494727 0 7562.97628702 0 870.16318393 0 -4236.33813036 0 8256
0.08650000 0.08650700 21828.80653774 0 95.96081417 0 7302.12242600 0 1535.99768297 0 -3124.73400742 0 8037
0.08750000 0.08749060 21575.15086353 0 215.59623188 0 5685.52501481 0 666.00530347 0 -3192.81177429 0 8155
0.08850000 0.08849210 21012.49444235 0 333.39028907 0 5860.73265300 0 224.21963751 0 -1552.37938086 0 8718
0.08950000 0.08949900 20826.71689346 0 375.82409947 0 5568.30215426 0 275.51420515 0 -1457.11709027 0 8571
0.09050000 0.09049190 20334.82230881 0 327.35445969 0 6155.09302001 0 -222.42508184 0 -772.29113470 0 8932
0.09150000 0.09150830 19830.28375964 0 688.01578381 0 6275.21068296 0 -522.83126030 0 -1043.38106139 0 9285
0.09250000 0.09250820 18975.04156296 0 539.20741260 0 8134.78294569 0 -1018.63327364 0 -391.68007463 0 9204
0.09350000 0.09350330 18358.48192461 0 644.73904244 0 8480.10736267 0 27.49840459 0 43.40096278 0 9349
0.09450000 0.09448040 17768.09751105 0 377.96470048 0 8796.88303871 0 680.08335975 0 -575.45011686 0 9564
0.09550000 0.09549270 17148.65416149 0 49.33841324 0 8617.84893757 0 200.61202480 0 537.08344838 0 10155
0.09650000 0.09649430 17504.23793565 0 -18.69975805 0 7232.40316198 0 1912.51054577 0 752.92701395 0 9913
0.09750000 0.09749140 17205.99564972 0 -204.24771916 0 6978.39256947 0 1147.98324893 0 2136.97418960 0 10476
0.09850000 0.09850240 17450.44563046 0 9.84189562 0 5222.72263975 0 949.82016041 0 1715.60852634 0 10575
0.09950000 0.09950330 16915.51720164 0 308.70793938 0 5030.44564946 0 319.12479155 0 1740.25316596 0 10882
0.10050000 0.10051200 16502.03737941 0 549.79285096 0 5170.99329719 0 -600.71253615 0 2143.81745812 0 10875
0.10150000 0.10150300 15864.18264292 0 185.72098378 0 4600.43994377 0 507.17825405 0 1479.86513521 0 11118
0.10250000 0.10250800 15953.02313048 0 -103.50693184 0 4134.43221280 0 501.35537565 0 1697.46332814 0 11575
0.10350000 0.10349800 16098.31781050 0 -98.73305885 0 4880.22647799 0 32.07696161 0 658.59083831 0 11364
0.10450000 0.10450100 15853.31326991 0 322.79597774 0 4805.57163133 0 -556.72706729 0 625.82411516 0 12093
0.10550000 0.10551000 15470.55606323 0 472.35744123 0 4986.54669194 0 -919.32158705 0 250.24624026 0 12067
0.10650000 0.10649700 15291.32232055 0 64.40580429 0 6147.40682052 0 -758.99611692 0 102.10689005 0 12054
0.10750000 0.10749900 15474.43798216 0 -236.34342489 0 5640.29511366 0 388.81410934 0 -879.28236606 0 12807
0.10850000 0.10850100 15528.67393524 0 -62.78172033 0 6164.75345255 0 610.59257439 0 -729.20848928 0 12736
0.10950000 0.10950300 15800.63008441 0 -52.57127533 0 4960.04982243 0 408.88584845 0 -584.54711660 0 12933
0.11050000 0.11050200 15635.26033791 0 357.55246162 0 5439.89936719 0 -87.86368584 0 -791.86598820 0 13428
0.11150000 0.11150900 15402.45611397 0 464.36068823 0 5282.43764412 0 -673.51515292 0 -664.28616794 0 13453
0.11250000 0.11250000 14583.37121934 0 370.24411829 0 6114.95397825 0 -161.19723821 0 -1210.67069408 0 13668
0.11350000 0.11349100 14357.55444947 0 164.77858570 0 5792.86561887 0 401.74644498 0 -40.40201404 0 13791
0.11450000 0.11448600 14135.73051051 0 -88.84936051 0 5640.84967350 0 699.29885847 0 -814.24247804 0 14205
0.11550000 0.11549300 14253.74084604 0 6.96823303 0 5334.87682329 0 980.68585240 0 83.77558156 0 14776
0.11650000 0.11649800 14398.59187818 0 -224.52464542 0 4058.86788799 0 816.01706955 0 465.46537145 0 14553
0.11750000 0.11747300 14357.33262554 0 63.50775008 0 3915.28125230 0 211.47030661 0 782.26433900 0 14568
0.11850000 0.11849100 14335.59387952 0 212.59273574 0 4050.58276387 0 -118.91648632 0 1480.12023274 0 16015
0.11950000 0.11950300 14212.81432930 0 122.73296719 0 4123.91775809 0 156.23725493 0 919.59664873 0 15270
0.12050000 0.12050700 13956.71859177 0 275.88797849 0 4344.89876609 0 -188.02795274 0 1562.25054614 0 15999
0.12150000 0.12150000 13612.89148637 0 203.17963689 0 4346.28516571 0 83.94084039 0 838.51223520 0 15670
0.12250000 0.12250700 13176.67471040 0 234.17065941 0 5136.95441375 0 -342.02700413 0 1842.63600499 0 16887
0.12350000 0.12352200 13237.67629361 0 126.05256244 0 4873.49412144 0 113.83006340 0 1126.77688036 0 16407
0.12450000 0.12449800 13249.43296238 0 -105.75478473 0 5153.31392925 0 285.96433092 0 1091.01220668 0 16306
0.12550000 0.12549900 13305.22168303 0 89.96424763 0 4556.07515598 0 -107.09415767 0 904.69895299 0 17523
0.12650000 0.12650100 13240.56000482 0 -73.33987435 0 4609.87855238 0 533.16714674 0 1524.06355505 0 17154
0.12750000 0.12750600 13215.82663562 0 184.82148771 0 4219.73460853 0 110.52521944 0 886.78777904 0 18007
0.12850000 0.12850300 12978.03137305 0 123.43836732 0 4022.56640038 0 242.30827061 0 1025.65843779 0 17496
0.12950000 0.12949900 12660.04675655 0 124.80147542 0 3837.42104972 0 197.01404051 0 854.85955038 0 18405
0.13050000 0.13049000 12644.74090476 0 185.62559948 0 3893.29849995 0 217.22109223 0 865.85758128 0 18100
0.13150000 0.13148800 12514.41934062 0 35.20734103 0 3385.56568605 0 372.65201714 0 580.77389140 0 19059
0.13250000 0.13249300 12160.27742206 0 143.12413278 0 3445.51360556 0 161.18392877 0 1000.31505276 0 18957
0.13350000 0.13349100 12045.92718153 0 122.82835148 0 3091.18313665 0 -207.75808299 0 680.73995861 0 19468
0.13450000 0.13450700 12011.54447099 0 158.56086069 0 3409.72231300 0 248.00803672 0 914.09652416 0 19953
0.13550000 0.13551000 11635.88563035 0 233.20461615 0 3360.42194257 0 -114.47889842 0 591.48244205 0 19956
0.13650000 0.13649900 11602.27930360 0 206.05003866 0 3717.00392445 0 -119.57752166 0 1206.26748889 0 19723
0.13750000 0.13749600 11299.26780297 0 225.46739716 0 3550.71360861 0 9.40514646 0 644.62591223 0 20946
0.13850000 0.13851100 10953.07827263 0 204.83887996 0 4117.91742054 0 0.91204909 0 1827.85143946 0 20955
0.13950000 0.13949800 10805.95354511 0 116.52966074 0 3942.01103694 0 347.94970330 0 1523.48681281 0 20506
0.14050000 0.14048300 10962.42815165 0 -64.11410581 0 3672.67241025 0 719.31625072 0 2290.29889622 0 21447
0.14150000 0.14148400 10623.38135214 0 25.62598872 0 3346.69104075 0 317.53098655 0 1874.36791946 0 21771
0.14250000 0.14249400 10654.58088916 0 137.07610308 0 3321.18128777 0 213.05523866 0 2459.89438875 0 22470
0.14350000 0.14350900 10535.60561950 0 15.35021658 0 2542.71235636 0 378.08448541 0 2172.86530293 0 22519
0.14450000 0.14449900 10505.02718951 0 -49.72227957 0 2611.35577428 0 151.81741295 0 1992.64444372 0 22218
0.14550000 0.14550500 10526.52192919 0 122.94259081 0 2702.82487551 0 -365.06785667 0 1676.86697540 0 23559
0.14650000 0.14650700 10338.32649938 0 183.55487301 0 2519.46520756 0 -277.52725740 0 823.46369918 0 23044
0.14750000 0.14750500 10275.02903839 0 45.00375165 0 2666.10192241 0 -554.06296179 0 888.06770317 0 23649
0.14850000 0.14849900 10122.51398916 0 75.58462170 0 2994.72299679 0 -200.63753455 0 -223.66064118 0 23640
0.14950000 0.14949500 10205.33195677 0 104.00903033 0 3149.58937978 0 -264.73910732 0 -697.47213833 0 24457
0.15050000 0.15050000 10028.54936861 0 158.21370623 0 3094.01139187 0 -336.81857804 0 -1207.50970295 0 24591
0.15150000 0.15149900 9933.39798999 0 76.15448740 0 3562.41482139 0 -63.78946648 0 -897.17468498 0 25020
0.15250000 0.15250500 9880.37097739 0 76.89704303 0 3372.98826871 0 106.58839909 0 -1016.80100790 0 25297
0.15350000 0.15350100 9969.59965683 0 -83.09258565 0 3417.17559735 0 651.07211590 0 -688.18104264 0 25452
0.15450000 0.15450400 9867.28336499 0 -8.04654138 0 2921.60982651 0 166.75060052 0 -424.19835496 0 26061
0.15550000 0.15549900 9943.47988802 0 71.59877825 0 2870.21321985 0 307.53338162 0 -509.38872960 0 26128
0.15650000 0.15649500 9696.26819924 0 120.64560392 0 2786.25285895 0 65.01593104 0 -68.13677204 0 26331
0.15750000 0.15749700 9615.61301503 0 177.48798828 0 2717.70926181 0 3.57731030 0 369.46329802 0 27345
0.15850000 0.15849900 9468.08900443 0 62.62078706 0 2669.86183818 0 316.23220739 0 410.71811419 0 26980
0.15950000 0.15949700 9490.72613740 0 22.66186634 0 2245.82319645 0 269.86878590 0 92.74137243 0 27777
0.16050000 0.16050000 9230.26046827 0 117.24282470 0 2697.85601928 0 62.37134604 0 157.49056019 0 28224
0.16150000 0.16150500 9270.93188747 0 141.76767939 0 2248.08580063 0 -228.23908728 0 64.69062623 0 28075
0.16250000 0.16249700 8984.12462559 0 142.05605051 0 2623.12353424 0 -37.24789945 0 15.16255352 0 28590
0.16350000 0.16349900 8951.15049706 0 90.62395202 0 2110.35531693 0 -118.12568398 0 -177.54677163 0 29163
0.16450000 0.16449100 8688.53313572 0 96.30464128 0 2658.10516941 0 165.57937012 0 -570.58108140 0 28996
0.16550000 0.16550500 8623.47217442 0 107.90814061 0 2205.75070188 0 163.25465524 0 -238.59826523 0 30777
0.16650000 0.16650700 8453.11138930 0 174.95143154 0 2198.82979499 0 198.68659301 0 -387.44101915 0 29211
0.16750000 0.16749900 8228.22627998 0 149.14221624 0 1976.62875532 0 136.92526280 0 -6.76502012 0 30922
0.16850000 0.16850800 8033.94178304 0 31.37943623 0 2063.23991229 0 280.92560014 0 286.80282541 0 30867
0.16950000 0.16949900 8009.79624728 0 46.48653377 0 1667.84983229 0 134.09589846 0 96.13949335 0 30852
0.17050000 0.17049200 7966.65149115 0 51.14228551 0 1679.07412360 0 35.93825091 0 294.66426580 0 31257
0.17150000 0.17149500 7995.64387997 0 -10.54948071 0 1646.84310527 0 -42.93590889 0 365.96069802 0 32608
0.17250000 0.17250900 7962.93594017 0 -3.94407400 0 1674.48236806 0 -2.24689904 0 321.47945266 0 32361
0.17350000 0.17350400 8149.71169678 0 -36.40740854 0 1746.78588097 0 17.43769075 0 44.97247447 0 32508
0.17450000 0.17449800 8164.87336301 0 37.72071717 0 1906.76530575 0 -44.52206097 0 265.64193075 0 32791
0.17550000 0.17549800 8174.16778605 0 15.52778664 0 1950.80844883 0 -88.05345622 0 337.26777152 0 33633
0.17650000 0.17650100 8184.63787597 0 97.75381707 0 2040.15913144 0 27.47744223 0 169.47459849 0 33984
0.17750000 0.17750300 8181.28833449 0 -5.53441855 0 2057.67213143 0 17.86448001 0 362.34496782 0 34069
0.17850000 0.17849800 7998.76050632 0 48.99392066 0 2272.83026102 0 64.15181588 0 540.65814116 0 34536
