### header ###
fiducial parameters:
Omega_m = 0.31
Omega_nu = 0
Omega_de = 0.69
Omega_k = 0
H_0 = 100
w_de = -1
zeff = 0
beta = 0
fgrowth = 0
b_1 = 2
gamma = 0.55
Lx = 3500 Ly = 3500 Lz = 3500
nx = 700 ny = 700 nz = 700
xoffset = 1379.75464 yoffset = 22.6059522 zoffset = 368.141391
bins = 400 dk = 0.001
kx_ny = 0.628318531 ky_ny = 0.628318531 kz_ny = 0.628318531
############################
A(data) = 3.32564904 (not used)
A(ran) = 3.32399123 (used)
Ngal = 186831
weighted Ngal = 0
Nran = 9399747
weighted Nran = 0
SN(data) = 6641.46537
SN(ran) = 132.213024
SN(data+ran) = 6773.67839
############################
13 columns: k_central k_mean P_0(k) sigma^{lin}_{P_0(k)} P^img_1(k) sigma^{lin}_{P_1(k)} P_2(k) sigma^{lin}_{P_2(k)} P^img_3(k) sigma^{lin}_{P_3(k)} P_4(k) sigma^{lin}_{P_4(k)} N_modes
### header ###
0.00050000 0 0 0 0 0 0 0 0 0 0 0 0
0.00150000 0.00179520 50788.91997727 0 -41464.10705502 0 -62785.60224435 0 68377.67283367 0 -49536.28019394 0 3
0.00250000 0.00253879 85700.01513937 0 -34667.19974121 0 -7755.81892836 0 -79368.93809739 0 31805.22728069 0 6
0.00350000 0.00331552 77426.64768782 0 8426.71434056 0 -17017.66712554 0 -60486.39711698 0 19013.30619243 0 7
0.00450000 0.00420575 72130.04658519 0 21742.07337760 0 -3195.80639746 0 -49417.27165068 0 30918.37517271 0 24
0.00550000 0.00557378 54674.49900414 0 -3246.94790659 0 6512.98376313 0 15704.35849490 0 14923.76005368 0 45
0.00650000 0.00659388 56788.37023050 0 -6815.58488947 0 -16204.57147726 0 29814.57925243 0 -42955.98395653 0 40
0.00750000 0.00754703 66734.84474170 0 -5620.22004718 0 -18730.92431813 0 -10046.88311717 0 -1692.19500959 0 57
0.00850000 0.00846663 60195.03137315 0 8578.04263172 0 -4343.45691048 0 -17827.32450276 0 -20778.35927477 0 75
0.00950000 0.00948925 63517.62124293 0 1962.21019929 0 10533.59811285 0 -14897.36300494 0 -1319.84134564 0 112
0.01050000 0.01054430 55586.74995313 0 6740.02056466 0 8738.89826106 0 -9193.36005602 0 -27368.19394156 0 105
0.01150000 0.01145670 51307.54434657 0 4255.29298594 0 16896.99490274 0 -9670.02642726 0 -3486.26266314 0 144
0.01250000 0.01249090 47561.71440125 0 2349.42606715 0 23938.90675714 0 6000.40409617 0 -11503.56765076 0 169
0.01350000 0.01339930 52440.17737892 0 -1043.51637399 0 29687.47413540 0 13463.93671136 0 -14089.03657136 0 180
0.01450000 0.01448870 53587.78352715 0 -5862.38524135 0 17801.37110190 0 8786.33531041 0 -4132.35815897 0 267
0.01550000 0.01550050 55024.42626786 0 -1888.06554769 0 5053.17151200 0 -828.38375415 0 -18985.91093597 0 238
0.01650000 0.01653350 61268.99197365 0 249.88133988 0 9738.44802124 0 -5465.78622087 0 -5494.16859386 0 315
0.01750000 0.01747870 65506.60559165 0 -857.06448034 0 4348.13739560 0 4410.51428723 0 -15840.55839342 0 297
0.01850000 0.01844180 57192.08979942 0 -612.43038573 0 9628.46771230 0 106.43656060 0 -16878.02895596 0 388
0.01950000 0.01947590 65771.35246281 0 -1059.14830697 0 1894.94208980 0 -1717.56057701 0 -25586.50406379 0 399
0.02050000 0.02045430 61002.80324689 0 538.58186909 0 2593.14402889 0 2194.41549860 0 -12866.01028388 0 462
0.02150000 0.02154770 60780.75748399 0 -1153.81721852 0 79.63601412 0 1228.84916588 0 -9846.27663797 0 571
0.02250000 0.02255340 69695.41794309 0 -4860.26232348 0 -7388.31211748 0 3321.55838846 0 -13080.62494483 0 510
0.02350000 0.02348930 70444.29556103 0 -3730.16917523 0 -12633.76061978 0 3573.11782645 0 -11774.63650417 0 555
0.02450000 0.02439640 71628.50265919 0 2824.78367715 0 -4637.25162645 0 -7633.51629961 0 -11248.24829701 0 592
0.02550000 0.02547300 66300.29164527 0 3476.13640033 0 -4177.07786506 0 -8711.17026869 0 1410.06823282 0 837
0.02650000 0.02652900 64920.87948082 0 256.33419827 0 6948.24669617 0 1440.20301492 0 -5734.99175320 0 723
0.02750000 0.02749970 66157.65885251 0 -2302.36611850 0 3773.32502256 0 1670.89991145 0 -2202.45661639 0 826
0.02850000 0.02848090 67928.47935727 0 975.31438572 0 9896.20920663 0 -2157.79236628 0 -11068.21598815 0 831
0.02950000 0.02946900 66642.45507112 0 2581.36517773 0 11150.75667583 0 -7038.91723122 0 -4913.93262552 0 996
0.03050000 0.03053250 61670.49330317 0 3160.41438800 0 18741.23913129 0 -6226.08777167 0 -11294.72041222 0 1041
0.03150000 0.03150510 60235.40333004 0 4415.69387621 0 21107.32417625 0 -9994.77667391 0 -13211.39015684 0 1036
0.03250000 0.03246190 56076.53721037 0 2487.40055718 0 32903.14486660 0 -2027.00497186 0 -6826.11043537 0 1059
0.03350000 0.03345080 53049.19500335 0 2062.79626442 0 30856.59720571 0 4216.66234697 0 -17252.35685296 0 1302
0.03450000 0.03451200 53792.52702282 0 32.24787695 0 28390.13682837 0 1900.45441468 0 -10905.07557223 0 1339
0.03550000 0.03553350 52282.01691044 0 -109.73530440 0 27921.31193336 0 3834.50406492 0 -12088.62828978 0 1365
0.03650000 0.03647120 53277.11910063 0 24.20908831 0 27261.94027479 0 3753.13904411 0 -4654.99754156 0 1308
0.03750000 0.03744890 53698.58458467 0 -747.99364955 0 22131.37439048 0 1681.80255805 0 -8151.39755872 0 1579
0.03850000 0.03847530 53612.84963226 0 -190.43030600 0 23962.86374254 0 2943.23766056 0 -4037.10695958 0 1662
0.03950000 0.03950240 54326.23541997 0 1126.44414446 0 18382.77164592 0 1629.31901409 0 -6737.94651083 0 1683
0.04050000 0.04050350 51956.60119198 0 1579.31989825 0 21354.10330835 0 1302.92727030 0 -4366.26041141 0 1822
0.04150000 0.04152450 49846.39006061 0 1562.83837958 0 21848.21613240 0 -232.11546061 0 672.90513709 0 1887
0.04250000 0.04250150 46844.33578264 0 1864.69639572 0 23380.57590276 0 1394.95093137 0 1505.86290086 0 1920
0.04350000 0.04349210 46162.78173017 0 2060.10110356 0 23272.76946842 0 -2082.21695027 0 -775.67616801 0 2005
0.04450000 0.04448520 43303.47115691 0 1601.18064743 0 24620.34989763 0 352.53924060 0 -1895.96247992 0 2151
0.04550000 0.04548030 42576.22137302 0 792.64791758 0 24356.37941027 0 1110.12899374 0 2716.55577733 0 2274
0.04650000 0.04648670 39910.56309848 0 1342.93321769 0 25161.26757280 0 320.91158338 0 748.56484619 0 2311
0.04750000 0.04749250 39930.30542905 0 609.23723013 0 25764.18503890 0 1841.85962121 0 -958.22396034 0 2568
0.04850000 0.04851840 39457.37679118 0 -399.57035214 0 24438.45426768 0 3744.93155837 0 992.26617113 0 2493
0.04950000 0.04949480 40243.29900693 0 -266.02901352 0 23026.21216027 0 2255.05107232 0 -695.24502598 0 2644
0.05050000 0.05050630 38726.02326441 0 1401.50582877 0 20233.11603280 0 1956.43168568 0 3627.66433304 0 2829
0.05150000 0.05149060 37278.28932676 0 1485.90983755 0 22063.71808910 0 830.44782590 0 2223.91808248 0 2784
0.05250000 0.05249300 34942.59416144 0 1178.04039266 0 18211.63447701 0 933.27209457 0 3826.61822389 0 3055
0.05350000 0.05348950 34750.27280635 0 -26.85311876 0 17852.94516771 0 4233.60969591 0 2038.86146140 0 3009
0.05450000 0.05448610 33437.07508768 0 178.93095301 0 15830.02175632 0 1966.15866541 0 5885.44383980 0 3336
0.05550000 0.05550870 32943.18408758 0 364.15948764 0 11743.58115272 0 2817.10856886 0 3820.81752789 0 3349
0.05650000 0.05647670 33529.24293432 0 -5.56917836 0 13216.38119547 0 -77.55774564 0 5052.15112188 0 3324
0.05750000 0.05747970 31967.71331598 0 616.32339586 0 10464.87705656 0 102.50373308 0 1343.16613282 0 3639
0.05850000 0.05849280 31437.66501383 0 588.10628170 0 10533.03246180 0 -837.21345604 0 1403.26932909 0 3846
0.05950000 0.05951020 31372.33786380 0 -636.89867532 0 11364.26221709 0 441.93428800 0 2574.28899408 0 3787
0.06050000 0.06049470 32508.52007918 0 -540.44186282 0 9022.61107900 0 2594.64134048 0 -2517.73498084 0 3930
0.06150000 0.06148310 32734.66958495 0 170.84657955 0 8699.29159676 0 -257.92134855 0 -1112.64669545 0 4083
0.06250000 0.06249100 31853.36307545 0 1120.51035409 0 7954.86154880 0 -1456.54034803 0 -3157.83013911 0 4303
0.06350000 0.06350600 30802.47216460 0 840.11269492 0 10923.24295284 0 -993.31761661 0 -80.57599306 0 4470
0.06450000 0.06451750 29909.51989830 0 103.72443021 0 9522.33604870 0 1337.46525759 0 -3464.62373790 0 4479
0.06550000 0.06550280 29969.41236182 0 128.81537960 0 9547.90125767 0 1475.12919411 0 -2220.41326425 0 4636
0.06650000 0.06648880 28116.51699965 0 762.41886030 0 8787.59970686 0 -1296.25036973 0 -2722.52284129 0 4653
0.06750000 0.06749660 28326.58426985 0 1192.58095186 0 9316.89380763 0 365.23422462 0 -2758.33631624 0 5220
0.06850000 0.06852730 27073.72266258 0 127.25152083 0 10407.74630108 0 -283.18820432 0 -1136.11566819 0 5029
0.06950000 0.06949320 26426.10767277 0 339.40504517 0 7854.66367556 0 2388.46708041 0 -658.95019309 0 5040
0.07050000 0.07048030 26206.39106123 0 -229.76745422 0 8136.21371010 0 2610.44629613 0 1984.63659952 0 5475
0.07150000 0.07148790 25940.20233447 0 201.88529421 0 4964.28665966 0 2353.96236670 0 2727.22550880 0 5509
0.07250000 0.07249820 25797.68045369 0 132.12277453 0 5784.15902927 0 1340.10496247 0 4694.60420587 0 5916
0.07350000 0.07351270 25444.98039073 0 581.12548234 0 4307.54361477 0 -921.68512112 0 4579.67722309 0 5721
0.07450000 0.07449140 24843.50478023 0 458.37366012 0 7283.21193520 0 -1141.70563146 0 4880.33738996 0 6028
0.07550000 0.07549160 24082.09410974 0 711.79974655 0 7164.07029758 0 -985.72014670 0 4683.52410011 0 6183
0.07650000 0.07648840 23636.00616848 0 247.99694552 0 6998.72273348 0 -66.72220078 0 3292.21108134 0 6330
0.07750000 0.07749960 23930.81018336 0 -383.58350086 0 8614.06683941 0 896.88520474 0 3878.63593758 0 6583
0.07850000 0.07848650 24166.38720654 0 -83.63960348 0 6366.95706411 0 969.71000390 0 1497.73305349 0 6549
0.07950000 0.07947320 23901.41851145 0 370.32841138 0 7585.63560239 0 -152.84889426 0 3460.83054854 0 6828
0.08050000 0.08048110 22974.63809446 0 879.37885948 0 5900.19513174 0 -1041.65748938 0 1007.32358011 0 7147
0.08150000 0.08149960 22470.87592907 0 753.04125328 0 9108.21293705 0 -633.25078064 0 2126.10481660 0 7386
0.08250000 0.08250610 21156.68000267 0 702.54747005 0 7975.42462794 0 -840.69165540 0 -62.77950209 0 7227
0.08350000 0.08350160 20719.24319504 0 281.59994492 0 8337.46347872 0 628.22535930 0 162.30857614 0 7798
0.08450000 0.08449610 20349.46268878 0 0.92025990 0 9557.36204866 0 342.69136683 0 413.50089550 0 7371
0.08550000 0.08548940 20550.10244158 0 -188.04791690 0 7249.37269331 0 702.17924231 0 -1457.71601490 0 8256
0.08650000 0.08650700 20487.99173867 0 -113.21893845 0 7235.66397388 0 1120.53253648 0 -479.72199600 0 8037
0.08750000 0.08749060 20623.85890128 0 157.19886171 0 6378.63609450 0 -197.54863620 0 -1335.23592701 0 8155
0.08850000 0.08849210 20556.64624777 0 182.17069164 0 6663.14747861 0 610.40513317 0 -440.06209396 0 8718
0.08950000 0.08949900 20238.10707142 0 182.13741804 0 6731.21415429 0 134.49074507 0 -611.59410948 0 8571
0.09050000 0.09049190 19847.91876278 0 465.53635511 0 5576.11035692 0 -5.37299727 0 -154.63014049 0 8932
0.09150000 0.09150830 19291.91705977 0 317.65742620 0 6497.97737366 0 1069.55850443 0 597.65691139 0 9285
0.09250000 0.09250820 19005.76417850 0 118.27652426 0 5946.32341985 0 1059.63853788 0 1509.63390782 0 9204
0.09350000 0.09350330 18765.86158851 0 139.93319542 0 5283.51349022 0 1107.24417342 0 3177.51701370 0 9349
0.09450000 0.09448040 18195.44132947 0 401.31056094 0 4835.47349830 0 508.19864417 0 3891.87882674 0 9564
0.09550000 0.09549270 17836.64110819 0 293.52409076 0 4889.92018412 0 -302.31608258 0 3850.67503007 0 10155
0.09650000 0.09649430 17226.29254013 0 247.02313843 0 5133.39413953 0 776.27842000 0 4858.07735768 0 9913
0.09750000 0.09749140 17265.33355339 0 50.29048159 0 5306.52772389 0 874.49540546 0 4807.88969149 0 10476
0.09850000 0.09850240 17159.85627041 0 137.62068085 0 4197.71858258 0 -376.65483012 0 3791.59222393 0 10575
0.09950000 0.09950330 17131.35189426 0 279.33623162 0 5294.78214632 0 40.24374265 0 5002.55128913 0 10882
0.10050000 0.10051200 16265.90579639 0 425.98403767 0 5661.78985334 0 -1032.52388870 0 3891.49063484 0 10875
0.10150000 0.10150300 16223.87015995 0 275.83695898 0 5957.17061047 0 -139.14128395 0 4745.98972133 0 11118
0.10250000 0.10250800 15889.24874802 0 112.48802857 0 6487.85111085 0 524.34964516 0 4123.34101585 0 11575
0.10350000 0.10349800 16127.82039438 0 50.15428169 0 6307.99626114 0 -263.79968293 0 3427.72332565 0 11364
0.10450000 0.10450100 15878.49028698 0 93.64585955 0 6464.48195888 0 47.71920940 0 2619.01979137 0 12093
0.10550000 0.10551000 15868.84094564 0 189.64837662 0 6321.28351508 0 -35.46909328 0 3519.08151491 0 12067
0.10650000 0.10649700 15428.18769089 0 183.55376389 0 6761.08274767 0 356.67514794 0 2949.11599494 0 12054
0.10750000 0.10749900 15619.06719036 0 190.64547522 0 6422.65705519 0 -364.47225939 0 2556.37671100 0 12807
0.10850000 0.10850100 15001.39843232 0 268.94156184 0 6242.39183119 0 86.52664205 0 1415.24782179 0 12736
0.10950000 0.10950300 14847.56353065 0 139.42965508 0 6105.82592316 0 -56.58296126 0 1493.78458738 0 12933
0.11050000 0.11050200 14450.05503202 0 100.76252607 0 6305.27891788 0 249.98559714 0 465.92343788 0 13428
0.11150000 0.11150900 14555.31049106 0 196.09901676 0 5517.17173633 0 -196.12230828 0 380.12970213 0 13453
0.11250000 0.11250000 14126.52481704 0 175.77994395 0 5653.61564119 0 683.38188173 0 10.65566783 0 13668
0.11350000 0.11349100 13847.80303773 0 136.80215052 0 5304.69767640 0 21.14015412 0 -203.10754411 0 13791
0.11450000 0.11448600 13905.03361399 0 151.71759217 0 4775.82504112 0 84.01204588 0 -342.21777272 0 14205
0.11550000 0.11549300 13676.66586882 0 122.66642001 0 5196.75814770 0 -144.56931574 0 -60.80693271 0 14776
0.11650000 0.11649800 13618.10434894 0 -44.84270747 0 5135.85638525 0 188.32630594 0 134.76691588 0 14553
0.11750000 0.11747300 13647.05237297 0 -122.26491868 0 4728.52108613 0 418.29007435 0 -476.84604863 0 14568
0.11850000 0.11849100 13898.26798385 0 66.15388785 0 4678.07832241 0 -244.37566972 0 -542.59355502 0 16015
0.11950000 0.11950300 13775.93208151 0 65.93472579 0 5038.00984578 0 -76.61089015 0 -881.67584636 0 15270
0.12050000 0.12050700 13717.14873768 0 103.21345877 0 5188.77248589 0 110.14512413 0 -269.07576532 0 15999
0.12150000 0.12150000 13535.25310773 0 172.70990064 0 5218.18634020 0 -140.33136939 0 -659.25298276 0 15670
0.12250000 0.12250700 13623.87177135 0 10.52706540 0 5191.11272845 0 411.82723388 0 164.45915923 0 16887
0.12350000 0.12352200 13804.99101751 0 -223.21255682 0 4866.11847547 0 810.60567456 0 113.88551938 0 16407
0.12450000 0.12449800 13592.70550792 0 46.01183054 0 4023.16532501 0 661.76735711 0 305.50036522 0 16306
0.12550000 0.12549900 13704.50477316 0 311.74138174 0 4224.41509364 0 -385.80728584 0 443.50036501 0 17523
0.12650000 0.12650100 12941.65224706 0 381.20998471 0 4740.86558834 0 -439.64395583 0 217.96087507 0 17154
0.12750000 0.12750600 12863.01566070 0 135.16508985 0 4794.85753508 0 -148.24826577 0 272.46523511 0 18007
0.12850000 0.12850300 12563.33151916 0 217.39411490 0 4947.27276354 0 1.76158154 0 -633.20974321 0 17496
0.12950000 0.12949900 12368.57010075 0 227.13329494 0 4903.40707961 0 -313.17658263 0 176.41768778 0 18405
0.13050000 0.13049000 12257.54721930 0 -22.49383471 0 4817.70540079 0 907.46287927 0 234.47677644 0 18100
0.13150000 0.13148800 12445.98665545 0 -110.54984190 0 4555.95315282 0 616.91566577 0 908.86369744 0 19059
0.13250000 0.13249300 12347.49682655 0 8.75204133 0 4040.64505140 0 619.95132638 0 479.74861488 0 18957
0.13350000 0.13349100 12349.38233003 0 218.59196417 0 3999.04197165 0 -172.47143990 0 1318.64349637 0 19468
0.13450000 0.13450700 11879.89196321 0 236.97562312 0 4405.48997502 0 -217.14234473 0 1104.54124872 0 19953
0.13550000 0.13551000 11922.48215949 0 158.65180851 0 4200.81302653 0 120.36721488 0 885.72635149 0 19956
0.13650000 0.13649900 11519.98262224 0 -24.70275749 0 3885.12428780 0 291.86262945 0 774.64579581 0 19723
0.13750000 0.13749600 11681.58136178 0 47.39468098 0 3685.32746597 0 276.28615246 0 731.60862430 0 20946
0.13850000 0.13851100 11405.96511761 0 144.47504057 0 3603.94026276 0 162.68789508 0 561.53621029 0 20955
0.13950000 0.13949800 11399.19948747 0 143.50345171 0 3449.63953082 0 30.05714373 0 863.20013049 0 20506
0.14050000 0.14048300 11063.44677346 0 131.35637282 0 3343.15294892 0 119.45662761 0 613.30437205 0 21447
0.14150000 0.14148400 10925.38355385 0 150.07720415 0 3643.04782320 0 -60.81270013 0 1057.88723788 0 21771
0.14250000 0.14249400 10902.92388003 0 110.54773457 0 3468.94930471 0 111.25025099 0 653.05411279 0 22470
0.14350000 0.14350900 10699.71096954 0 230.01256967 0 3431.60524458 0 -83.56828709 0 884.87565668 0 22519
0.14450000 0.14449900 10369.18220929 0 231.97460241 0 3901.60580646 0 -374.60517693 0 746.32775177 0 22218
0.14550000 0.14550500 10279.32133161 0 83.99507634 0 3897.89025548 0 -36.80303154 0 1064.85140044 0 23559
0.14650000 0.14650700 10251.23842094 0 -101.60822983 0 4302.82985606 0 414.10758398 0 240.69671969 0 23044
0.14750000 0.14750500 10276.04942851 0 0.40023804 0 3600.72381565 0 207.16581308 0 714.77773293 0 23649
0.14850000 0.14849900 10255.41980219 0 171.27137239 0 3872.92397115 0 -65.55895604 0 443.50923797 0 23640
0.14950000 0.14949500 10176.19538239 0 134.65378567 0 3856.04316940 0 -44.58261890 0 564.53194259 0 24457
0.15050000 0.15050000 9934.77329842 0 61.88255699 0 3686.71386559 0 139.96535989 0 718.26258701 0 24591
0.15150000 0.15149900 9984.07366885 0 2.46752513 0 3582.19042555 0 135.87048997 0 804.87152574 0 25020
0.15250000 0.15250500 9936.49243394 0 0.72943364 0 3315.35840937 0 424.23162855 0 467.98085491 0 25297
0.15350000 0.15350100 9842.12853031 0 88.99487702 0 3361.02086720 0 102.61508869 0 762.94680127 0 25452
0.15450000 0.15450400 9763.70267669 0 127.57205642 0 2911.49465489 0 40.90644167 0 296.30354471 0 26061
0.15550000 0.15549900 9596.93543937 0 134.45192589 0 3238.45204973 0 9.13381142 0 517.23796968 0 26128
0.15650000 0.15649500 9398.48065238 0 124.12380329 0 2771.92303250 0 -152.15125798 0 -10.74011620 0 26331
0.15750000 0.15749700 9383.51862770 0 42.47174230 0 3083.92949385 0 28.41919576 0 19.11312696 0 27345
0.15850000 0.15849900 9163.73546897 0 19.85712446 0 2547.51484464 0 108.05088432 0 -702.93233459 0 26980
0.15950000 0.15949700 9199.42694075 0 69.67356829 0 2728.55645243 0 163.45096943 0 -617.63770270 0 27777
0.16050000 0.16050000 9002.23655021 0 93.16627619 0 2297.63017740 0 139.25108680 0 -630.58667513 0 28224
0.16150000 0.16150500 9004.99825825 0 118.75011837 0 2201.10349036 0 16.68515304 0 -635.57771376 0 28075
0.16250000 0.16249700 8785.09309635 0 48.30194089 0 2203.08881461 0 180.39166364 0 -542.47044274 0 28590
0.16350000 0.16349900 8868.43235022 0 -8.37941039 0 2118.08588120 0 384.95991840 0 122.05418594 0 29163
0.16450000 0.16449100 8836.84462131 0 29.73328078 0 1935.11440515 0 90.59833136 0 -300.11891646 0 28996
0.16550000 0.16550500 8722.89366387 0 213.02085595 0 1909.01681873 0 -41.10763599 0 507.44777013 0 30777
0.16650000 0.16650700 8495.47976164 0 150.55190738 0 2216.56461891 0 -46.49063751 0 518.82511996 0 29211
0.16750000 0.16749900 8442.06455714 0 -70.55698212 0 2242.58456695 0 359.43241950 0 857.66784145 0 30922
0.16850000 0.16850800 8547.29783378 0 -10.32888789 0 2024.54272614 0 299.02310620 0 791.49997870 0 30867
0.16950000 0.16949900 8437.53934878 0 155.46752586 0 1790.47410575 0 -110.51900837 0 812.50781484 0 30852
0.17050000 0.17049200 8217.66746048 0 154.40166184 0 2076.50498384 0 -177.66877479 0 781.94047605 0 31257
0.17150000 0.17149500 8039.11028081 0 181.52962045 0 2080.12071405 0 -63.46904180 0 657.21774812 0 32608
0.17250000 0.17250900 7922.66380405 0 -12.54547469 0 1896.02902710 0 362.26954768 0 793.11374785 0 32361
0.17350000 0.17350400 7891.48644943 0 -9.84054249 0 1620.94516039 0 420.95085249 0 360.24429512 0 32508
0.17450000 0.17449800 7917.93895415 0 -11.96363050 0 1278.13844512 0 35.76445186 0 622.48566488 0 32791
0.17550000 0.17549800 7787.80594036 0 103.86928124 0 1143.62440853 0 69.26796321 0 424.25159271 0 33633
0.17650000 0.17650100 7783.31400560 0 108.39493325 0 1088.55217920 0 -46.19971542 0 590.02727701 0 33984
0.17750000 0.17750300 7751.12735205 0 -13.73300915 0 1035.26008698 0 16.98250803 0 423.84898226 0 34069
0.17850000 0.17849800 7740.05833750 0 57.76495012 0 1217.72469534 0 -115.68894801 0 279.43494327 0 34536
