### header ###
fiducial parameters:
Omega_m = 0.31
Omega_nu = 0
Omega_de = 0.69
Omega_k = 0
H_0 = 100
w_de = -1
zeff = 0
beta = 0
fgrowth = 0
b_1 = 2
gamma = 0.55
Lx = 3500 Ly = 3500 Lz = 3500
nx = 700 ny = 700 nz = 700
xoffset = 1379.75464 yoffset = 22.6059522 zoffset = 368.141391
bins = 400 dk = 0.001
kx_ny = 0.628318531 ky_ny = 0.628318531 kz_ny = 0.628318531
############################
A(data) = 3.36762968 (not used)
A(ran) = 3.37433251 (used)
Ngal = 189573
weighted Ngal = 0
Nran = 9399747
weighted Nran = 0
SN(data) = 6583.52761
SN(ran) = 134.215367
SN(data+ran) = 6717.74298
############################
13 columns: k_central k_mean P_0(k) sigma^{lin}_{P_0(k)} P^img_1(k) sigma^{lin}_{P_1(k)} P_2(k) sigma^{lin}_{P_2(k)} P^img_3(k) sigma^{lin}_{P_3(k)} P_4(k) sigma^{lin}_{P_4(k)} N_modes
### header ###
0.00050000 0 0 0 0 0 0 0 0 0 0 0 0
0.00150000 0.00179520 82749.31310327 0 -94108.14063385 0 -154586.88482494 0 179665.19024456 0 185993.82722322 0 3
0.00250000 0.00253879 108055.32079624 0 -72628.26315211 0 -15334.68890061 0 -165833.35853043 0 -142999.91137313 0 6
0.00350000 0.00331552 162927.46493000 0 -24070.44835294 0 -118083.53742895 0 -24463.96402066 0 14683.85746369 0 7
0.00450000 0.00420575 188013.53418749 0 6008.61158191 0 -25878.75710338 0 -127952.48447348 0 -19415.36208180 0 24
0.00550000 0.00557378 145998.97102793 0 38902.48420786 0 36375.57680715 0 -81155.61901378 0 27876.39258572 0 45
0.00650000 0.00659388 108172.33292405 0 20458.37824281 0 100879.76001862 0 41485.40215316 0 -37376.89006763 0 40
0.00750000 0.00754703 84375.94804769 0 6714.88791238 0 84060.51440649 0 28759.47368674 0 -11910.17093088 0 57
0.00850000 0.00846663 102792.43693234 0 -5280.29704311 0 67198.34586217 0 54033.64964447 0 -12238.69218449 0 75
0.00950000 0.00948925 97260.14789457 0 -9003.73386179 0 45383.95788046 0 45322.06900149 0 17197.56634004 0 112
0.01050000 0.01054430 107654.48493853 0 -9909.94010845 0 -1629.23028451 0 19382.19940293 0 -1813.84325772 0 105
0.01150000 0.01145670 112244.02223571 0 190.96711993 0 853.40993094 0 -2952.76499874 0 18295.48392594 0 144
0.01250000 0.01249090 108393.60230316 0 6957.88494632 0 -15710.79138913 0 -3839.79456587 0 -14126.96846492 0 169
0.01350000 0.01339930 98326.78830508 0 10908.19219858 0 6922.29329531 0 -26981.22208003 0 2277.61056691 0 180
0.01450000 0.01448870 80697.33075588 0 9041.82103211 0 9412.00082146 0 -14924.31461353 0 -14741.75351176 0 267
0.01550000 0.01550050 78107.42535650 0 7338.12445129 0 19312.43577412 0 1108.09597734 0 -18964.94857374 0 238
0.01650000 0.01653350 66325.80139825 0 1611.35127503 0 16820.24381986 0 650.31236890 0 -7468.91184571 0 315
0.01750000 0.01747870 71901.45701609 0 239.70183933 0 17713.08517419 0 9152.68863681 0 -14915.21983203 0 297
0.01850000 0.01844180 67967.29854659 0 -6.04658784 0 21247.84964159 0 268.10084911 0 95.66756292 0 388
0.01950000 0.01947590 68558.34843196 0 416.24485763 0 18794.47687664 0 2250.03785130 0 -5692.01336502 0 399
0.02050000 0.02045430 71258.50032900 0 771.15428701 0 23003.36429455 0 -767.79587258 0 288.40550336 0 462
0.02150000 0.02154770 70531.91601692 0 2322.37463779 0 27623.62420727 0 -1277.48406450 0 257.68732430 0 571
0.02250000 0.02255340 63710.16442195 0 2867.07441112 0 27388.60174394 0 3429.81956187 0 -2884.73159666 0 510
0.02350000 0.02348930 65245.85155140 0 101.91612146 0 38167.91423398 0 -3909.54710348 0 1964.55044185 0 555
0.02450000 0.02439640 63123.77283930 0 3719.92090925 0 24754.99702859 0 6962.02196278 0 -8927.64825073 0 592
0.02550000 0.02547300 61993.57987027 0 1624.88253531 0 36280.52524930 0 2254.21923254 0 4654.34316094 0 837
0.02650000 0.02652900 57927.87980496 0 -416.58092090 0 23674.27079795 0 6898.41394828 0 -2061.72041831 0 723
0.02750000 0.02749970 60996.59217660 0 -1204.90327167 0 29040.41370544 0 7389.69851710 0 5024.09039361 0 826
0.02850000 0.02848090 57823.17890577 0 887.31572001 0 17999.57079136 0 -1478.44546200 0 -7746.12522223 0 831
0.02950000 0.02946900 60584.66512194 0 3430.83995199 0 29380.02615599 0 -763.49248816 0 2957.24584230 0 996
0.03050000 0.03053250 56375.66679206 0 804.26150990 0 28009.70877304 0 -5462.76941530 0 1839.03136598 0 1041
0.03150000 0.03150510 54567.02530571 0 583.81509760 0 29625.69616840 0 5686.54540493 0 -268.48349541 0 1036
0.03250000 0.03246190 56617.45488553 0 1274.27870858 0 32246.10235938 0 2746.49091789 0 3080.10303090 0 1059
0.03350000 0.03345080 53780.65944208 0 1076.72452678 0 28473.65354139 0 757.44778583 0 -4280.80273892 0 1302
0.03450000 0.03451200 51351.13275058 0 3633.70903537 0 35889.89329278 0 -22.73040994 0 2259.89792538 0 1339
0.03550000 0.03553350 46673.19861372 0 2418.59077132 0 30230.49913798 0 -2171.34580895 0 -4948.90316949 0 1365
0.03650000 0.03647120 45904.57866521 0 1102.53263295 0 35180.05668810 0 3722.25006061 0 -425.99845623 0 1308
0.03750000 0.03744890 44560.10377115 0 -99.50744622 0 29998.36038586 0 5579.19370967 0 -1732.16768339 0 1579
0.03850000 0.03847530 44880.86118689 0 -297.65334338 0 24099.50728895 0 3432.01561887 0 -1166.00644397 0 1662
0.03950000 0.03950240 44772.94384058 0 -225.55945410 0 20058.98424071 0 5171.00438838 0 -2116.77711996 0 1683
0.04050000 0.04050350 44429.33855913 0 51.91778200 0 17952.32229236 0 1271.13989984 0 -2601.50679139 0 1822
0.04150000 0.04152450 43710.85082082 0 1638.69107551 0 19675.89429812 0 -594.67892501 0 416.43784446 0 1887
0.04250000 0.04250150 40789.31863269 0 2120.83649805 0 20203.50253694 0 -3463.89171890 0 -6823.00490023 0 1920
0.04350000 0.04349210 40779.66929135 0 1455.00976285 0 25951.18261945 0 -2073.53254306 0 795.59595773 0 2005
0.04450000 0.04448520 39707.59419433 0 -460.88581623 0 26782.02418284 0 -445.05313258 0 -760.16956556 0 2151
0.04550000 0.04548030 41546.18191244 0 -580.24705954 0 28282.77404191 0 5389.40114749 0 5502.26516763 0 2274
0.04650000 0.04648670 42867.69802882 0 -1486.83040689 0 23173.94690362 0 6204.00519855 0 6594.48187831 0 2311
0.04750000 0.04749250 44506.31146595 0 -570.44465968 0 20768.37719752 0 4381.64390158 0 8782.65303303 0 2568
0.04850000 0.04851840 45241.21417574 0 -310.22743336 0 19731.79393074 0 4794.07006010 0 10696.51670482 0 2493
0.04950000 0.04949480 42983.04647708 0 974.36387014 0 19179.89597059 0 -538.50090335 0 11073.16266198 0 2644
0.05050000 0.05050630 41589.10484463 0 2602.21662799 0 18613.02489457 0 -1138.73319067 0 11295.38588404 0 2829
0.05150000 0.05149060 39252.63329552 0 2441.94883209 0 19473.92360169 0 -988.09255372 0 10851.79346210 0 2784
0.05250000 0.05249300 36495.47264616 0 -22.28276923 0 19232.24642019 0 2863.58068408 0 10313.01638794 0 3055
0.05350000 0.05348950 35934.25808058 0 -78.32015451 0 17056.37540289 0 4054.61995956 0 8441.84273320 0 3009
0.05450000 0.05448610 36949.21351331 0 -336.83188748 0 12616.12561663 0 2490.06244445 0 7353.14193196 0 3336
0.05550000 0.05550870 36225.95656032 0 -225.95097335 0 13392.84213892 0 2657.06259690 0 9948.26019391 0 3349
0.05650000 0.05647670 37440.77536205 0 -507.86590826 0 7921.49922837 0 2530.16821262 0 7300.72493518 0 3324
0.05750000 0.05747970 36810.12990358 0 259.57504602 0 10651.03170614 0 -929.05300325 0 7555.88901217 0 3639
0.05850000 0.05849280 36958.97376662 0 806.28898071 0 7367.68249116 0 -747.98921307 0 5276.17111785 0 3846
0.05950000 0.05951020 35531.86945530 0 965.15595843 0 12346.16588291 0 -1196.34086762 0 6748.69388068 0 3787
0.06050000 0.06049470 35145.78488953 0 1139.62048643 0 12782.93721873 0 -2606.91929550 0 2167.89644670 0 3930
0.06150000 0.06148310 34413.54406701 0 781.70645179 0 16014.46836157 0 -385.22499800 0 6617.36301761 0 4083
0.06250000 0.06249100 31952.29655223 0 964.40841176 0 15484.64188335 0 1062.51559437 0 3652.87462370 0 4303
0.06350000 0.06350600 32800.21855892 0 -34.19205286 0 15554.07277625 0 1479.37712254 0 5553.38449437 0 4470
0.06450000 0.06451750 31925.78859152 0 192.46886800 0 14822.27560160 0 1988.62943042 0 6458.08233824 0 4479
0.06550000 0.06550280 32455.50415777 0 267.11927818 0 14514.82762220 0 1359.78074585 0 8566.34141894 0 4636
0.06650000 0.06648880 31099.71624282 0 678.11910877 0 15156.45336565 0 325.04194512 0 6065.18777754 0 4653
0.06750000 0.06749660 30342.74205110 0 1069.77145541 0 15075.15489202 0 -747.01207862 0 6857.62052590 0 5220
0.06850000 0.06852730 29464.98472462 0 289.26728937 0 15990.17864025 0 -1071.58375699 0 6650.45914931 0 5029
0.06950000 0.06949320 28994.49615007 0 375.13200878 0 15552.85274458 0 1500.02893126 0 5466.97297895 0 5040
0.07050000 0.07048030 29099.75160911 0 -132.70173501 0 15276.57102860 0 -57.59470025 0 4459.67047211 0 5475
0.07150000 0.07148790 29634.45821399 0 -543.18249758 0 13616.32975742 0 2235.30874175 0 3363.35001856 0 5509
0.07250000 0.07249820 29981.94541437 0 -451.74112434 0 13494.88115084 0 1980.96541333 0 3320.00562089 0 5916
0.07350000 0.07351270 30125.24367895 0 123.41507580 0 11424.04376864 0 -196.07350701 0 820.24059735 0 5721
0.07450000 0.07449140 29223.97301493 0 966.36046242 0 11964.85053183 0 -550.13667807 0 2119.15063611 0 6028
0.07550000 0.07549160 28497.16687892 0 798.74253030 0 11237.93348385 0 -709.29979075 0 1852.26316394 0 6183
0.07650000 0.07648840 27958.68926708 0 57.28215032 0 11279.52547240 0 2491.61521202 0 1729.89398801 0 6330
0.07750000 0.07749960 27672.75820975 0 -330.00081928 0 8896.84799680 0 3468.17292092 0 2151.21528649 0 6583
0.07850000 0.07848650 27694.49695577 0 -43.06567589 0 8045.44335427 0 512.94234910 0 2257.66859480 0 6549
0.07950000 0.07947320 27152.47016091 0 973.71836248 0 6951.24131934 0 -527.86111812 0 2077.99120423 0 6828
0.08050000 0.08048110 25647.17291110 0 1070.36039797 0 7660.65645855 0 -999.17820507 0 2014.46082811 0 7147
0.08150000 0.08149960 24528.95843478 0 1093.88039022 0 9077.81196621 0 -1005.37374769 0 1297.85859329 0 7386
0.08250000 0.08250610 23389.00521244 0 479.41920633 0 9843.08237325 0 129.20578973 0 1516.58808831 0 7227
0.08350000 0.08350160 23287.74258431 0 11.19423417 0 8987.88454136 0 746.54292099 0 1314.57302709 0 7798
0.08450000 0.08449610 23263.56377496 0 161.86825562 0 9323.34888425 0 1028.54880371 0 1826.84214054 0 7371
0.08550000 0.08548940 22723.53339555 0 297.07438290 0 9292.08280005 0 895.03075661 0 889.99757143 0 8256
0.08650000 0.08650700 22340.88710084 0 594.25191393 0 9149.47218969 0 -1035.36767160 0 2619.45234805 0 8037
0.08750000 0.08749060 21345.11943882 0 842.23776826 0 9789.32334164 0 -377.28259187 0 2006.17570399 0 8155
0.08850000 0.08849210 21027.35664626 0 388.85625588 0 10080.37853195 0 215.19473055 0 2995.86539008 0 8718
0.08950000 0.08949900 20081.16663460 0 222.36962585 0 10238.08426136 0 1033.31912752 0 2110.95424156 0 8571
0.09050000 0.09049190 20173.00174534 0 30.25379065 0 9032.09405239 0 1208.92937616 0 2916.04204564 0 8932
0.09150000 0.09150830 19760.85286674 0 86.28174842 0 8898.63367951 0 1310.25855148 0 3196.17240696 0 9285
0.09250000 0.09250820 19735.56493770 0 282.23768874 0 8011.26028528 0 276.36157260 0 2851.22509068 0 9204
0.09350000 0.09350330 19091.16639501 0 476.52440392 0 7688.31790374 0 -268.41472998 0 2227.15671199 0 9349
0.09450000 0.09448040 18409.50143057 0 369.87256319 0 7695.01698669 0 -804.06186836 0 2237.75989627 0 9564
0.09550000 0.09549270 17711.08875874 0 512.80038178 0 8010.76118141 0 -38.62609158 0 1840.80595750 0 10155
0.09650000 0.09649430 17773.53219756 0 -30.59029757 0 8096.15230672 0 886.66133939 0 1217.97979287 0 9913
0.09750000 0.09749140 17613.92987347 0 -97.70191027 0 7300.10382815 0 545.34195363 0 1146.49702854 0 10476
0.09850000 0.09850240 17595.51848654 0 474.74426681 0 7429.06117507 0 -107.58782684 0 663.07611835 0 10575
0.09950000 0.09950330 16766.45151466 0 385.58768014 0 6614.50148880 0 365.09003906 0 1916.48119427 0 10882
0.10050000 0.10051200 16582.89220517 0 76.14505988 0 7110.30017478 0 71.16788525 0 661.46013096 0 10875
0.10150000 0.10150300 16415.52604322 0 131.95529745 0 7108.39248890 0 165.93872490 0 1954.42417903 0 11118
0.10250000 0.10250800 16154.88291493 0 -53.28333017 0 7189.24731466 0 789.67104032 0 704.78456448 0 11575
0.10350000 0.10349800 16283.09715166 0 -67.51488862 0 6173.59313652 0 294.24723680 0 530.59398905 0 11364
0.10450000 0.10450100 16430.38824713 0 155.71042308 0 5441.16376365 0 -163.58406379 0 -219.50809704 0 12093
0.10550000 0.10551000 16192.81480850 0 234.16400469 0 6217.02626377 0 -469.66006213 0 -344.18867842 0 12067
0.10650000 0.10649700 15560.28384654 0 393.99702567 0 5558.27571222 0 153.16388426 0 -472.22101951 0 12054
0.10750000 0.10749900 15620.17631006 0 163.65948393 0 5985.81917218 0 24.93667083 0 -993.41743738 0 12807
0.10850000 0.10850100 15212.35299827 0 17.14455042 0 5066.38112757 0 1164.78641231 0 -881.57824383 0 12736
0.10950000 0.10950300 14982.98704538 0 46.98730131 0 4930.60269453 0 624.24029224 0 -232.69220285 0 12933
0.11050000 0.11050200 14876.51155468 0 327.14927254 0 4499.68751070 0 -98.61116659 0 -710.88361368 0 13428
0.11150000 0.11150900 14407.79757165 0 392.63613580 0 4470.58420990 0 -347.26537645 0 -59.83212741 0 13453
0.11250000 0.11250000 13915.34842715 0 230.13235460 0 5254.47673661 0 -387.78151890 0 -628.77548267 0 13668
0.11350000 0.11349100 14162.46029515 0 10.79379759 0 4897.04073256 0 107.59858531 0 -326.93188508 0 13791
0.11450000 0.11448600 13852.23951651 0 18.25566653 0 5273.42050100 0 33.55319992 0 -1095.86349623 0 14205
0.11550000 0.11549300 14076.72534275 0 173.19236771 0 4964.28665966 0 -490.11112018 0 -758.45708475 0 14776
0.11650000 0.11649800 13752.64056792 0 -9.97120788 0 5404.75136407 0 -21.80207675 0 -1794.06765356 0 14553
0.11750000 0.11747300 13538.02590697 0 157.83549641 0 5619.96494965 0 -144.03915653 0 -1384.58066223 0 14568
0.11850000 0.11849100 13845.58479834 0 108.87196563 0 5442.56125446 0 -24.79936182 0 -1792.99180745 0 16015
0.11950000 0.11950300 13883.84942782 0 -110.33256535 0 6040.01076047 0 406.21065175 0 -1927.10656095 0 15270
0.12050000 0.12050700 13818.30045385 0 -136.05238560 0 4698.99631986 0 560.81860985 0 -1765.19726790 0 15999
0.12150000 0.12150000 14131.84859158 0 -152.32649889 0 4480.55519596 0 561.32769579 0 -1439.36008396 0 15670
0.12250000 0.12250700 14101.01506406 0 60.69125152 0 4336.29199726 0 170.92421793 0 -755.82958019 0 16887
0.12350000 0.12352200 13913.57383564 0 235.16775801 0 4766.28661174 0 -38.72014493 0 -1068.06562932 0 16407
0.12450000 0.12449800 13640.50856677 0 330.53208761 0 4151.20210258 0 111.07833744 0 -464.51929235 0 16306
0.12550000 0.12549900 13590.37635657 0 73.84064189 0 4548.53314206 0 400.93456936 0 -153.50105664 0 17523
0.12650000 0.12650100 13175.78741464 0 24.51376349 0 4230.95889984 0 580.50104795 0 824.81017049 0 17154
0.12750000 0.12750600 13298.23422895 0 134.42087053 0 4427.60582173 0 535.72810411 0 1241.92568708 0 18007
0.12850000 0.12850300 13106.57834568 0 49.72072680 0 3676.42123482 0 546.56864001 0 1473.48769697 0 17496
0.12950000 0.12949900 12887.30538202 0 93.04704582 0 4057.53694436 0 370.35503026 0 2262.59308624 0 18405
0.13050000 0.13049000 12896.95472336 0 39.74031323 0 3036.93609238 0 392.02611997 0 1904.99071424 0 18100
0.13150000 0.13148800 12773.73152527 0 1.57513852 0 3775.56544434 0 -17.69301011 0 2760.45473485 0 19059
0.13250000 0.13249300 12665.59235502 0 287.47938842 0 2863.69159605 0 -140.77612639 0 1717.50512102 0 18957
0.13350000 0.13349100 12453.52866937 0 228.75815530 0 3819.51985785 0 -422.65335123 0 1903.33812589 0 19468
0.13450000 0.13450700 12100.82860642 0 258.30843133 0 3698.24871042 0 -613.01156445 0 1144.75571062 0 19953
0.13550000 0.13551000 11991.02575663 0 103.69060206 0 4116.89703042 0 -106.84826583 0 258.65891315 0 19956
0.13650000 0.13649900 11870.68626974 0 -23.89664930 0 4096.97724070 0 -139.48954754 0 378.45493139 0 19723
0.13750000 0.13749600 12024.96481929 0 -0.18670699 0 3939.95916551 0 285.33546005 0 -522.92442636 0 20946
0.13850000 0.13851100 12034.61416064 0 41.75425277 0 3855.16696484 0 168.10927214 0 -2.93137008 0 20955
0.13950000 0.13949800 11764.09986707 0 162.01909590 0 3349.70784632 0 -17.25202412 0 -80.68568500 0 20506
0.14050000 0.14048300 11602.27930360 0 258.54245558 0 3955.95267151 0 -183.61698372 0 -54.43781286 0 21447
0.14150000 0.14148400 11335.20328108 0 306.35993298 0 4181.31470230 0 -209.80551795 0 42.32245479 0 21771
0.14250000 0.14249400 11037.17172789 0 72.99504904 0 4271.00921202 0 392.94558020 0 213.17502358 0 22470
0.14350000 0.14350900 11000.92569626 0 -18.91481636 0 4014.13709070 0 557.72194766 0 161.32367785 0 22519
0.14450000 0.14449900 10956.94910036 0 65.84765990 0 3449.49534526 0 396.29512168 0 693.48707126 0 22218
0.14550000 0.14550500 10788.93964899 0 197.57414596 0 3732.02140512 0 143.61658192 0 766.38950881 0 23559
0.14650000 0.14650700 10431.79201606 0 253.89413494 0 3427.11330982 0 180.48482970 0 931.67939869 0 23044
0.14750000 0.14750500 10031.94327488 0 178.90322501 0 3343.75187356 0 104.75069867 0 1727.98630214 0 23649
0.14850000 0.14849900 9916.76119457 0 62.18512484 0 3156.32173633 0 303.97976212 0 1266.83651543 0 23640
0.14950000 0.14949500 9977.28585632 0 48.78218971 0 3231.84169635 0 120.54578315 0 1313.67464014 0 24457
0.15050000 0.15050000 9736.42942339 0 82.03714735 0 3032.11142171 0 17.50035602 0 1021.85748459 0 24591
0.15150000 0.15149900 9800.49217696 0 153.23264968 0 3130.39051786 0 -288.99777328 0 1007.23595966 0 25020
0.15250000 0.15250500 9468.98739138 0 170.39184048 0 3205.96593387 0 -296.20705130 0 401.47692889 0 25297
0.15350000 0.15350100 9555.95346665 0 31.76352438 0 3299.14307943 0 -75.30900545 0 353.31007879 0 25452
0.15450000 0.15450400 9339.19820469 0 -6.60885607 0 3431.03959354 0 229.52566613 0 353.45426435 0 26061
0.15550000 0.15549900 9644.73849822 0 -23.42427522 0 2967.90448257 0 109.64191652 0 416.33136897 0 26128
0.15650000 0.15649500 9538.99502652 0 -75.22060861 0 2860.26441619 0 504.67940738 0 211.95831928 0 26331
0.15750000 0.15749700 9537.12061423 0 80.97061785 0 2876.89012041 0 47.20335783 0 213.84493188 0 27345
0.15850000 0.15849900 9484.35979035 0 126.62264996 0 2860.04259225 0 86.79039071 0 592.16898714 0 26980
0.15950000 0.15949700 9245.11158098 0 136.18437085 0 2355.55949906 0 10.26246271 0 30.34407299 0 27777
0.16050000 0.16050000 9239.74344166 0 83.45426958 0 2790.74479372 0 9.54221147 0 586.67884465 0 28224
0.16150000 0.16150500 9068.88355267 0 28.58600737 0 2201.63586781 0 9.50425740 0 -228.07937404 0 28075
0.16250000 0.16249700 9043.73980919 0 104.13791003 0 2503.15005685 0 78.30251951 0 -20.88416929 0 28590
0.16350000 0.16349900 8807.89659728 0 176.76816960 0 2109.30165322 0 -416.34135104 0 -640.54213351 0 29163
0.16450000 0.16449100 8661.58152714 0 72.97763586 0 2487.64456352 0 -3.60833238 0 -596.30489448 0 28996
0.16550000 0.16550500 8554.01909913 0 79.35341042 0 2350.54627804 0 -50.74899167 0 -1137.91244210 0 30777
0.16650000 0.16650700 8637.19198505 0 62.39386117 0 2392.82592081 0 37.74966520 0 -1000.98163370 0 29211
0.16750000 0.16749900 8540.36583569 0 17.40253166 0 2203.83192481 0 243.29538714 0 -1088.00981967 0 30922
0.16850000 0.16850800 8452.93393015 0 47.71954213 0 2100.71706678 0 74.70043148 0 -692.13061788 0 30867
0.16950000 0.16949900 8398.62033869 0 90.36330890 0 2219.21541498 0 290.39415498 0 -592.07249373 0 30852
0.17050000 0.17049200 8326.50537614 0 88.89793996 0 1928.60387254 0 14.00529803 0 -759.79801046 0 31257
0.17150000 0.17149500 8181.66543519 0 140.13394608 0 2118.69589703 0 114.62973870 0 -238.47404382 0 32608
0.17250000 0.17250900 8107.89788429 0 19.38264305 0 1979.40155456 0 30.27918949 0 122.61872786 0 32361
0.17350000 0.17350400 8114.19768415 0 -32.48456309 0 1997.69093833 0 301.14485218 0 -263.28061492 0 32508
0.17450000 0.17449800 8153.94853402 0 61.54982108 0 1765.44127423 0 180.28740639 0 327.94118401 0 32791
0.17550000 0.17549800 8098.59237005 0 77.87639572 0 1893.20077188 0 -57.81763331 0 23.57877559 0 33633
0.17650000 0.17650100 7938.86804280 0 152.77458324 0 1994.37467044 0 -162.19100945 0 409.61232185 0 33984
0.17750000 0.17750300 7901.75689781 0 198.78752290 0 1848.41451860 0 -127.59091145 0 191.71577573 0 34069
0.17850000 0.17849800 7630.81004756 0 82.07308283 0 2591.90181483 0 0.62327092 0 501.02596710 0 34536
