### header ###
fiducial parameters:
Omega_m = 0.31
Omega_nu = 0
Omega_de = 0.69
Omega_k = 0
H_0 = 100
w_de = -1
zeff = 0
beta = 0
fgrowth = 0
b_1 = 2
gamma = 0.55
Lx = 3500 Ly = 3500 Lz = 3500
nx = 700 ny = 700 nz = 700
xoffset = 1379.75464 yoffset = 22.6059522 zoffset = 368.141391
bins = 400 dk = 0.001
kx_ny = 0.628318531 ky_ny = 0.628318531 kz_ny = 0.628318531
############################
A(data) = 3.34147836 (not used)
A(ran) = 3.33635163 (used)
Ngal = 187433
weighted Ngal = 0
Nran = 9399747
weighted Nran = 0
SN(data) = 6704.4316
SN(ran) = 132.704664
SN(data+ran) = 6837.13627
############################
13 columns: k_central k_mean P_0(k) sigma^{lin}_{P_0(k)} P^img_1(k) sigma^{lin}_{P_1(k)} P_2(k) sigma^{lin}_{P_2(k)} P^img_3(k) sigma^{lin}_{P_3(k)} P_4(k) sigma^{lin}_{P_4(k)} N_modes
### header ###
0.00050000 0 0 0 0 0 0 0 0 0 0 0 0
0.00150000 0.00179520 81978.69673931 0 -64917.77394567 0 -101167.35475549 0 105972.94856921 0 -84229.32242404 0 3
0.00250000 0.00253879 118554.91329925 0 -47837.21973344 0 -341.15412693 0 -142569.57293154 0 19140.63313340 0 6
0.00350000 0.00331552 135966.98338826 0 -6773.27197311 0 -85074.36071952 0 4300.73361984 0 4468.51015608 0 7
0.00450000 0.00420575 138164.14950370 0 9797.03172352 0 -11528.52284389 0 -77569.28048057 0 9821.58763356 0 24
0.00550000 0.00557378 116893.45199640 0 16047.07648060 0 4123.97321408 0 -29867.37334990 0 -22.02822626 0 45
0.00650000 0.00659388 104687.36793094 0 5796.59226105 0 37081.42058093 0 42489.26638895 0 39183.09149065 0 40
0.00750000 0.00754703 95145.94393230 0 -706.18538265 0 -6391.65715972 0 17996.46525622 0 -9471.18344837 0 57
0.00850000 0.00846663 104581.22517615 0 -1827.58525073 0 14547.54665320 0 9790.01099585 0 10802.00507899 0 75
0.00950000 0.00948925 102023.59515989 0 5282.41546173 0 11299.15689100 0 -14029.47684375 0 -6186.54765455 0 112
0.01050000 0.01054430 86227.95611411 0 7420.01075836 0 2557.24182437 0 -4321.84016763 0 9620.79260401 0 105
0.01150000 0.01145670 80891.64852641 0 8671.56360439 0 35566.47398977 0 -24839.51194933 0 294.14297955 0 144
0.01250000 0.01249090 72001.05596469 0 10238.96046592 0 39392.38237706 0 6472.42325589 0 2933.24449211 0 169
0.01350000 0.01339930 66262.47066367 0 1024.41178725 0 45749.41281991 0 8692.41505465 0 -4910.91581995 0 180
0.01450000 0.01448870 72450.47126503 0 -4941.36115557 0 44999.98064212 0 11123.25050740 0 17524.09117819 0 267
0.01550000 0.01550050 74543.71286507 0 -2876.90121161 0 32214.82518399 0 6949.98801409 0 -5131.59736562 0 238
0.01650000 0.01653350 82566.19744165 0 346.91711286 0 38022.39773002 0 -36.36215646 0 11712.63671323 0 315
0.01750000 0.01747870 78841.66259447 0 2322.72955609 0 46377.72912702 0 -3738.37666097 0 -6356.12096469 0 297
0.01850000 0.01844180 78567.93185379 0 4919.89968947 0 47188.05197606 0 -3735.84786807 0 1342.51175220 0 388
0.01950000 0.01947590 73807.14647573 0 2433.36424565 0 52987.52794832 0 3464.62373790 0 -1591.87513319 0 399
0.02050000 0.02045430 68640.97784922 0 4082.38122552 0 52758.49473134 0 7754.39925515 0 -1754.57190122 0 462
0.02150000 0.02154770 68334.86081345 0 4207.90030138 0 56514.19584194 0 3940.75773169 0 11610.37587737 0 571
0.02250000 0.02255340 63730.35040040 0 4024.67372780 0 49322.99647662 0 5283.77967895 0 465.94672939 0 510
0.02350000 0.02348930 60105.96906166 0 -226.24710831 0 50032.05669752 0 10616.79318116 0 12796.57939098 0 555
0.02450000 0.02439640 58613.09395242 0 -78.27512425 0 45070.07700683 0 8457.85842159 0 9171.48821564 0 592
0.02550000 0.02547300 58927.75120985 0 1281.52126019 0 39707.03963448 0 4893.79101186 0 17573.66882855 0 837
0.02650000 0.02652900 59911.76220309 0 757.97683592 0 33641.81858335 0 6587.29478269 0 9906.26892226 0 723
0.02750000 0.02749970 56842.49527161 0 -672.84302639 0 29714.20392004 0 8374.48589413 0 7042.98770050 0 826
0.02850000 0.02848090 57435.20883652 0 1035.29446970 0 37772.95671065 0 -404.82092477 0 6829.26033531 0 831
0.02950000 0.02946900 55249.91030181 0 2119.37246005 0 31841.27367077 0 2132.20497492 0 12896.28925155 0 996
0.03050000 0.03053250 57703.83762661 0 -604.55785413 0 31435.89042232 0 306.78694407 0 5436.70510247 0 1041
0.03150000 0.03150510 53364.29590865 0 -1541.34363989 0 24439.89612329 0 6564.29164021 0 -2358.09938316 0 1036
0.03250000 0.03246190 62382.43723528 0 -1777.91887080 0 26393.83228965 0 4641.51064607 0 5780.44347829 0 1059
0.03350000 0.03345080 57779.92323767 0 545.15007592 0 24278.96285557 0 -1876.47524688 0 -1202.99558579 0 1302
0.03450000 0.03451200 60033.43263361 0 2534.60469140 0 23484.38950620 0 -748.33636753 0 -661.77401183 0 1339
0.03550000 0.03553350 54122.71195597 0 2779.20994889 0 26679.65243501 0 -4116.24264980 0 -5133.67141945 0 1365
0.03650000 0.03647120 54468.53547681 0 2339.01143321 0 29867.37334990 0 545.39075489 0 -7842.55208850 0 1308
0.03750000 0.03744890 49130.45329760 0 1607.85754799 0 29945.56628838 0 1614.31262462 0 -1245.76324122 0 1579
0.03850000 0.03847530 48632.01490675 0 518.06980945 0 25688.87581163 0 3356.71748279 0 -5754.05752075 0 1662
0.03950000 0.03950240 49714.84846480 0 -2351.34484422 0 22001.27465028 0 5502.05443489 0 -5033.27390468 0 1683
0.04050000 0.04050350 50413.03931270 0 -818.61351876 0 16410.09135671 0 4804.45142044 0 -8363.92707464 0 1822
0.04150000 0.04152450 53215.23022166 0 158.74053808 0 13187.10043553 0 2151.93621429 0 -7447.70547714 0 1887
0.04250000 0.04250150 49780.17561483 0 640.92921629 0 11424.26559258 0 -2296.89815840 0 -13593.81462762 0 1920
0.04350000 0.04349210 48424.83134776 0 1297.37058062 0 10057.58612222 0 -1504.15485653 0 -12236.25212116 0 2005
0.04450000 0.04448520 45997.19015973 0 3044.28955595 0 13181.11118918 0 -1833.80741222 0 -18158.17490772 0 2151
0.04550000 0.04548030 42551.04435595 0 2269.91327623 0 11856.04588977 0 -357.79092235 0 -12537.04538239 0 2274
0.04650000 0.04648670 40335.35594160 0 1194.75482646 0 13124.21334883 0 1711.06113560 0 -12644.62999279 0 2311
0.04750000 0.04749250 38970.14050924 0 1286.68975796 0 13130.75715503 0 1178.41749335 0 -11347.84724560 0 2568
0.04850000 0.04851840 36005.57447695 0 1891.01580608 0 12059.34752983 0 2612.96399783 0 -9321.62974872 0 2493
0.04950000 0.04949480 33674.42670238 0 577.01175739 0 9075.80445956 0 2005.67660013 0 -5268.58473913 0 2644
0.05050000 0.05050630 32769.71776731 0 8.38634238 0 11766.98357828 0 2787.76126174 0 -543.40764888 0 2829
0.05150000 0.05149060 33791.43883018 0 195.27826819 0 7232.68044191 0 632.50988868 0 -3745.37520625 0 2784
0.05250000 0.05249300 32909.46684886 0 364.67079182 0 9221.57606105 0 -87.81555005 0 862.11652055 0 3055
0.05350000 0.05348950 32386.51691275 0 41.07025865 0 7298.58433417 0 -944.04830152 0 -567.33025158 0 3009
0.05450000 0.05448610 33053.31967328 0 -512.85694689 0 9238.70086914 0 2401.99834068 0 4593.28612174 0 3336
0.05550000 0.05550870 33856.76598021 0 -1028.41238199 0 5813.98325786 0 2660.47868556 0 415.97977802 0 3349
0.05650000 0.05647670 34910.09695438 0 -182.40471589 0 6210.77082869 0 1961.24526516 0 4858.50991437 0 3324
0.05750000 0.05747970 34734.07965881 0 627.20053270 0 4988.76493133 0 -765.22493313 0 4275.67860593 0 3639
0.05850000 0.05849280 34111.19803820 0 743.55273429 0 8323.54402655 0 -342.23662775 0 4703.83208173 0 3846
0.05950000 0.05951020 33007.84576579 0 418.41984135 0 7657.00745475 0 -2528.33816512 0 2752.08088116 0 3787
0.06050000 0.06049470 33465.69037581 0 1210.59305570 0 10170.15068005 0 -1967.83343614 0 1649.28316859 0 3930
0.06150000 0.06148310 30528.85233589 0 898.61321322 0 10018.99984804 0 -1332.47421897 0 -1131.73464540 0 4083
0.06250000 0.06249100 30501.78981534 0 606.65076300 0 11278.52726468 0 794.50458395 0 -826.27199025 0 4303
0.06350000 0.06350600 30035.40498366 0 144.80001264 0 11035.54132194 0 459.28868387 0 -1787.87876566 0 4470
0.06450000 0.06451750 29658.52611136 0 1033.41007533 0 11278.97091256 0 -106.29914067 0 -2607.76222647 0 4479
0.06550000 0.06550280 28124.94630933 0 631.50724448 0 9591.06819619 0 -887.58634522 0 -557.41804886 0 4636
0.06650000 0.06648880 27512.04676597 0 132.97790581 0 12595.82872622 0 2224.43936874 0 -316.26769922 0 4653
0.06750000 0.06749660 28022.46364953 0 -331.05226475 0 9746.96606049 0 1548.30891158 0 693.09333377 0 5220
0.06850000 0.06852730 28531.88232536 0 -152.03701865 0 10020.53043322 0 2397.55077071 0 2139.42534413 0 5029
0.06950000 0.06949320 27610.86933078 0 480.50170715 0 8164.80681583 0 -832.12481488 0 1336.06776678 0 5040
0.07050000 0.07048030 27414.33332086 0 1099.01117792 0 9517.03445656 0 -1513.14981725 0 2506.39977756 0 5475
0.07150000 0.07148790 26197.07445579 0 539.77750012 0 11297.93685934 0 -12.25410895 0 324.56835101 0 5509
0.07250000 0.07249820 25522.17512149 0 393.43581110 0 11422.60191304 0 -437.38467901 0 1217.29213866 0 5916
0.07350000 0.07351270 25705.40169508 0 -37.83872751 0 10876.13863940 0 451.29636734 0 -1485.33309531 0 5721
0.07450000 0.07449140 25191.10289259 0 188.55811196 0 10498.90484879 0 417.41830627 0 -3150.63195229 0 6028
0.07550000 0.07549160 24996.45238615 0 45.99818837 0 9775.37061588 0 374.54972094 0 -1762.38010388 0 6183
0.07650000 0.07648840 24939.55454580 0 473.03067688 0 9184.67564881 0 491.84356515 0 -2428.57284857 0 6330
0.07750000 0.07749960 23953.10348923 0 308.52271639 0 8032.41119786 0 236.61183186 0 -1831.01243059 0 6583
0.07850000 0.07848650 24021.09252652 0 261.11006767 0 9874.71446694 0 922.43266779 0 -1356.20938043 0 6549
0.07950000 0.07947320 23567.90621922 0 244.84260911 0 7839.19145582 0 633.71106531 0 -1280.53414366 0 6828
0.08050000 0.08048110 23354.28976599 0 -205.83930592 0 8474.41757864 0 839.17770702 0 196.98520340 0 7147
0.08150000 0.08149960 23469.63821426 0 -140.36242474 0 6751.76614223 0 1662.24877783 0 1350.49741401 0 7386
0.08250000 0.08250610 23616.70748579 0 306.16916440 0 8130.65702042 0 105.98182153 0 1536.25278050 0 7227
0.08350000 0.08350160 22825.90514338 0 988.11362700 0 7687.77443508 0 -1798.41540276 0 109.67851747 0 7798
0.08450000 0.08449610 22274.89447899 0 846.09639567 0 9893.89114647 0 -1553.48850055 0 1764.49852249 0 7371
0.08550000 0.08548940 20785.56855279 0 581.95954035 0 11035.19749483 0 -1036.60655829 0 -1013.98938948 0 8256
0.08650000 0.08650700 20965.68959123 0 315.27392797 0 11628.23270446 0 -93.96317869 0 1084.55158446 0 8037
0.08750000 0.08749060 20818.95305560 0 -270.42889135 0 10978.55475202 0 1284.29405942 0 -1947.17053623 0 8155
0.08850000 0.08849210 21091.90741250 0 -261.32745513 0 10515.66364738 0 1478.86692749 0 -18.24768087 0 8718
0.08950000 0.08949900 20669.11098483 0 225.85558906 0 9142.80638033 0 896.89075034 0 -346.64759678 0 8571
0.09050000 0.09049190 20708.26291006 0 -57.32108042 0 7931.01547536 0 1252.16286186 0 479.10310721 0 8932
0.09150000 0.09150830 20132.40796451 0 403.56096480 0 7530.94491024 0 846.87167034 0 516.96734447 0 9285
0.09250000 0.09250820 19810.31960513 0 407.83662122 0 6544.48276247 0 210.95012948 0 552.65437978 0 9204
0.09350000 0.09350330 19138.52580597 0 232.47925187 0 7018.78670876 0 596.21172843 0 1441.62268813 0 9349
0.09450000 0.09448040 18841.72537564 0 267.26235462 0 6233.19722892 0 945.30826150 0 968.18829168 0 9564
0.09550000 0.09549270 18256.77564859 0 456.05116348 0 5380.15108923 0 -176.53969094 0 1422.77874452 0 10155
0.09650000 0.09649430 17904.63014549 0 377.45228718 0 5924.82868016 0 -271.72988875 0 759.31221603 0 9913
0.09750000 0.09749140 17296.94346469 0 369.60859270 0 5940.04580238 0 -200.88708649 0 879.35556796 0 10476
0.09850000 0.09850240 16896.44034289 0 425.89419897 0 6623.28571678 0 -482.85304090 0 1236.00298791 0 10575
0.09950000 0.09950330 16400.99657521 0 22.55738727 0 6272.18278619 0 505.52012010 0 -697.83814783 0 10882
0.10050000 0.10051200 16715.65383264 0 50.54336088 0 6198.64815042 0 91.19215404 0 -152.94095120 0 10875
0.10150000 0.10150300 16581.78308547 0 -137.95341676 0 5955.34056297 0 81.15750452 0 -651.41927036 0 11118
0.10250000 0.10250800 16593.42884227 0 158.50318647 0 6490.10262383 0 336.88179787 0 -135.06083260 0 11575
0.10350000 0.10349800 16516.23411151 0 154.29962282 0 5418.40462751 0 -18.68323217 0 -813.88866886 0 11364
0.10450000 0.10450100 16402.32751885 0 63.93609210 0 6392.97701215 0 -58.94971178 0 -497.80841087 0 12093
0.10550000 0.10551000 16307.38687297 0 185.89844293 0 5866.53334901 0 133.79532703 0 -1194.66609688 0 12067
0.10650000 0.10649700 15864.18264292 0 344.67225460 0 6400.74085002 0 -288.42768576 0 591.35156593 0 12054
0.10750000 0.10749900 15495.73308030 0 322.89801675 0 6897.18282542 0 179.82046700 0 -480.34199391 0 12807
0.10850000 0.10850100 15313.06106656 0 -37.25610693 0 6163.12304660 0 976.85162562 0 596.71859613 0 12736
0.10950000 0.10950300 15246.62479684 0 31.83739175 0 6073.55054004 0 733.41981676 0 53.74716403 0 12933
0.11050000 0.11050200 15326.92506275 0 -6.74592108 0 4970.24263242 0 394.42181851 0 743.59709908 0 13428
0.11150000 0.11150900 14831.25947113 0 278.61308558 0 5217.39886522 0 122.64978321 0 519.33420590 0 13453
0.11250000 0.11250000 14919.10175096 0 311.46077446 0 4746.43336920 0 -507.50433524 0 -7.77731367 0 13668
0.11350000 0.11349100 14416.44870527 0 203.84510871 0 5214.55951880 0 -219.04226677 0 692.27591256 0 13791
0.11450000 0.11448600 14210.59608991 0 122.11407840 0 5344.95872132 0 316.57825273 0 165.28434428 0 14205
0.11550000 0.11549300 14215.58712854 0 -83.78800370 0 4914.06571988 0 669.42582861 0 -6.58910265 0 14776
0.11650000 0.11649800 14101.90235982 0 -16.56359352 0 5173.83264360 0 192.37015635 0 673.74252246 0 14553
0.11750000 0.11747300 14324.61359454 0 89.21426089 0 4365.01819735 0 400.28018874 0 1476.18285782 0 14568
0.11850000 0.11849100 14433.86188448 0 -184.22145395 0 4375.79884079 0 545.40517345 0 929.77393105 0 16015
0.11950000 0.11950300 14467.69003517 0 51.74609027 0 4154.48509688 0 -236.53641172 0 906.65211277 0 15270
0.12050000 0.12050700 14428.09446206 0 50.13376297 0 4127.88840660 0 221.72633643 0 1234.11748443 0 15999
0.12150000 0.12150000 14367.42561476 0 70.20827489 0 3983.99121739 0 527.29213971 0 1208.03098921 0 15670
0.12250000 0.12250700 14422.21612768 0 32.21183056 0 3319.12941633 0 447.81816798 0 1411.52117962 0 16887
0.12350000 0.12352200 13938.63994074 0 204.05695057 0 3600.53526530 0 97.88325134 0 965.38887357 0 16407
0.12450000 0.12449800 13952.94758480 0 239.96248245 0 3174.02328666 0 100.67357467 0 1901.59680797 0 16306
0.12550000 0.12549900 13408.70255055 0 82.98943752 0 3143.77759258 0 -28.53864796 0 1473.67624731 0 17523
0.12650000 0.12650100 13448.40903563 0 172.90288747 0 2878.22106405 0 183.16446288 0 1342.16792510 0 17154
0.12750000 0.12750600 13361.23222762 0 12.50011170 0 3050.67808540 0 333.42134442 0 1240.04018360 0 18007
0.12850000 0.12850300 13271.83718021 0 99.95431055 0 2846.28950803 0 -283.77714688 0 991.11823225 0 17496
0.12950000 0.12949900 13022.06342494 0 300.49379892 0 3170.03045576 0 -604.47356104 0 355.96642045 0 18405
0.13050000 0.13049000 12693.65308330 0 386.68681776 0 4017.90809766 0 -861.98342618 0 602.27417668 0 18100
0.13150000 0.13148800 12501.33172822 0 218.91249977 0 4425.35430875 0 -141.19204627 0 649.69680747 0 19059
0.13250000 0.13249300 12381.10315330 0 -10.32094659 0 4940.13003271 0 324.32212644 0 168.48304548 0 18957
0.13350000 0.13349100 12542.81280481 0 -34.10443241 0 4371.96128664 0 50.83639030 0 469.96950653 0 19468
0.13450000 0.13450700 12361.47173470 0 85.03055049 0 4586.73122435 0 371.29667288 0 265.44894392 0 19953
0.13550000 0.13551000 12238.24853661 0 234.39802894 0 4502.95941380 0 128.26303799 0 1303.48183014 0 19956
0.13650000 0.13649900 11994.24220375 0 82.52527092 0 4435.89094585 0 366.41543710 0 1097.59594119 0 19723
0.13750000 0.13749600 11909.28363512 0 67.07190622 0 4244.84507842 0 506.85660934 0 1245.19759018 0 20946
0.13850000 0.13851100 11858.15321719 0 102.30919348 0 3370.23765187 0 178.52168784 0 1013.45923026 0 20955
0.13950000 0.13949800 11561.13096292 0 168.58730273 0 3712.43435131 0 13.33372606 0 1144.65588984 0 20506
0.14050000 0.14048300 11288.39842996 0 200.54436850 0 3362.88418829 0 -178.75460298 0 720.16472728 0 21447
0.14150000 0.14148400 11146.76384493 0 75.53659682 0 3645.85389603 0 -51.58737525 0 897.84237504 0 21771
0.14250000 0.14249400 11190.57407288 0 -144.99521770 0 2902.66606212 0 684.11833720 0 411.32369354 0 22470
0.14350000 0.14350900 11430.03301499 0 -173.37648157 0 2574.54409161 0 995.12769995 0 602.76662583 0 22519
0.14450000 0.14449900 11414.61625123 0 -13.51185068 0 1811.14809686 0 300.67125807 0 953.67435135 0 22218
0.14550000 0.14550500 11161.84787278 0 385.73852042 0 2371.14263077 0 -313.49268174 0 1481.49554116 0 23559
0.14650000 0.14650700 10788.54036590 0 303.97643476 0 2116.99894390 0 -253.55252607 0 1234.08421084 0 23044
0.14750000 0.14750500 10376.34712252 0 178.56161615 0 2817.62985512 0 -235.92528676 0 1370.19537979 0 23649
0.14850000 0.14849900 10465.35397803 0 142.86348965 0 2713.60551894 0 -281.89275252 0 639.00711186 0 23640
0.14950000 0.14949500 10146.20478584 0 202.82360947 0 3181.04401433 0 -298.61605927 0 610.02914159 0 24457
0.15050000 0.15050000 10025.71002219 0 273.26934689 0 3557.60124191 0 -568.63124898 0 215.65501522 0 24591
0.15150000 0.15149900 9660.74309542 0 105.43203089 0 3250.33072166 0 45.28602261 0 23.36127722 0 25020
0.15250000 0.15250500 9687.82779836 0 14.62795783 0 3453.37726419 0 112.27285935 0 -540.74908897 0 25297
0.15350000 0.15350100 9505.99871559 0 81.24933963 0 3589.86553384 0 19.28770240 0 -530.13148613 0 25452
0.15450000 0.15450400 9571.64751033 0 121.73919594 0 3332.19484634 0 291.14391989 0 117.98260754 0 26061
0.15550000 0.15549900 9340.68442508 0 -34.05097284 0 3153.94822018 0 476.59538758 0 157.00032928 0 26128
0.15650000 0.15649500 9515.57041856 0 -28.71599619 0 2599.42164636 0 400.54859571 0 366.80917459 0 26331
0.15750000 0.15749700 9463.38633692 0 53.43783054 0 3142.09173064 0 152.70470870 0 549.50115248 0 27345
0.15850000 0.15849900 9352.47436744 0 135.67528491 0 2807.79196343 0 -137.97338092 0 798.85011491 0 26980
0.15950000 0.15949700 9292.99227820 0 90.33779914 0 2746.63510345 0 -37.47415986 0 818.70113921 0 27777
0.16050000 0.16050000 9112.97106054 0 201.86643918 0 3176.23043485 0 -335.63514733 0 240.84534173 0 28224
0.16150000 0.16150500 8768.09029143 0 271.54466576 0 3544.19198480 0 -427.03437402 0 443.85750155 0 28075
0.16250000 0.16249700 8639.75405154 0 187.80169233 0 3539.38949653 0 162.55258247 0 421.03403647 0 28590
0.16350000 0.16349900 8418.34048687 0 -16.38136516 0 3307.80530425 0 434.77492037 0 552.39928225 0 29163
0.16450000 0.16449100 8462.51672431 0 25.15749657 0 3067.81398468 0 475.77131165 0 560.89846647 0 28996
0.16550000 0.16550500 8364.25981055 0 30.09773751 0 2894.66930912 0 172.42596600 0 750.83854156 0 30777
0.16650000 0.16650700 8367.49844006 0 27.17864539 0 2614.88277491 0 318.65896128 0 861.65179939 0 29211
0.16750000 0.16749900 8352.52532418 0 -89.13118783 0 2428.99431405 0 329.45069591 0 916.07852106 0 30922
0.16850000 0.16850800 8387.38495618 0 12.50576821 0 1824.89008988 0 149.87423524 0 978.52972371 0 30867
0.16950000 0.16949900 8313.59522289 0 42.00092099 0 1951.28537030 0 234.15402261 0 1185.66004496 0 30852
0.17050000 0.17049200 8326.86029444 0 57.34814294 0 1794.79967256 0 -67.86437224 0 779.51815863 0 31257
0.17150000 0.17149500 8331.21913484 0 202.43985406 0 1843.37911519 0 -103.38814512 0 792.66677262 0 32608
0.17250000 0.17250900 7952.92058933 0 120.96835776 0 2097.47843727 0 -204.54829060 0 1099.64892175 0 32361
0.17350000 0.17350400 7942.65014096 0 85.87802885 0 2168.67283048 0 -59.05796186 0 868.60487076 0 32508
0.17450000 0.17449800 7947.38608205 0 -54.35773442 0 2190.11211418 0 195.46349118 0 927.69987722 0 32791
0.17550000 0.17549800 8029.05056518 0 -78.40211846 0 2006.45298392 0 291.71733477 0 869.58644169 0 33633
0.17650000 0.17650100 8236.87741360 0 -57.21859776 0 2008.08338987 0 77.20327098 0 1267.20252493 0 33984
0.17750000 0.17750300 8160.32597226 0 92.29661544 0 1855.24669592 0 -67.38833807 0 841.66102601 0 34069
0.17850000 0.17849800 8150.83190767 0 141.52145482 0 2369.47895123 0 -40.87017346 0 1308.16231526 0 34536
