### header ###
fiducial parameters:
Omega_m = 0.31
Omega_nu = 0
Omega_de = 0.69
Omega_k = 0
H_0 = 100
w_de = -1
zeff = 0
beta = 0
fgrowth = 0
b_1 = 2
gamma = 0.55
Lx = 3500 Ly = 3500 Lz = 3500
nx = 700 ny = 700 nz = 700
xoffset = 1379.75464 yoffset = 22.6059522 zoffset = 368.141391
bins = 400 dk = 0.001
kx_ny = 0.628318531 ky_ny = 0.628318531 kz_ny = 0.628318531
############################
A(data) = 3.38599205 (not used)
A(ran) = 3.39005682 (used)
Ngal = 190936
weighted Ngal = 0
Nran = 9399747
weighted Nran = 0
SN(data) = 6578.16051
SN(ran) = 134.840808
SN(data+ran) = 6713.00132
############################
13 columns: k_central k_mean P_0(k) sigma^{lin}_{P_0(k)} P^img_1(k) sigma^{lin}_{P_1(k)} P_2(k) sigma^{lin}_{P_2(k)} P^img_3(k) sigma^{lin}_{P_3(k)} P_4(k) sigma^{lin}_{P_4(k)} N_modes
### header ###
0.00050000 0 0 0 0 0 0 0 0 0 0 0 0
0.00150000 0.00179520 32164.47114985 0 -24728.59997985 0 -26369.98621622 0 44846.03482847 0 54336.55023313 0 3
0.00250000 0.00253879 31701.08094135 0 -20960.25490472 0 4346.40716887 0 -51836.70535297 0 -42080.99942928 0 6
0.00350000 0.00331552 39501.96340291 0 -1908.77281240 0 -23712.09177954 0 3220.35121631 0 -4931.37907832 0 7
0.00450000 0.00420575 48446.12644590 0 -2015.27048549 0 -10413.91300658 0 -26632.18211207 0 -5225.46216540 0 24
0.00550000 0.00557378 51246.87549926 0 -3283.16066463 0 -455.19714131 0 -8990.72388777 0 6479.39961877 0 45
0.00650000 0.00659388 67062.25687561 0 -10034.02841991 0 -15779.55681021 0 16206.45698074 0 -6788.35600096 0 40
0.00750000 0.00754703 57766.61380134 0 -4033.13631107 0 -39.44428918 0 -23104.95965860 0 -1241.26021526 0 57
0.00850000 0.00846663 68525.29666505 0 5734.82538524 0 -3495.70127175 0 -5890.23523688 0 -9351.12124141 0 75
0.00950000 0.00948925 65926.18557220 0 2470.84140014 0 24733.81284241 0 -20073.40279674 0 -9423.86840219 0 112
0.01050000 0.01054430 60291.63569857 0 7738.25047240 0 23619.59119700 0 -20645.04308745 0 -17411.07188129 0 105
0.01150000 0.01145670 58910.55985458 0 9093.77219862 0 51548.22332035 0 6666.41938171 0 -1744.93365108 0 144
0.01250000 0.01249090 50704.73779243 0 2747.91059110 0 47939.36965733 0 4675.58280310 0 -1768.03661432 0 169
0.01350000 0.01339930 53517.79807441 0 1084.40074418 0 58221.24196424 0 14636.60896469 0 3754.17052543 0 180
0.01450000 0.01448870 50344.05206768 0 -427.42367503 0 47182.39546562 0 19077.74604670 0 22907.20361701 0 267
0.01550000 0.01550050 53330.80049386 0 -6147.38463813 0 24071.00291279 0 17809.91132355 0 -2428.37320703 0 238
0.01650000 0.01653350 62529.17377090 0 -4852.83122153 0 25796.23859808 0 12806.67238020 0 16778.54091933 0 315
0.01750000 0.01747870 69339.61234499 0 -1195.73085179 0 16100.53604989 0 -1336.92178894 0 -2476.26499545 0 297
0.01850000 0.01844180 64174.10919029 0 2070.91502058 0 21025.91479065 0 -6839.64169565 0 10882.17225054 0 388
0.01950000 0.01947590 65494.07253910 0 1086.29401150 0 10575.96648519 0 1769.38974035 0 -19565.09324060 0 399
0.02050000 0.02045430 62628.99454344 0 -341.24618387 0 23930.81018336 0 -929.21937120 0 3253.03697372 0 462
0.02150000 0.02154770 63486.78771541 0 183.27537485 0 6185.00597818 0 5442.02887701 0 -14295.66557050 0 571
0.02250000 0.02255340 61249.47146702 0 -188.23979461 0 11130.12704951 0 7662.99670110 0 1433.18228726 0 510
0.02350000 0.02348930 60890.67124574 0 -938.01469038 0 -828.16636669 0 -2603.75830437 0 -7299.85982182 0 555
0.02450000 0.02439640 65040.22075998 0 -244.42890746 0 3876.17369186 0 3710.30484150 0 -9981.44505517 0 592
0.02550000 0.02547300 62553.46349222 0 1401.82747348 0 -2660.41213838 0 -1159.91737685 0 -9052.40203400 0 837
0.02650000 0.02652900 57708.27410539 0 1006.05696542 0 -2108.84691414 0 -2617.89958048 0 -13870.65090345 0 723
0.02750000 0.02749970 57952.39135022 0 -374.74603513 0 -5100.75274691 0 -3379.24370379 0 -3693.02475665 0 826
0.02850000 0.02848090 61160.18733158 0 209.42841726 0 504.41765513 0 -882.67627233 0 -11502.90217894 0 831
0.02950000 0.02946900 58399.47749920 0 956.34511158 0 3022.24025642 0 -633.73435683 0 -11005.97219087 0 996
0.03050000 0.03053250 57462.60409299 0 1430.35403203 0 2790.56733457 0 -9324.69091908 0 -9634.22404351 0 1041
0.03150000 0.03150510 56745.44729831 0 2581.22099217 0 10241.77762994 0 -4909.40741716 0 -10133.25026780 0 1036
0.03250000 0.03246190 54401.32282331 0 2097.12351897 0 17565.46134281 0 -297.39935497 0 -4292.16012460 0 1059
0.03350000 0.03345080 51711.70756336 0 1479.57676409 0 17782.51606709 0 351.33362749 0 -7233.47900809 0 1302
0.03450000 0.03451200 51459.82648067 0 1545.09246446 0 25312.21876326 0 477.86200227 0 -1975.58618281 0 1339
0.03550000 0.03553350 50860.45819759 0 624.87692694 0 18625.00338727 0 1779.56036795 0 -2088.76075647 0 1365
0.03650000 0.03647120 48835.09472287 0 1364.05085668 0 28286.43413690 0 2198.98507174 0 5589.02051016 0 1308
0.03750000 0.03744890 48369.92992286 0 726.36914286 0 19531.70873779 0 350.65706448 0 2318.84763716 0 1579
0.03850000 0.03847530 46943.04743547 0 642.90012198 0 23769.21144383 0 4058.55733448 0 6660.06412586 0 1662
0.03950000 0.03950240 47443.70406572 0 5.36395794 0 19766.84211309 0 3100.16700618 0 6560.97537233 0 1683
0.04050000 0.04050350 46423.42485845 0 645.92025491 0 22646.44957676 0 4579.41103436 0 8674.84659869 0 1822
0.04150000 0.04152450 46394.25501048 0 175.44609893 0 14778.13263775 0 3696.20793018 0 12475.04559145 0 1887
0.04250000 0.04250150 43589.95677409 0 461.29508139 0 18020.53315359 0 2366.69506080 0 6590.99924247 0 1920
0.04350000 0.04349210 44408.70893281 0 864.33254170 0 13848.35759758 0 835.62297840 0 10424.92656515 0 2005
0.04450000 0.04448520 42088.76326715 0 906.25837528 0 13149.61218984 0 -1580.34028836 0 5912.48417796 0 2151
0.04550000 0.04548030 41316.37231167 0 1620.77879244 0 13752.86239186 0 2339.79890820 0 8626.52225359 0 2274
0.04650000 0.04648670 39966.68455504 0 -160.21344904 0 12076.98253298 0 3701.78680224 0 5880.79662828 0 2311
0.04750000 0.04749250 38113.45645696 0 617.09756140 0 8236.68886325 0 2687.51902372 0 5331.27218428 0 2568
0.04850000 0.04851840 37768.18749597 0 1267.19143373 0 7504.53677030 0 940.60004839 0 5393.09451607 0 2493
0.04950000 0.04949480 35666.84932216 0 934.92690115 0 7977.83141767 0 -2417.28201008 0 5698.95645431 0 2644
0.05050000 0.05050630 34121.51285136 0 1510.82066589 0 8831.45429960 0 -1375.60788390 0 3037.87884412 0 2829
0.05150000 0.05149060 33646.69871001 0 1071.95420297 0 12183.79075959 0 -2352.40959913 0 1896.01793590 0 2784
0.05250000 0.05249300 32219.92713459 0 436.65931473 0 11525.41730875 0 -680.01903081 0 -411.24938252 0 3055
0.05350000 0.05348950 32542.68096578 0 -18.69942532 0 13576.17962447 0 330.16164163 0 -544.65097206 0 3009
0.05450000 0.05448610 32559.20684923 0 -644.44512572 0 13186.76769962 0 524.36628196 0 1673.11815084 0 3336
0.05550000 0.05550870 32597.47147870 0 684.82151909 0 12987.68071440 0 915.51619737 0 -1466.41151331 0 3349
0.05650000 0.05647670 33495.74751954 0 227.06896600 0 15458.24483462 0 -102.49951842 0 1957.98445325 0 3324
0.05750000 0.05747970 32055.66650778 0 -25.12710669 0 11681.13771390 0 705.58645802 0 1586.20753155 0 3639
0.05850000 0.05849280 33379.28995158 0 176.14595345 0 14676.42636174 0 1660.14145041 0 2964.36639075 0 3846
0.05950000 0.05951020 32382.41316988 0 263.17635767 0 12417.70410323 0 -26.40059792 0 3296.92484004 0 3787
0.06050000 0.06049470 31707.40292361 0 294.94820044 0 13611.78236668 0 1238.14358892 0 3161.04658623 0 3930
0.06150000 0.06148310 32221.03625428 0 55.54981627 0 12060.45664953 0 878.84093642 0 4157.15807534 0 4083
0.06250000 0.06249100 31796.02158723 0 264.86000136 0 13311.10001741 0 727.54591885 0 3390.47908630 0 4303
0.06350000 0.06350600 31334.40597024 0 104.79938902 0 11945.99549702 0 141.82424450 0 4382.16518783 0 4470
0.06450000 0.06451750 31606.02938350 0 765.91591470 0 12627.32772555 0 -287.85870735 0 3047.67237102 0 4479
0.06550000 0.06550280 30725.94290566 0 259.20016356 0 10952.87863108 0 69.48501794 0 2421.39684415 0 4636
0.06650000 0.06648880 30476.28006236 0 493.80448877 0 14754.73021219 0 -96.20670601 0 4435.18110925 0 4653
0.06750000 0.06749660 29617.71050659 0 555.87969985 0 13255.97676858 0 59.47876187 0 1511.49722891 0 5220
0.06850000 0.06852730 30176.37409688 0 276.99487994 0 14053.76656506 0 570.57886316 0 2077.18154686 0 5029
0.06950000 0.06949320 28898.22456056 0 407.90538664 0 13494.77023887 0 -94.56742710 0 1445.30496552 0 5040
0.07050000 0.07048030 28333.79354787 0 972.10570244 0 13868.54357603 0 -522.65491027 0 1806.09051105 0 5475
0.07150000 0.07148790 27605.10190837 0 592.22777049 0 14651.91481648 0 1123.21660614 0 1134.98436611 0 5509
0.07250000 0.07249820 26569.18411341 0 -63.97735136 0 13296.01598956 0 2108.61399901 0 4085.49785186 0 5916
0.07350000 0.07351270 27004.95724150 0 -276.99820730 0 12018.86466097 0 3052.30849135 0 3145.89601120 0 5721
0.07450000 0.07449140 26402.70524721 0 273.02977704 0 10128.69178586 0 1145.78719193 0 3355.20908000 0 6028
0.07550000 0.07549160 25952.29173915 0 763.61670957 0 8984.61263826 0 -428.05809150 0 3110.22672181 0 6183
0.07650000 0.07648840 25015.75106884 0 874.00517455 0 11641.20940488 0 -1162.32416658 0 3606.51342046 0 6330
0.07750000 0.07749960 23814.90717525 0 480.85218897 0 10388.05942649 0 -1469.26195093 0 1355.08916954 0 6583
0.07850000 0.07848650 23911.95514855 0 150.42103125 0 12239.91221615 0 406.62435340 0 269.00699990 0 6549
0.07950000 0.07947320 23325.34174196 0 477.21205813 0 12321.09977781 0 -784.45485039 0 380.74526356 0 6828
0.08050000 0.08048110 23046.28722674 0 559.55088604 0 11849.39117160 0 261.62026273 0 -1604.48582412 0 7147
0.08150000 0.08149960 22829.45432640 0 82.68908790 0 13119.99869399 0 229.55339412 0 -324.79572055 0 7386
0.08250000 0.08250610 22283.54561261 0 167.88744821 0 11579.65326182 0 1178.33985498 0 -582.88454618 0 7227
0.08350000 0.08350160 22322.58662587 0 -0.85086672 0 12562.44422340 0 777.66814698 0 868.67918178 0 7798
0.08450000 0.08449610 22488.73275616 0 -21.08003983 0 10780.33288016 0 1465.55749115 0 1730.72582779 0 7371
0.08550000 0.08548940 22409.98525782 0 31.34006248 0 11312.35541537 0 968.17609136 0 1833.68540906 0 8256
0.08650000 0.08650700 22242.61909587 0 -124.59185180 0 9147.69759818 0 888.56569791 0 3120.85208849 0 8037
0.08750000 0.08749060 22599.64472564 0 -54.29096541 0 9551.76099420 0 464.78437195 0 2338.14631985 0 8155
0.08850000 0.08849210 22137.36363684 0 284.93617696 0 8371.46908856 0 392.98329027 0 2263.60238516 0 8718
0.08950000 0.08949900 21982.86326335 0 696.02030065 0 9136.31803011 0 -529.61574547 0 1051.79484340 0 8571
0.09050000 0.09049190 21518.47484712 0 261.06792113 0 9184.24309213 0 -329.33867482 0 1285.86900939 0 8932
0.09150000 0.09150830 20700.05542432 0 486.10719809 0 8886.21153893 0 311.66596160 0 248.42728396 0 9285
0.09250000 0.09250820 20125.86415831 0 267.38990339 0 8660.53895463 0 387.94345038 0 109.53333370 0 9204
0.09350000 0.09350330 19961.27079559 0 59.98640596 0 7815.56720632 0 956.56915376 0 59.32293056 0 9349
0.09450000 0.09448040 19473.92360169 0 219.09661363 0 7213.00465852 0 772.49077625 0 -600.64044337 0 9564
0.09550000 0.09549270 19070.98041656 0 105.88432991 0 5944.89265544 0 895.87923318 0 33.25285031 0 10155
0.09650000 0.09649430 19105.80677498 0 57.32407504 0 5762.34264487 0 -30.55003652 0 -825.38580361 0 9913
0.09750000 0.09749140 18768.52347578 0 100.98989560 0 4588.18417115 0 930.16766854 0 -302.10645895 0 10476
0.09850000 0.09850240 18502.00201312 0 -108.57993441 0 4275.63424115 0 184.74939493 0 -1227.14112155 0 10575
0.09950000 0.09950330 18504.22025251 0 175.69786910 0 4113.00402029 0 -274.45832320 0 -1899.78894287 0 10882
0.10050000 0.10051200 18355.37638946 0 286.39356024 0 4240.35314365 0 -228.48420273 0 -2334.66368401 0 10875
0.10150000 0.10150300 18098.28244420 0 161.22718444 0 4103.44340852 0 -277.74353574 0 -2220.95673290 0 11118
0.10250000 0.10250800 17481.05733403 0 452.38552288 0 4928.71719105 0 -349.71209450 0 -2247.37596403 0 11575
0.10350000 0.10349800 17245.92395873 0 566.20116773 0 5413.29158572 0 -607.36503608 0 -2562.62105489 0 11364
0.10450000 0.10450100 16832.44413650 0 314.95561062 0 5827.43687976 0 252.80054292 0 -1057.92494795 0 12093
0.10550000 0.10551000 16121.60932409 0 184.57304489 0 5577.97367800 0 531.13080298 0 -1240.31746352 0 12067
0.10650000 0.10649700 16440.37032438 0 116.97109038 0 5736.84398309 0 517.24351528 0 94.60336258 0 12054
0.10750000 0.10749900 15912.98390949 0 189.30676775 0 5947.36599236 0 451.83983599 0 -113.54058316 0 12807
0.10850000 0.10850100 15828.46898875 0 320.25054804 0 5978.74298853 0 -368.15342766 0 1455.36468115 0 12736
0.10950000 0.10950300 15288.54952131 0 242.01879037 0 6075.15876360 0 -302.36932032 0 306.38100626 0 12933
0.11050000 0.11050200 15311.73012293 0 120.86631874 0 6087.13725631 0 436.78686350 0 412.27420912 0 13428
0.11150000 0.11150900 14793.77122545 0 228.49751217 0 6445.28309696 0 48.03896861 0 109.18895204 0 13453
0.11250000 0.11250000 14812.62626026 0 145.04290985 0 5866.25606908 0 -145.94462416 0 -163.03394042 0 13668
0.11350000 0.11349100 14639.71449984 0 20.49087545 0 6292.54622379 0 316.74794805 0 33.93185338 0 13791
0.11450000 0.11448600 14751.18102917 0 94.23757490 0 6209.46206745 0 -206.41272080 0 -217.02145069 0 14205
0.11550000 0.11549300 14560.63426560 0 77.90334733 0 5659.66034353 0 411.89489019 0 -271.73654347 0 14776
0.11650000 0.11649800 14318.62434819 0 256.08464634 0 6175.66719035 0 -260.86827958 0 -448.21745107 0 14553
0.11750000 0.11747300 14290.23088400 0 272.98097577 0 6531.72788597 0 -11.88421753 0 256.62922411 0 14568
0.11850000 0.11849100 13765.17362047 0 375.85404570 0 6746.52000607 0 273.54884505 0 509.68486456 0 16015
0.11950000 0.11950300 13324.63127769 0 65.45935709 0 6483.22608172 0 403.98021204 0 822.40892635 0 15270
0.12050000 0.12050700 13578.73059977 0 -21.51481475 0 6405.99807737 0 607.89519530 0 1045.79228761 0 15999
0.12150000 0.12150000 13390.18025165 0 -3.31165395 0 6161.47045825 0 405.58843560 0 1290.83786562 0 15670
0.12250000 0.12250700 13363.78320291 0 178.40079379 0 5884.23489933 0 8.57082226 0 1776.21082647 0 16887
0.12350000 0.12352200 13153.93775665 0 142.21909111 0 5518.59140954 0 17.71674527 0 514.34427640 0 16407
0.12450000 0.12449800 12972.92942246 0 94.92223449 0 5602.47413206 0 59.32781068 0 742.07095038 0 16306
0.12550000 0.12549900 12808.11423581 0 111.87801274 0 5588.17757920 0 48.42704959 0 687.94812751 0 17523
0.12650000 0.12650100 12756.09652212 0 -30.55181111 0 4661.60789494 0 647.52847847 0 782.46841702 0 17154
0.12750000 0.12750600 12815.87807367 0 -108.54765903 0 4525.09744291 0 551.29903551 0 -232.71549437 0 18007
0.12850000 0.12850300 12881.20522370 0 84.74772497 0 3933.43754170 0 102.20382711 0 440.04434804 0 17496
0.12950000 0.12949900 12541.48186117 0 285.54730191 0 4345.85260903 0 -404.32514827 0 253.34733893 0 18405
0.13050000 0.13049000 12504.54817533 0 190.32383051 0 4146.34415832 0 -183.07129683 0 112.37157100 0 18100
0.13150000 0.13148800 12123.23282425 0 99.56600774 0 4633.63589624 0 -100.87299439 0 -288.41326720 0 19059
0.13250000 0.13249300 12001.89512964 0 259.57837338 0 4731.52680051 0 -165.31539963 0 -236.10940063 0 18957
0.13350000 0.13349100 11624.79443340 0 256.09795577 0 5092.21252526 0 -267.25015431 0 -461.19082414 0 19468
0.13450000 0.13450700 11580.42964561 0 143.64985551 0 5280.44122867 0 191.26214577 0 -218.03407697 0 19953
0.13550000 0.13551000 11327.99400307 0 27.93772690 0 5045.13039422 0 629.17809312 0 160.05706316 0 19956
0.13650000 0.13649900 11398.09036778 0 -11.28451651 0 4449.93240119 0 659.53248093 0 1037.54487356 0 19723
0.13750000 0.13749600 11474.06506688 0 -22.72985538 0 4465.00533784 0 531.70643610 0 551.53195064 0 20946
0.13850000 0.13851100 11366.48045648 0 136.76776781 0 4261.03822596 0 -14.17543700 0 1148.04979611 0 20955
0.13950000 0.13949800 11079.35154988 0 325.93256824 0 4494.84065763 0 -439.38109446 0 1151.08878407 0 20506
0.14050000 0.14048300 10899.52997376 0 139.95094133 0 4697.98702093 0 -171.37230229 0 1429.51110107 0 21447
0.14150000 0.14148400 10664.15259213 0 133.51139238 0 4894.88904036 0 71.29743043 0 1010.75297821 0 21771
0.14250000 0.14249400 10730.53340586 0 56.41282230 0 5156.09781968 0 134.94326591 0 1453.07989458 0 22470
0.14350000 0.14350900 10397.39821432 0 69.53648109 0 4805.24998662 0 305.10219125 0 534.70105928 0 22519
0.14450000 0.14449900 10652.11864344 0 83.03712966 0 4821.23240142 0 -33.31706834 0 954.01041462 0 22218
0.14550000 0.14550500 10141.73503347 0 188.16437447 0 4609.11325979 0 55.50644969 0 847.45284906 0 23559
0.14650000 0.14650700 10083.89444139 0 122.98362824 0 4406.89855703 0 135.13958010 0 462.02044567 0 23044
0.14750000 0.14750500 10101.82890685 0 -176.03615060 0 4072.44351305 0 808.92313998 0 1010.92156440 0 23649
0.14850000 0.14849900 10154.01298849 0 -57.19763540 0 3412.61711541 0 529.01238436 0 210.17929129 0 23640
0.14950000 0.14949500 10020.29751808 0 170.61366442 0 2916.11968402 0 313.52706445 0 680.66232023 0 24457
0.15050000 0.15050000 9747.62044111 0 246.35433925 0 3263.85089074 0 -483.00055382 0 375.62113057 0 24591
0.15150000 0.15149900 9413.97505452 0 166.02079976 0 2883.05682592 0 -13.75552428 0 364.59204432 0 25020
0.15250000 0.15250500 9415.89383159 0 86.19956265 0 3312.19741824 0 141.10997141 0 362.88843647 0 25297
0.15350000 0.15350100 9366.12763088 0 -98.32701013 0 2783.42460373 0 275.19810604 0 134.97986686 0 25452
0.15450000 0.15450400 9454.76847689 0 -64.99574506 0 2812.55008692 0 363.22449974 0 509.96769008 0 26061
0.15550000 0.15549900 9494.26422922 0 132.72169916 0 2357.73337366 0 16.84686269 0 639.25555467 0 26128
0.15650000 0.15649500 9317.78110338 0 155.82798976 0 2914.98838193 0 -12.66259773 0 806.55295119 0 26331
0.15750000 0.15749700 9252.66468610 0 106.27662554 0 2695.06103765 0 -217.75125145 0 367.41808130 0 27345
0.15850000 0.15849900 9162.98126758 0 55.88166488 0 3292.34417570 0 -19.36223525 0 954.65370404 0 26980
0.15950000 0.15949700 9028.22322466 0 104.79772534 0 2808.75689756 0 -76.38108055 0 271.23743961 0 27777
0.16050000 0.16050000 9072.84310998 0 10.96868359 0 3262.73067985 0 13.93919450 0 675.03908338 0 28224
0.16150000 0.16150500 9015.25761542 0 69.27140148 0 2834.18901216 0 -121.51071729 0 -349.42039602 0 28075
0.16250000 0.16249700 8904.31237235 0 111.09608335 0 3002.89720894 0 -145.85034899 0 -0.60992599 0 28590
0.16350000 0.16349900 8877.93750601 0 84.91231833 0 2865.86547065 0 5.23649791 0 -488.38865730 0 29163
0.16450000 0.16449100 8694.52238208 0 77.60144495 0 3130.19087632 0 127.34468688 0 -548.21790100 0 28996
0.16550000 0.16550500 8657.45560187 0 43.45641876 0 2660.19031444 0 370.07664121 0 -229.01325283 0 30777
0.16650000 0.16650700 8524.16159695 0 2.83827057 0 2281.05992916 0 467.51280640 0 -616.98886767 0 29211
0.16750000 0.16749900 8632.21203762 0 77.87051739 0 2343.37027361 0 94.84015963 0 191.04586743 0 30922
0.16850000 0.16850800 8399.72945839 0 35.96875170 0 1984.10422207 0 287.07123237 0 28.25781885 0 30867
0.16950000 0.16949900 8389.18173009 0 -5.93075138 0 2115.79000343 0 69.52084250 0 418.88678074 0 30852
0.17050000 0.17049200 8430.75153625 0 16.58699595 0 1537.47281216 0 73.11317028 0 -97.51679819 0 31257
0.17150000 0.17149500 8393.18565219 0 135.24494647 0 2171.52326810 0 -190.20293647 0 -262.41661068 0 32608
0.17250000 0.17250900 8255.41080370 0 150.59405392 0 1933.26217526 0 -305.94290398 0 -198.25181809 0 32361
0.17350000 0.17350400 8023.13895721 0 133.41378985 0 2200.95930480 0 -65.02491491 0 -447.53090598 0 32508
0.17450000 0.17449800 7904.51860585 0 167.31292420 0 2634.04836323 0 -266.89856336 0 -496.75141980 0 32791
0.17550000 0.17549800 7734.95638690 0 170.95970976 0 2337.88013112 0 59.45025750 0 -812.20169780 0 33633
0.17650000 0.17650100 7664.47183030 0 60.72419238 0 2801.39234279 0 189.98998548 0 -108.30986377 0 33984
0.17750000 0.17750300 7550.95342953 0 -6.48668654 0 2328.07551302 0 192.35795603 0 -40.59677545 0 34069
0.17850000 0.17849800 7563.67503243 0 -87.86912053 0 2072.83379765 0 669.51455818 0 370.20086262 0 34536
