### header ###
fiducial parameters:
Omega_m = 0.31
Omega_nu = 0
Omega_de = 0.69
Omega_k = 0
H_0 = 100
w_de = -1
zeff = 0
beta = 0
fgrowth = 0
b_1 = 2
gamma = 0.55
Lx = 3500 Ly = 3500 Lz = 3500
nx = 700 ny = 700 nz = 700
xoffset = 1379.75464 yoffset = 22.6059522 zoffset = 368.141391
bins = 400 dk = 0.001
kx_ny = 0.628318531 ky_ny = 0.628318531 kz_ny = 0.628318531
############################
A(data) = 3.37373271 (not used)
A(ran) = 3.37587756 (used)
Ngal = 189409
weighted Ngal = 0
Nran = 9399747
weighted Nran = 0
SN(data) = 6639.48663
SN(ran) = 134.276822
SN(data+ran) = 6773.76346
############################
13 columns: k_central k_mean P_0(k) sigma^{lin}_{P_0(k)} P^img_1(k) sigma^{lin}_{P_1(k)} P_2(k) sigma^{lin}_{P_2(k)} P^img_3(k) sigma^{lin}_{P_3(k)} P_4(k) sigma^{lin}_{P_4(k)} N_modes
### header ###
0.00050000 0 0 0 0 0 0 0 0 0 0 0 0
0.00150000 0.00179520 9128.36564190 0 -15714.00783624 0 -22165.86801299 0 27479.21682301 0 28833.67379432 0 3
0.00250000 0.00253879 18161.83500271 0 -15337.57261182 0 -3306.58527258 0 -37933.22450656 0 -19428.22787026 0 6
0.00350000 0.00331552 26479.45633010 0 -4834.91893846 0 -23280.20057038 0 490.29412493 0 7557.44177975 0 7
0.00450000 0.00420575 32653.26019935 0 459.41623263 0 -10589.84157257 0 -20623.08251749 0 2248.54053971 0 24
0.00550000 0.00557378 24394.20039186 0 3010.18412534 0 237.61558518 0 -10436.48359237 0 7290.18829808 0 45
0.00650000 0.00659388 32845.24881853 0 -5326.88007029 0 -15133.16185206 0 11449.55352162 0 -23058.59845535 0 40
0.00750000 0.00754703 34323.48354779 0 -9542.06728807 0 -4761.41757628 0 -4139.87799050 0 -11456.65188767 0 57
0.00850000 0.00846663 42676.15305752 0 -2183.03593053 0 -13420.12648341 0 -21930.06916587 0 -26303.99359437 0 75
0.00950000 0.00948925 44569.86402446 0 -2159.43386343 0 -8951.35013861 0 -13293.68683820 0 -14704.93073789 0 112
0.01050000 0.01054430 47942.58610445 0 -938.89311318 0 7870.73481994 0 -10341.69822325 0 -23856.05551593 0 105
0.01150000 0.01145670 51896.37599255 0 -3241.92359437 0 -4076.74689747 0 2039.01673816 0 -23248.14701120 0 144
0.01250000 0.01249090 59602.09598430 0 -6156.65687878 0 4698.70794874 0 6345.08522373 0 -14036.57520979 0 169
0.01350000 0.01339930 66632.47299387 0 -5462.05957870 0 -18611.91577487 0 7743.41897017 0 4980.23580087 0 180
0.01450000 0.01448870 73682.03777416 0 -4404.72468243 0 -6993.68733007 0 4860.68378897 0 881.24550792 0 267
0.01550000 0.01550050 76951.83354646 0 1086.51139896 0 -12349.71506594 0 -4233.99788780 0 3207.98453171 0 238
0.01650000 0.01653350 76528.37164698 0 2930.90424955 0 951.45500284 0 325.01199889 0 25155.61106236 0 315
0.01750000 0.01747870 76357.23447807 0 3775.80945067 0 4019.33886207 0 11626.23628900 0 21436.39998971 0 297
0.01850000 0.01844180 70102.68669503 0 2293.32679298 0 11716.51863216 0 -11022.38716236 0 24733.36919454 0 388
0.01950000 0.01947590 61098.96392443 0 6516.57731094 0 24918.37035963 0 -3270.29487617 0 16548.62040660 0 399
0.02050000 0.02045430 60522.66533100 0 1248.20330455 0 19961.04897166 0 -3338.06208952 0 24677.24773798 0 462
0.02150000 0.02154770 63595.70326944 0 -5651.65249933 0 23567.90621922 0 5057.09779572 0 7042.35550227 0 571
0.02250000 0.02255340 74428.03168090 0 -4789.46721336 0 29401.43216610 0 3068.59036847 0 11364.59495300 0 510
0.02350000 0.02348930 77550.31453379 0 -3288.34025360 0 6538.21623619 0 3450.34936743 0 -9803.05424346 0 555
0.02450000 0.02439640 77362.65148143 0 -2062.89608519 0 17069.57392725 0 -150.09495006 0 -5012.33372484 0 592
0.02550000 0.02547300 81074.43145212 0 2698.66567665 0 11575.21678304 0 -9260.45070636 0 -18902.50513492 0 837
0.02650000 0.02652900 81545.47458651 0 3112.87751788 0 21023.36381536 0 -6619.28179468 0 -25866.66769871 0 723
0.02750000 0.02749970 70025.38105230 0 2678.63497497 0 18639.20011937 0 -5861.27612165 0 -18315.89172833 0 826
0.02850000 0.02848090 71823.70772548 0 5023.87966086 0 25393.51723689 0 -3506.22681765 0 -31444.87429184 0 831
0.02950000 0.02946900 66359.51863697 0 2556.90908846 0 22750.15226822 0 2914.78874039 0 -23889.55093072 0 996
0.03050000 0.03053250 61134.23393072 0 2800.73796217 0 26471.02702041 0 3840.04966340 0 -20609.32943328 0 1041
0.03150000 0.03150510 58214.03268623 0 1888.52028677 0 22410.98346555 0 2799.58447769 0 -11970.83977819 0 1036
0.03250000 0.03246190 52784.22630826 0 4450.15422513 0 24398.19322276 0 3587.38110572 0 -8040.45231564 0 1059
0.03350000 0.03345080 51478.45969154 0 2535.85799665 0 25642.18187247 0 1799.01432740 0 -1744.32363524 0 1302
0.03450000 0.03451200 46389.70761973 0 1491.21142969 0 23934.80301426 0 3738.03283387 0 -472.42287929 0 1339
0.03550000 0.03553350 47358.19093725 0 -309.11720455 0 23342.75492117 0 5785.44560812 0 7586.68926610 0 1365
0.03650000 0.03647120 43286.94527346 0 966.20962214 0 23644.87912604 0 1449.57507634 0 7743.86261805 0 1308
0.03750000 0.03744890 44871.87731736 0 757.62191762 0 20863.09601945 0 3453.01125469 0 7870.53517840 0 1579
0.03850000 0.03847530 44881.08301083 0 -1010.22060075 0 17273.65195110 0 4134.90913427 0 10490.68627185 0 1662
0.03950000 0.03950240 45607.11276306 0 -843.19826591 0 15648.79159819 0 4319.83266098 0 9218.86980900 0 1683
0.04050000 0.04050350 46076.15948200 0 -955.51992653 0 11406.07602958 0 922.00676583 0 6618.33904294 0 1822
0.04150000 0.04152450 46156.68157185 0 1191.39419378 0 9981.28977842 0 -736.65844627 0 3506.33772962 0 1887
0.04250000 0.04250150 44672.90124411 0 1915.18352423 0 9151.47969634 0 -710.28357992 0 2297.58581261 0 1920
0.04350000 0.04349210 43300.47653374 0 376.88774526 0 9791.12011554 0 -0.40921193 0 1077.98448675 0 2005
0.04450000 0.04448520 42734.49275347 0 634.09482073 0 12359.25349531 0 -1571.58933397 0 -4596.10328577 0 2151
0.04550000 0.04548030 40564.50007055 0 2146.31297744 0 13696.29728742 0 -4041.22179365 0 -4844.84555973 0 2274
0.04650000 0.04648670 37354.26402586 0 1823.95842933 0 15505.38242165 0 -3929.59998756 0 -8116.95939219 0 2311
0.04750000 0.04749250 38905.36791907 0 -139.86664824 0 18983.80360855 0 1201.94192208 0 -5108.39458161 0 2568
0.04850000 0.04851840 38024.17232153 0 -1109.97371699 0 16717.42842415 0 3790.56074262 0 -9397.01661438 0 2493
0.04950000 0.04949480 39996.51987483 0 472.29976701 0 20452.49990843 0 -132.76051835 0 -4238.35672820 0 2644
0.05050000 0.05050630 39227.01263057 0 618.18006223 0 14965.46295421 0 -600.26999739 0 -5272.46665806 0 2829
0.05150000 0.05149060 39270.82285851 0 -252.02083178 0 18884.87013177 0 3242.47815422 0 527.14684503 0 2784
0.05250000 0.05249300 39982.76679062 0 -807.65541617 0 19047.57799100 0 3110.29326899 0 3777.45094782 0 3055
0.05350000 0.05348950 40506.16037460 0 -326.26752239 0 15574.25875469 0 4257.02321267 0 4515.08209206 0 3009
0.05450000 0.05448610 40502.38936764 0 571.51939666 0 15245.62658912 0 1586.64008823 0 9259.13085392 0 3336
0.05550000 0.05550870 39745.63699986 0 1287.67687449 0 14486.98871786 0 522.75362192 0 6057.39066609 0 3349
0.05650000 0.05647670 38648.16306184 0 727.45386192 0 16853.85014661 0 -749.87138919 0 10159.07057430 0 3324
0.05750000 0.05747970 37030.51198694 0 849.41488180 0 15366.74245979 0 -346.89936695 0 5110.63500339 0 3639
0.05850000 0.05849280 37069.88573611 0 1124.80264731 0 17358.05595988 0 -1486.39785021 0 6586.80677002 0 3846
0.05950000 0.05951020 34026.57220548 0 1124.66955294 0 15387.70482203 0 -1210.54869091 0 -541.79498884 0 3787
0.06050000 0.06049470 34393.80173644 0 522.94106315 0 18187.23384373 0 391.32737457 0 790.21118161 0 3930
0.06150000 0.06148310 32731.56404981 0 128.73885034 0 14737.64976889 0 1660.82910462 0 -1731.04747250 0 4083
0.06250000 0.06249100 34347.10779729 0 -507.35904056 0 12997.55187968 0 2424.94602717 0 -607.48371189 0 4303
0.06350000 0.06350600 33226.67508158 0 -84.01692600 0 12213.07151954 0 1561.10815286 0 -2288.14720401 0 4470
0.06450000 0.06451750 33618.85980567 0 481.50656959 0 9378.23921795 0 871.29337690 0 -3048.88131149 0 4479
0.06550000 0.06550280 32270.83572858 0 102.07162004 0 10700.83118043 0 375.20299244 0 -2038.87255260 0 4636
0.06650000 0.06648880 33216.80391629 0 210.83478103 0 8287.09835338 0 188.13997383 0 -2142.87470638 0 4653
0.06750000 0.06749660 32239.33672925 0 136.27642778 0 8954.96586881 0 1303.92547802 0 -3391.76566515 0 5220
0.06850000 0.06852730 31427.57202461 0 423.34766015 0 7236.93946153 0 672.03115077 0 -2401.24413929 0 5029
0.06950000 0.06949320 30115.70524957 0 1142.39328567 0 6366.71305778 0 -305.21975794 0 -2473.65856417 0 5040
0.07050000 0.07048030 29478.29416096 0 387.62956950 0 6518.93973589 0 1906.77639694 0 442.03410877 0 5475
0.07150000 0.07148790 28773.00494702 0 -271.40380756 0 6484.56811655 0 2615.34860518 0 -327.36222353 0 5509
0.07250000 0.07249820 28815.81696724 0 280.83243409 0 3022.95009303 0 1172.93844206 0 675.11339440 0 5916
0.07350000 0.07351270 28237.18922245 0 626.41305772 0 3525.66968590 0 -269.60925190 0 2039.33838287 0 5721
0.07450000 0.07449140 27320.16905877 0 501.41304987 0 3012.61309747 0 -1457.26127583 0 -84.65422618 0 6028
0.07550000 0.07549160 26617.76355604 0 714.39508663 0 5741.72410975 0 -1313.79664330 0 2238.53628006 0 6183
0.07650000 0.07648840 26116.77418989 0 607.51143988 0 5193.78570691 0 -1160.82685499 0 -1560.14321872 0 6330
0.07750000 0.07749960 25645.73105550 0 465.53968247 0 8337.01983084 0 -554.97909466 0 587.69147093 0 6583
0.07850000 0.07848650 25085.51469764 0 438.61469275 0 8110.38231240 0 -175.88531032 0 -1326.86207331 0 6549
0.07950000 0.07947320 24848.71764280 0 266.83423442 0 8619.98953858 0 459.88206290 0 834.75231944 0 6828
0.08050000 0.08048110 23952.10528150 0 580.68959830 0 8017.52681155 0 344.19422401 0 113.73024263 0 7147
0.08150000 0.08149960 24209.86469858 0 -77.82160521 0 8933.20494040 0 713.30038549 0 1640.46566702 0 7386
0.08250000 0.08250610 23487.05139346 0 250.70208846 0 7786.89646221 0 305.00458872 0 -18.54270671 0 7227
0.08350000 0.08350160 23783.29726395 0 229.19293022 0 7968.82536575 0 -11.51377155 0 31.72082327 0 7798
0.08450000 0.08449610 22654.43523856 0 446.22436298 0 7039.56052064 0 -762.39224143 0 -490.98177914 0 7371
0.08550000 0.08548940 22983.62196398 0 296.93241558 0 7698.59944331 0 13.35180471 0 -1531.70538975 0 8256
0.08650000 0.08650700 22415.08720842 0 262.58186951 0 7811.08636276 0 161.58764834 0 -1492.96383881 0 8037
0.08750000 0.08749060 21905.11397274 0 312.46009131 0 6979.44623318 0 157.25875417 0 -2617.77757731 0 8155
0.08850000 0.08849210 22160.54423846 0 94.26763205 0 8510.90761660 0 -262.88355007 0 -936.17798817 0 8718
0.08950000 0.08949900 21286.66883091 0 246.32439302 0 6932.53047009 0 547.78867167 0 -2671.11514343 0 8571
0.09050000 0.09049190 21098.34030673 0 594.24304097 0 9036.25325125 0 -337.06369350 0 -1652.24451818 0 8932
0.09150000 0.09150830 20868.53070596 0 406.58331597 0 7949.22722075 0 -495.37943873 0 -1001.71143446 0 9285
0.09250000 0.09250820 20200.95156165 0 154.54141092 0 8900.34172384 0 905.80585444 0 -1460.22262542 0 9204
0.09350000 0.09350330 19969.47828134 0 537.58809784 0 8918.02109178 0 183.17000848 0 -211.87846266 0 9349
0.09450000 0.09448040 19264.18906740 0 84.35398748 0 7550.94233833 0 1215.00735209 0 -725.07147281 0 9564
0.09550000 0.09549270 18999.22037231 0 128.14879866 0 7336.72696048 0 1236.50209177 0 1306.73155085 0 10155
0.09650000 0.09649430 18522.18799156 0 411.14179791 0 6940.46067591 0 488.80457718 0 519.07245366 0 9913
0.09750000 0.09749140 18227.71671259 0 298.13137397 0 6098.76083071 0 -63.43044443 0 1284.63788653 0 10476
0.09850000 0.09850240 17401.86618782 0 328.96268324 0 6249.78965955 0 525.80702844 0 1637.75941497 0 10575
0.09950000 0.09950330 17295.72343303 0 251.98977642 0 6399.18808244 0 259.69261270 0 873.77447766 0 10882
0.10050000 0.10051200 16981.62073545 0 318.53695811 0 5604.41509153 0 -290.50728519 0 697.17600337 0 10875
0.10150000 0.10150300 16422.29167336 0 327.71381447 0 6611.81741914 0 -351.82385839 0 224.21631015 0 11118
0.10250000 0.10250800 16048.18560029 0 285.90332933 0 7084.25804434 0 -204.92982777 0 1101.97807311 0 11575
0.10350000 0.10349800 15954.79772199 0 -58.47966685 0 6204.42666403 0 840.41437548 0 430.98062189 0 11364
0.10450000 0.10450100 16131.81322528 0 -95.94184823 0 6035.77392324 0 809.98678577 0 1063.71898923 0 12093
0.10550000 0.10551000 16235.07226887 0 -24.71584510 0 6131.05839622 0 345.39540064 0 761.74673376 0 12067
0.10650000 0.10649700 16150.55734812 0 203.90943765 0 5363.49211142 0 539.73757181 0 2060.18983313 0 12054
0.10750000 0.10749900 15793.64263033 0 329.36418457 0 5801.71639404 0 -276.41702858 0 2585.86820369 0 12807
0.10850000 0.10850100 15564.83123729 0 49.74113460 0 5107.50728585 0 587.33877087 0 1301.35232033 0 12736
0.10950000 0.10950300 15302.41351749 0 21.96611556 0 5938.39321403 0 55.91405118 0 1262.88804931 0 12933
0.11050000 0.11050200 15526.01204797 0 303.82226712 0 5083.20647334 0 -625.05105874 0 710.89026840 0 13428
0.11150000 0.11150900 14737.76068086 0 386.88202283 0 6407.05174108 0 -783.61524679 0 654.65013603 0 13453
0.11250000 0.11250000 14689.29215020 0 216.56782073 0 5733.90481590 0 -151.68542770 0 -549.09521467 0 13668
0.11350000 0.11349100 14408.90669134 0 -43.22139630 0 6022.68631084 0 608.67934292 0 364.66746446 0 13791
0.11450000 0.11448600 14850.55815382 0 -233.50407847 0 5391.14246541 0 581.39610755 0 -577.21916278 0 14205
0.11550000 0.11549300 14826.15752054 0 -93.64807778 0 5665.73831945 0 218.86813498 0 -367.98373235 0 14776
0.11650000 0.11649800 14946.05335955 0 316.24551682 0 5163.71747199 0 -366.23021411 0 -109.73208795 0 14553
0.11750000 0.11747300 14575.16373360 0 330.86704176 0 6043.97031778 0 -451.17325506 0 -187.01976294 0 14568
0.11850000 0.11849100 14186.63910450 0 227.42721166 0 6600.52658064 0 -424.95255635 0 146.24408648 0 16015
0.11950000 0.11950300 14267.49393025 0 12.12256735 0 6396.84783989 0 458.43022522 0 56.76718604 0 15270
0.12050000 0.12050700 14367.98017461 0 -89.58104678 0 6812.36844236 0 653.44674116 0 422.75760848 0 15999
0.12150000 0.12150000 14414.89593770 0 72.17740600 0 6064.71085608 0 383.57573702 0 252.69406743 0 15670
0.12250000 0.12250700 14100.57141618 0 126.48622824 0 6372.25865625 0 261.49604133 0 1417.72115871 0 16887
0.12350000 0.12352200 14116.65365176 0 163.10159672 0 5627.75096991 0 511.66353409 0 1188.53266497 0 16407
0.12450000 0.12449800 13772.60472242 0 146.41710915 0 5599.40187051 0 606.48994064 0 1869.45451921 0 16306
0.12550000 0.12549900 13617.21705318 0 -39.87296394 0 4850.10278708 0 803.32430376 0 1409.92404726 0 17523
0.12650000 0.12650100 13574.84868084 0 31.01109758 0 4414.20765582 0 363.20342646 0 1859.88281625 0 17154
0.12750000 0.12750600 13409.92258222 0 97.79052893 0 3899.05483116 0 134.68262278 0 1337.73144632 0 18007
0.12850000 0.12850300 13252.76032146 0 206.17093271 0 3574.48204367 0 118.76564604 0 1523.75300153 0 17496
0.12950000 0.12949900 13028.60723114 0 -18.02430416 0 3571.95325077 0 341.64990343 0 1413.67287182 0 18405
0.13050000 0.13049000 13143.40111955 0 -43.57576004 0 2837.48309766 0 372.49784951 0 962.69371271 0 18100
0.13150000 0.13148800 12890.41091716 0 207.38541878 0 3233.63847025 0 189.62286686 0 1034.09107483 0 19059
0.13250000 0.13249300 12660.49040443 0 293.83131691 0 3376.58181652 0 -496.95660694 0 1128.28528315 0 18957
0.13350000 0.13349100 12247.67605401 0 290.04367315 0 3265.58111747 0 -124.70609113 0 1149.03691264 0 19468
0.13450000 0.13450700 12105.15417323 0 282.62033504 0 3896.59258544 0 -337.77131186 0 1415.61383129 0 19953
0.13550000 0.13551000 11750.23587089 0 52.70680975 0 3862.69788757 0 201.00798053 0 697.40891851 0 19956
0.13650000 0.13649900 11852.27488281 0 -1.24534178 0 3705.53562681 0 444.92669294 0 1889.49631210 0 19723
0.13750000 0.13749600 11741.25200136 0 -59.62893668 0 3406.27295075 0 528.32362103 0 1378.68014545 0 20946
0.13850000 0.13851100 12024.52117142 0 -76.12908856 0 3046.55216013 0 574.40976259 0 1726.74408808 0 20955
0.13950000 0.13949800 11967.17968319 0 107.70195526 0 3043.49098977 0 -155.62612998 0 1777.36431095 0 20506
0.14050000 0.14048300 11778.40751113 0 311.10363792 0 3011.99199044 0 -611.97342841 0 1786.83619315 0 21447
0.14150000 0.14148400 11389.99379401 0 164.38041173 0 3504.61859409 0 -205.95021789 0 1429.47782747 0 21771
0.14250000 0.14249400 11337.64334441 0 28.67185323 0 3500.44830404 0 119.90693021 0 1384.68048300 0 22470
0.14350000 0.14350900 11258.56311017 0 146.55242176 0 3649.17016392 0 -26.77448217 0 1020.07623836 0 22519
0.14450000 0.14449900 11101.17902548 0 183.42399689 0 3641.98306830 0 -164.51683345 0 561.76247071 0 22218
0.14550000 0.14550500 10989.40194263 0 164.82627785 0 3681.44554704 0 -47.42362900 0 353.24131336 0 23559
0.14650000 0.14650700 10783.98188395 0 72.83411577 0 3889.90459368 0 -207.54845937 0 171.99451844 0 23044
0.14750000 0.14750500 10668.25633500 0 36.18880105 0 3491.12060741 0 347.40401641 0 488.77684919 0 23649
0.14850000 0.14849900 10735.41353252 0 -52.53423073 0 3395.80286083 0 592.61928974 0 283.26140622 0 23640
0.14950000 0.14949500 10675.06632992 0 98.63279443 0 2772.63286910 0 160.88890293 0 479.04210563 0 24457
0.15050000 0.15050000 10529.00635731 0 49.35161176 0 2629.43442530 0 624.92905557 0 551.81144881 0 24591
0.15150000 0.15149900 10454.98370888 0 101.50286346 0 2279.19660807 0 119.49877416 0 1086.87629934 0 25020
0.15250000 0.15250500 10140.14899231 0 228.31894390 0 2527.55069014 0 58.06529974 0 719.35285167 0 25297
0.15350000 0.15350100 9883.16595902 0 225.76131388 0 2092.09920675 0 -39.17211121 0 872.45018874 0 25452
0.15450000 0.15450400 9429.85764855 0 255.96264317 0 2501.24237098 0 -69.48590523 0 1005.95714465 0 26061
0.15550000 0.15549900 9290.13074939 0 139.86332088 0 2256.21564800 0 214.41169204 0 888.15088714 0 26128
0.15650000 0.15649500 9175.13721943 0 -26.80187743 0 2433.55279600 0 319.51631080 0 1231.49996195 0 26331
0.15750000 0.15749700 9111.85084965 0 44.23380076 0 1813.00032675 0 180.28851551 0 694.93890895 0 27345
0.15850000 0.15849900 9194.35826374 0 80.90262881 0 2218.38357520 0 -131.29980771 0 1321.50502518 0 26980
0.15950000 0.15949700 9082.20408020 0 51.34170523 0 1938.78559134 0 -268.21730668 0 657.84107339 0 27777
0.16050000 0.16050000 9168.16085655 0 -12.06833140 0 2256.37092475 0 62.42158916 0 1197.91581759 0 28224
0.16150000 0.16150500 9186.52787870 0 -25.78182004 0 2231.13845170 0 161.85827354 0 868.65256291 0 28075
0.16250000 0.16249700 9341.69372400 0 -2.12863361 0 2245.62355491 0 -118.52718531 0 598.65844648 0 28590
0.16350000 0.16349900 9326.62078735 0 82.83748812 0 2170.60269875 0 122.73185807 0 753.76772668 0 29163
0.16450000 0.16449100 9010.22221201 0 205.48327850 0 2404.60477197 0 -278.42342611 0 500.43924278 0 28996
0.16550000 0.16550500 8929.51157182 0 182.09638062 0 2469.78773643 0 10.31957129 0 881.85663287 0 30777
0.16650000 0.16650700 8706.48978358 0 94.83539042 0 2534.14995232 0 225.50621635 0 490.15659409 0 29211
0.16750000 0.16749900 8423.12079275 0 272.14026304 0 2744.63868800 0 -300.57587378 0 717.21003242 0 30922
0.16850000 0.16850800 8165.28373730 0 294.58995478 0 2518.91064771 0 -132.83704761 0 460.02957582 0 30867
0.16950000 0.16949900 7948.45083696 0 33.22634235 0 3073.81432223 0 18.79680603 0 777.84671525 0 30852
0.17050000 0.17049200 7871.92157802 0 10.11293119 0 2627.16072993 0 302.85844211 0 239.25264585 0 31257
0.17150000 0.17149500 7928.17612894 0 -38.71249200 0 2562.22177180 0 174.54993021 0 336.88179787 0 32608
0.17250000 0.17250900 7983.92048480 0 -8.32420950 0 2461.34733555 0 58.32483374 0 452.91900946 0 32361
0.17350000 0.17350400 8034.17469817 0 45.23511402 0 2131.47295592 0 26.11289227 0 338.59206044 0 32508
0.17450000 0.17449800 7917.26239114 0 33.52769017 0 2565.36058053 0 161.63977696 0 961.03225141 0 32791
0.17550000 0.17549800 7952.47694145 0 74.02996862 0 2265.54334463 0 160.27445062 0 592.55939728 0 33633
0.17650000 0.17650100 7840.71094980 0 46.57104869 0 2441.05044514 0 190.23621006 0 960.70727934 0 33984
0.17750000 0.17750300 7779.23244512 0 83.35821982 0 2059.05853104 0 33.81550673 0 839.35516617 0 34069
0.17850000 0.17849800 7713.25091447 0 41.69668946 0 2224.30627438 0 151.23734335 0 1366.55746719 0 34536
