### header ###
fiducial parameters:
Omega_m = 0.31
Omega_nu = 0
Omega_de = 0.69
Omega_k = 0
H_0 = 100
w_de = -1
zeff = 0
beta = 0
fgrowth = 0
b_1 = 2
gamma = 0.55
Lx = 3500 Ly = 3500 Lz = 3500
nx = 700 ny = 700 nz = 700
xoffset = 1379.75464 yoffset = 22.6059522 zoffset = 368.141391
bins = 400 dk = 0.001
kx_ny = 0.628318531 ky_ny = 0.628318531 kz_ny = 0.628318531
############################
A(data) = 3.34105125 (not used)
A(ran) = 3.33961775 (used)
Ngal = 187228
weighted Ngal = 0
Nran = 9399747
weighted Nran = 0
SN(data) = 6679.43477
SN(ran) = 132.834575
SN(data+ran) = 6812.26934
############################
13 columns: k_central k_mean P_0(k) sigma^{lin}_{P_0(k)} P^img_1(k) sigma^{lin}_{P_1(k)} P_2(k) sigma^{lin}_{P_2(k)} P^img_3(k) sigma^{lin}_{P_3(k)} P_4(k) sigma^{lin}_{P_4(k)} N_modes
### header ###
0.00050000 0 0 0 0 0 0 0 0 0 0 0 0
0.00150000 0.00179520 73852.73129519 0 -67843.52078864 0 -122273.79163599 0 129948.89992416 0 -151.94939819 0 3
0.00250000 0.00253879 122202.80797552 0 -57939.74738570 0 -36981.26707249 0 -101582.05460938 0 26544.22892027 0 6
0.00350000 0.00331552 152045.89160410 0 -23733.16505375 0 -91783.53666547 0 -68695.87927411 0 -33523.91915979 0 7
0.00450000 0.00420575 157087.94973676 0 6596.93303283 0 -44647.94605098 0 -102619.08152404 0 1924.21175855 0 24
0.00550000 0.00557378 125042.15439426 0 21699.26135738 0 -19250.10324727 0 -51261.29405530 0 7227.85577123 0 45
0.00650000 0.00659388 89654.58141126 0 11254.90301518 0 29062.37427540 0 9463.50834009 0 -27149.58644971 0 40
0.00750000 0.00754703 92658.18845681 0 4380.85642659 0 -622.83725582 0 -18171.04069618 0 -27106.99625343 0 57
0.00850000 0.00846663 77200.83091795 0 7552.58383548 0 25754.75752150 0 -10674.68922923 0 -41660.19941707 0 75
0.00950000 0.00948925 66231.41531222 0 11496.02563683 0 23817.45815055 0 -14372.74938929 0 -13876.64014980 0 112
0.01050000 0.01054430 61594.74042802 0 3194.20926510 0 34030.78686032 0 4884.89587191 0 -9082.45917773 0 105
0.01150000 0.01145670 57696.73926056 0 -1538.28246954 0 31927.78500697 0 16790.18667613 0 -4763.35853575 0 144
0.01250000 0.01249090 68500.11964798 0 -1971.12752164 0 27474.22578438 0 10948.08723400 0 -10858.76982498 0 169
0.01350000 0.01339930 68202.43192189 0 3359.59010280 0 23937.68672547 0 -4950.18974834 0 -3347.58942770 0 180
0.01450000 0.01448870 59199.81827099 0 8117.93541752 0 46054.08800007 0 -7834.78825063 0 16392.45635356 0 267
0.01550000 0.01550050 55216.52579900 0 6677.47730507 0 40664.09901915 0 8721.81781776 0 9680.72943232 0 238
0.01650000 0.01653350 57184.76960943 0 -4749.76072829 0 47884.57914441 0 17561.13577600 0 18814.77376706 0 315
0.01750000 0.01747870 57229.02348526 0 -800.39068217 0 50655.60378995 0 13599.36022609 0 12098.38854309 0 297
0.01850000 0.01844180 53119.51319200 0 4065.22314384 0 31733.79997235 0 5263.08350545 0 28453.68938688 0 388
0.01950000 0.01947590 58280.80169186 0 -6586.92877319 0 23719.19014559 0 24541.71331127 0 32468.81359410 0 399
0.02050000 0.02045430 68512.98543644 0 -9662.65078129 0 13997.09054866 0 17446.23097562 0 22953.34299632 0 462
0.02150000 0.02154770 75105.59290246 0 -1587.50520159 0 -2648.17854815 0 3429.64210272 0 25000.99977690 0 571
0.02250000 0.02255340 75299.68884906 0 1563.79222252 0 4697.66537622 0 -3236.93255575 0 25048.24827590 0 510
0.02350000 0.02348930 72003.71785195 0 -3158.81725564 0 -73.43292949 0 -1655.80479240 0 16093.32677187 0 555
0.02450000 0.02439640 80117.48297942 0 367.53675711 0 2524.60043175 0 -1907.40859517 0 -3282.15136571 0 592
0.02550000 0.02547300 71199.16242533 0 8411.69685990 0 12375.11390695 0 -15375.61541735 0 3319.72834097 0 837
0.02650000 0.02652900 62189.33949641 0 8635.72794705 0 25067.32513465 0 -17413.29012068 0 -2771.54593180 0 723
0.02750000 0.02749970 57007.53228220 0 3882.06311744 0 41684.93278626 0 -4542.90990520 0 -9077.60123347 0 826
0.02850000 0.02848090 52517.15028574 0 1344.56362364 0 42060.25889099 0 5451.70040075 0 -5573.60374641 0 831
0.02950000 0.02946900 53708.78848586 0 -2557.26400676 0 37387.09396882 0 12869.22673099 0 1985.66808084 0 996
0.03050000 0.03053250 57631.74484645 0 -3979.37727946 0 28698.58301550 0 10886.73073248 0 221.66755309 0 1041
0.03150000 0.03150510 60932.26323430 0 -1159.85082966 0 28582.34727148 0 9429.89092214 0 1663.71281582 0 1036
0.03250000 0.03246190 60438.15041025 0 863.96764132 0 20125.97507028 0 -987.35498913 0 11743.35932878 0 1059
0.03350000 0.03345080 58857.76575710 0 3285.55636317 0 23112.27984858 0 -4751.35786065 0 6544.57149204 0 1302
0.03450000 0.03451200 55062.35816142 0 2367.92618366 0 26734.88659581 0 -726.47118187 0 7036.56589747 0 1339
0.03550000 0.03553350 55934.56988943 0 631.49504416 0 26530.91948393 0 4108.22371441 0 4567.38817687 0 1365
0.03650000 0.03647120 49277.63348111 0 1524.48502053 0 24208.86649085 0 4888.68906126 0 3057.14425322 0 1308
0.03750000 0.03744890 51703.61098959 0 1112.72433383 0 26354.34762852 0 318.48261125 0 9244.13555565 0 1579
0.03850000 0.03847530 49596.17265746 0 233.17577904 0 24263.21335590 0 4601.64888424 0 5655.31259432 0 1662
0.03950000 0.03950240 48119.82343168 0 531.35040868 0 19295.13350688 0 3861.89932139 0 4284.98412017 0 1683
0.04050000 0.04050350 48993.58792726 0 399.43393041 0 18374.89689609 0 -2568.83212518 0 2707.05062155 0 1822
0.04150000 0.04152450 45375.19583487 0 3261.49955699 0 22669.07561853 0 -6221.19655382 0 -2695.94833340 0 1887
0.04250000 0.04250150 42441.90697798 0 4521.38189193 0 25625.43416508 0 -6988.97357136 0 -6760.38400226 0 1920
0.04350000 0.04349210 38214.27543722 0 1263.03223487 0 26552.99096586 0 2345.77706335 0 -4289.74224366 0 2005
0.04450000 0.04448520 39629.84490372 0 -1275.67619939 0 26687.30536090 0 5461.38301568 0 -3447.55438579 0 2151
0.04550000 0.04548030 39962.91354808 0 -1059.63521052 0 24006.89579443 0 6331.36541311 0 -2071.14793572 0 2274
0.04650000 0.04648670 40118.85577717 0 500.14421694 0 17274.53924686 0 4631.31783608 0 -2535.79144947 0 2311
0.04750000 0.04749250 39229.11995799 0 311.38646344 0 17880.00768826 0 681.56514367 0 6409.05924773 0 2568
0.04850000 0.04851840 39215.25596180 0 230.06026182 0 17360.71784714 0 4515.02663608 0 6422.47959603 0 2493
0.04950000 0.04949480 38412.69695063 0 1130.65879930 0 17196.90086822 0 1434.00303583 0 7434.64004714 0 2644
0.05050000 0.05050630 36989.14182232 0 1263.15423804 0 18403.29036028 0 -50.18744437 0 10419.15914274 0 2829
0.05150000 0.05149060 34514.91760711 0 918.62284164 0 17655.85459794 0 742.22844537 0 11014.84514843 0 2784
0.05250000 0.05249300 35693.57910680 0 -224.35827747 0 20051.99678663 0 2173.86351065 0 13438.53787034 0 3055
0.05350000 0.05348950 35403.98795448 0 -322.43218648 0 18287.83100005 0 2623.43408775 0 10180.49876680 0 3009
0.05450000 0.05448610 35472.86428753 0 100.11568746 0 16675.39278771 0 1121.40874104 0 13666.79470354 0 3336
0.05550000 0.05550870 35521.00008229 0 656.29274230 0 16685.59668891 0 1185.01675554 0 14130.07400007 0 3349
0.05650000 0.05647670 36236.04954954 0 -865.96072941 0 14164.01306273 0 2267.82813120 0 9992.34770177 0 3324
0.05750000 0.05747970 35216.76855000 0 482.62456224 0 15302.63534143 0 271.19196570 0 11145.65472524 0 3639
0.05850000 0.05849280 34628.49146386 0 1567.50777350 0 13061.21535017 0 -734.37920529 0 6292.30221745 0 3846
0.05950000 0.05951020 32699.06684275 0 566.54721307 0 14722.01118119 0 -1374.02184273 0 10160.16860280 0 3787
0.06050000 0.06049470 32125.43013659 0 312.09740917 0 14063.63773035 0 1584.13347772 0 3494.81397599 0 3930
0.06150000 0.06148310 33149.14761491 0 18.93988247 0 13935.97805347 0 1332.07493588 0 5588.51031510 0 4083
0.06250000 0.06249100 31699.63908575 0 -161.38024296 0 10051.74106143 0 1937.76520122 0 2534.29413788 0 4303
0.06350000 0.06350600 32129.97752734 0 -335.50538032 0 10463.41301856 0 1029.52039256 0 4999.91158426 0 4470
0.06450000 0.06451750 32145.83793897 0 365.20427839 0 7393.97971912 0 -939.46541894 0 -1430.12111690 0 4479
0.06550000 0.06550280 32141.95602004 0 662.66352583 0 10433.63315475 0 347.41510761 0 3267.13388504 0 4636
0.06650000 0.06648880 29814.91198833 0 1187.19063014 0 10131.65313544 0 -1699.40428760 0 -232.52139842 0 4653
0.06750000 0.06749660 30232.93920131 0 696.93532440 0 11381.45357236 0 -1137.05841993 0 244.63076725 0 5220
0.06850000 0.06852730 28833.45197039 0 219.16648818 0 12429.46077200 0 820.81512135 0 -1850.69930517 0 5029
0.06950000 0.06949320 28985.40136858 0 562.43126989 0 12210.40963227 0 -767.40768069 0 -524.44724770 0 5040
0.07050000 0.07048030 28521.78933614 0 113.87331907 0 12781.27353919 0 258.16979136 0 -47.04064997 0 5475
0.07150000 0.07148790 29129.58692890 0 -561.83456349 0 12722.82293128 0 721.48347060 0 -2468.93371427 0 5509
0.07250000 0.07249820 28767.23752460 0 80.80424989 0 11281.18915195 0 782.68580448 0 -1517.10937456 0 5916
0.07350000 0.07351270 29249.26094397 0 224.75534232 0 11489.70365457 0 -265.17166400 0 -2426.25478841 0 5721
0.07450000 0.07449140 28196.81726556 0 566.05143657 0 12066.33498391 0 794.71088021 0 -151.87508717 0 6028
0.07550000 0.07549160 27765.36970427 0 851.45788028 0 11832.19981633 0 738.26223334 0 600.23894204 0 6183
0.07650000 0.07648840 27190.73479038 0 560.33059718 0 12328.86361567 0 1065.62112951 0 1435.61125939 0 6330
0.07750000 0.07749960 25466.49731281 0 524.31304421 0 11607.82490207 0 687.21943587 0 1741.52865361 0 6583
0.07850000 0.07848650 25447.53136603 0 632.75722237 0 10991.32071970 0 78.46045816 0 2419.05660159 0 6549
0.07950000 0.07947320 23991.58994264 0 747.25275759 0 11814.89754909 0 -262.48537610 0 2286.78298678 0 6828
0.08050000 0.08048110 23636.33890439 0 261.28309035 0 10903.88881416 0 812.76845796 0 2600.60840443 0 7147
0.08150000 0.08149960 23028.31948769 0 95.81529767 0 11396.42668824 0 778.69297358 0 1396.03786868 0 7386
0.08250000 0.08250610 22835.22174882 0 685.20083802 0 9830.53822950 0 -368.33754153 0 1741.20700890 0 7227
0.08350000 0.08350160 22232.19337074 0 314.60734703 0 9626.89276233 0 686.65600306 0 931.20247722 0 7798
0.08450000 0.08449610 21757.82287727 0 54.90342131 0 9731.69348229 0 1070.57445807 0 1275.12163955 0 7371
0.08550000 0.08548940 21603.76615166 0 119.88252957 0 8602.86473049 0 1207.28787901 0 1384.55847983 0 8256
0.08650000 0.08650700 21318.94421403 0 182.25720297 0 7231.33840707 0 986.00962694 0 1481.28480842 0 8037
0.08750000 0.08749060 21214.02149090 0 56.13820427 0 6848.23737329 0 1212.40092080 0 1067.07074895 0 8155
0.08850000 0.08849210 20848.67746342 0 248.07458390 0 6239.77430871 0 442.85374823 0 2058.82561591 0 8718
0.08950000 0.08949900 20370.86869889 0 210.07392492 0 5802.71460176 0 -26.82439256 0 1743.04814759 0 8571
0.09050000 0.09049190 19682.65992825 0 276.39595531 0 6270.09764116 0 -195.35257921 0 934.05956955 0 8932
0.09150000 0.09150830 20063.30980752 0 238.91547346 0 5497.69559449 0 35.64865976 0 571.45617684 0 9285
0.09250000 0.09250820 19291.58432386 0 88.86965740 0 6407.57302734 0 -572.84368558 0 -704.25551438 0 9204
0.09350000 0.09350330 19214.05685719 0 330.62636279 0 5647.88149237 0 -212.74246690 0 -1037.95192048 0 9349
0.09450000 0.09448040 19464.71790822 0 -161.53773795 0 6077.66537411 0 469.70997252 0 -1826.36521907 0 9564
0.09550000 0.09549270 18929.90039138 0 344.31179070 0 5871.77948516 0 -135.81947047 0 -1491.69944235 0 10155
0.09650000 0.09649430 18562.89268436 0 602.26419461 0 5727.72701920 0 322.54088021 0 -1383.53808972 0 9913
0.09750000 0.09749140 17661.28928444 0 474.71542970 0 5988.73615698 0 -282.72237405 0 -537.49493179 0 10476
0.09850000 0.09850240 17462.09138725 0 195.09304520 0 5833.11557260 0 1341.52463568 0 277.29877874 0 10575
0.09950000 0.09950330 16983.61715090 0 74.41106215 0 5773.84421611 0 992.03325600 0 1019.96643551 0 10882
0.10050000 0.10051200 16755.13849377 0 235.82324775 0 4823.87210630 0 382.87588249 0 1612.78203944 0 10875
0.10150000 0.10150300 16622.82051418 0 171.47877778 0 4943.75685411 0 860.46836868 0 2664.01677739 0 11118
0.10250000 0.10250800 16431.05371894 0 99.70242946 0 5134.80272154 0 -29.02965524 0 3811.17927774 0 11575
0.10350000 0.10349800 15974.87278846 0 176.32673996 0 4278.34049320 0 555.97175678 0 2296.89815840 0 11364
0.10450000 0.10450100 16303.72677798 0 266.39391390 0 5003.94877995 0 -502.70739256 0 3080.35812843 0 12093
0.10550000 0.10551000 15418.98199742 0 419.26942704 0 5179.40042447 0 -490.19763152 0 2105.36427830 0 12067
0.10650000 0.10649700 15444.38083843 0 324.30881701 0 5444.13620443 0 82.76472987 0 3576.16790561 0 12054
0.10750000 0.10749900 14645.03827437 0 7.15332293 0 5081.56497619 0 589.23647467 0 1808.70803353 0 12807
0.10850000 0.10850100 14661.23142192 0 110.29496620 0 4706.28323625 0 314.12044349 0 2147.72155945 0 12736
0.10950000 0.10950300 14734.65514571 0 57.85090690 0 4704.26463841 0 187.33031646 0 1594.60356764 0 12933
0.11050000 0.11050200 14613.65018701 0 -15.48308912 0 4171.35480744 0 221.37363637 0 1611.77274052 0 13428
0.11150000 0.11150900 14560.74517757 0 -36.33476120 0 4004.86485005 0 -4.16880383 0 644.11682629 0 13453
0.11250000 0.11250000 14828.93031977 0 62.53405390 0 3717.27011318 0 -506.04806108 0 -283.63296132 0 13668
0.11350000 0.11349100 14611.21012368 0 -27.99595569 0 4258.07687638 0 -300.48048948 0 -283.13940305 0 13791
0.11450000 0.11448600 14474.12292940 0 349.78307816 0 4029.04365940 0 -340.85466461 0 -1017.04945072 0 14205
0.11550000 0.11549300 14450.94232778 0 181.23903109 0 4497.41381532 0 -619.30692784 0 -1736.92580688 0 14776
0.11650000 0.11649800 13986.77573550 0 311.36317193 0 5136.59949545 0 -356.26477365 0 -2137.42892868 0 14553
0.11750000 0.11747300 13593.81462762 0 359.50229404 0 5478.36363821 0 -234.80174851 0 -1512.73944297 0 14568
0.11850000 0.11849100 13612.22601455 0 -13.02749811 0 5240.16909255 0 538.14376681 0 -881.65144573 0 16015
0.11950000 0.11950300 13413.91541312 0 -12.84604613 0 4779.20785619 0 1196.71796832 0 -991.33894707 0 15270
0.12050000 0.12050700 13342.37719280 0 145.83149395 0 4723.40804434 0 595.39430722 0 291.85597473 0 15999
0.12150000 0.12150000 13103.25098660 0 274.39510338 0 4180.94869280 0 381.67248762 0 821.17558525 0 15670
0.12250000 0.12250700 13028.71814311 0 -38.87131794 0 4655.89592852 0 400.84473067 0 2130.41929221 0 16887
0.12350000 0.12352200 12907.60227243 0 -5.92133495 0 4120.77894935 0 19.84281681 0 1234.39476435 0 16407
0.12450000 0.12449800 12984.35335531 0 145.19375013 0 4321.55179651 0 -399.62913548 0 1533.65744041 0 16306
0.12550000 0.12549900 12863.68113252 0 92.49126594 0 4309.82840134 0 -356.62856491 0 64.49553208 0 17523
0.12650000 0.12650100 13005.42662952 0 112.56233959 0 4989.44149434 0 -534.33615890 0 1366.06945452 0 17154
0.12750000 0.12750600 12649.51011945 0 93.03418003 0 4833.65454200 0 10.56749281 0 -297.46701127 0 18007
0.12850000 0.12850300 12918.13890953 0 -68.72527095 0 5088.21969436 0 304.67850753 0 510.01205487 0 17496
0.12950000 0.12949900 12856.25003056 0 -112.64441445 0 4454.40215356 0 544.69977332 0 -261.87757850 0 18405
0.13050000 0.13049000 12803.78866900 0 197.18484494 0 4738.69171373 0 390.51438983 0 206.20087894 0 18100
0.13150000 0.13148800 12699.53141768 0 292.56137486 0 4480.04500090 0 -423.11474502 0 684.28359604 0 19059
0.13250000 0.13249300 12243.23957523 0 203.57337439 0 4326.02154888 0 275.53638755 0 684.61522283 0 18957
0.13350000 0.13349100 12367.01733318 0 -11.15896416 0 4662.24009317 0 173.53064921 0 649.90643110 0 19468
0.13450000 0.13450700 11918.26750465 0 45.87984530 0 4080.37371887 0 190.12197073 0 98.66041151 0 19953
0.13550000 0.13551000 12107.37241262 0 167.68226106 0 4193.55938373 0 120.38939727 0 531.17405865 0 19956
0.13650000 0.13649900 11704.65105143 0 6.55593997 0 3707.02184720 0 112.72205282 0 761.96190298 0 19723
0.13750000 0.13749600 11958.63946154 0 -71.45359448 0 3558.37762570 0 874.58524416 0 654.43053033 0 20946
0.13850000 0.13851100 12099.38675082 0 -128.71666794 0 3187.47690856 0 549.11961531 0 433.11345907 0 20955
0.13950000 0.13949800 11973.39075348 0 167.43492737 0 2743.10810283 0 -146.54133056 0 767.57848512 0 20506
0.14050000 0.14048300 11597.17735300 0 419.72083875 0 3378.50059360 0 -493.73794159 0 1528.76622256 0 21447
0.14150000 0.14148400 11130.90343330 0 418.20134477 0 3448.69677908 0 -270.98788768 0 872.01652294 0 21771
0.14250000 0.14249400 10818.76387758 0 269.36080908 0 4198.65024313 0 -198.33278383 0 1024.88427224 0 22470
0.14350000 0.14350900 10412.49333337 0 244.18711937 0 4728.64308930 0 -72.66131492 0 1224.53469027 0 22519
0.14450000 0.14449900 10215.96841464 0 156.38476785 0 4372.74876162 0 239.04191311 0 1680.42724963 0 22218
0.14550000 0.14550500 10129.83417914 0 20.76626987 0 4531.91852903 0 389.01929648 0 1554.17615476 0 23559
0.14650000 0.14650700 10257.23875849 0 -14.83913422 0 4223.26160916 0 306.10039898 0 1555.42946002 0 23044
0.14750000 0.14750500 10187.55276806 0 -20.96702053 0 4187.21521907 0 -57.39117678 0 1542.87422507 0 23649
0.14850000 0.14849900 10219.12940577 0 20.89381864 0 3692.14855209 0 253.33957509 0 1007.27477885 0 23640
0.14950000 0.14949500 10169.79576175 0 -0.22179288 0 3749.36803715 0 -21.93384017 0 1058.03475080 0 24457
0.15050000 0.15050000 10123.04636661 0 125.34383495 0 3281.36389072 0 -77.77069662 0 132.58971392 0 24591
0.15150000 0.15149900 10080.68908547 0 12.49179330 0 3336.53150434 0 22.82601606 0 172.90288747 0 25020
0.15250000 0.15250500 9869.19105086 0 152.20005924 0 2830.76183231 0 140.81938205 0 -326.65460516 0 25297
0.15350000 0.15350100 9830.10567282 0 -19.55189472 0 2690.82420041 0 366.99328846 0 -325.18834892 0 25452
0.15450000 0.15450400 9639.86946276 0 53.25393850 0 2367.12761748 0 220.26673491 0 -300.20431868 0 26061
0.15550000 0.15549900 9618.71855018 0 106.32598137 0 2137.39565509 0 212.88554334 0 -424.17506345 0 26128
0.15650000 0.15649500 9363.29937566 0 90.12429360 0 2159.92187609 0 250.08763615 0 -409.01006986 0 26331
0.15750000 0.15749700 9376.69754157 0 136.75889485 0 1772.02944522 0 -143.93379016 0 -609.94817585 0 27345
0.15850000 0.15849900 9037.30691496 0 244.97570347 0 2167.94081148 0 -255.94489726 0 -513.96606658 0 26980
0.15950000 0.15949700 8767.85737630 0 292.55804750 0 2567.83391745 0 -530.08933958 0 -636.50161046 0 27777
0.16050000 0.16050000 8623.78272794 0 59.06927488 0 2508.48492258 0 193.93068776 0 -74.17969978 0 28224
0.16150000 0.16150500 8562.57041198 0 -59.40966372 0 2391.51715957 0 344.82531312 0 -812.41464878 0 28075
0.16250000 0.16249700 8581.28126123 0 -0.39700496 0 2241.50872084 0 188.84537396 0 -513.62113036 0 28590
0.16350000 0.16349900 8765.31749220 0 9.36236772 0 2151.61456958 0 164.67543757 0 -165.85775916 0 29163
0.16450000 0.16449100 8545.32360073 0 110.52455397 0 2094.13998699 0 -98.51611504 0 -532.66360640 0 28996
0.16550000 0.16550500 8434.73327596 0 177.13639734 0 2147.98774817 0 -174.71962553 0 -626.52064233 0 30777
0.16650000 0.16650700 8277.62647119 0 105.46863184 0 2193.09564616 0 -90.15545987 0 -947.16936434 0 29211
0.16750000 0.16749900 8069.86616995 0 118.51720323 0 2048.44425556 0 128.04343229 0 -544.24392513 0 30922
0.16850000 0.16850800 8142.05877089 0 -56.44909052 0 1982.89528160 0 244.61856693 0 -787.24428643 0 30867
0.16950000 0.16949900 8107.86461070 0 -47.08146557 0 1647.99658975 0 398.19060724 0 -664.70763342 0 30852
0.17050000 0.17049200 8108.45244413 0 99.21097853 0 1610.56380005 0 71.99273757 0 -864.59651218 0 31257
0.17150000 0.17149500 8009.39696419 0 84.70790757 0 1444.11820745 0 -178.25882647 0 -470.35880754 0 32608
0.17250000 0.17250900 7956.83578185 0 58.63172716 0 1583.50127949 0 148.57212872 0 -63.58394660 0 32361
0.17350000 0.17350400 7934.08773691 0 -23.71275725 0 1484.81180905 0 185.88956997 0 -149.38511346 0 32508
0.17450000 0.17449800 8040.92923711 0 28.18605880 0 1565.42262847 0 135.93038244 0 89.30598509 0 32791
0.17550000 0.17549800 7965.81965138 0 70.24853593 0 1564.08059364 0 29.48860897 0 -61.33609372 0 33633
0.17650000 0.17650100 7894.21488388 0 140.73841632 0 1838.80954205 0 -332.42535493 0 436.74804431 0 33984
0.17750000 0.17750300 7839.23582061 0 116.33445567 0 2080.39799397 0 -294.04870437 0 -3.80799610 0 34069
