### header ###
fiducial parameters:
Omega_m = 0.31
Omega_nu = 0
Omega_de = 0.69
Omega_k = 0
H_0 = 100
w_de = -1
zeff = 0
beta = 0
fgrowth = 0
b_1 = 2
gamma = 0.55
Lx = 3500 Ly = 3500 Lz = 3500
nx = 700 ny = 700 nz = 700
xoffset = 1379.75464 yoffset = 22.6059522 zoffset = 368.141391
bins = 400 dk = 0.001
kx_ny = 0.628318531 ky_ny = 0.628318531 kz_ny = 0.628318531
############################
A(data) = 3.36545555 (not used)
A(ran) = 3.3658445 (used)
Ngal = 189445
weighted Ngal = 0
Nran = 9399747
weighted Nran = 0
SN(data) = 6610.66672
SN(ran) = 133.877754
SN(data+ran) = 6744.54448
############################
13 columns: k_central k_mean P_0(k) sigma^{lin}_{P_0(k)} P^img_1(k) sigma^{lin}_{P_1(k)} P_2(k) sigma^{lin}_{P_2(k)} P^img_3(k) sigma^{lin}_{P_3(k)} P_4(k) sigma^{lin}_{P_4(k)} N_modes
### header ###
0.00050000 0 0 0 0 0 0 0 0 0 0 0 0
0.00150000 0.00179520 5778.66888678 0 -7759.43465857 0 -1762.30246550 0 -4396.82775020 0 45589.58867188 0 3
0.00250000 0.00253879 7789.56944068 0 -6472.97781574 0 -9644.69413343 0 1385.37922841 0 -12035.61236836 0 6
0.00350000 0.00331552 13485.67545737 0 -4954.77041268 0 -7791.59912972 0 -3064.09843370 0 1480.96316371 0 7
0.00450000 0.00420575 23713.42272318 0 -13514.84530535 0 -21691.16478361 0 -1994.41903523 0 -9824.68207751 0 24
0.00550000 0.00557378 48418.06571762 0 -21943.15677827 0 -37196.43629328 0 3032.94326148 0 -4197.64094421 0 45
0.00650000 0.00659388 83528.35877691 0 -27087.80848271 0 -76083.06008951 0 -20116.88028878 0 -28459.90045717 0 40
0.00750000 0.00754703 96756.49664115 0 -10383.01293188 0 -47379.48603539 0 -34050.86192680 0 -9315.19685449 0 57
0.00850000 0.00846663 104401.21504968 0 4431.54319665 0 -36897.86127144 0 -46543.32069746 0 -23155.31369274 0 75
0.00950000 0.00948925 92583.32287741 0 3450.40482341 0 -10086.35668711 0 -26752.85433487 0 -6739.04453933 0 112
0.01050000 0.01054430 102146.70744602 0 5572.67208586 0 -25193.09930804 0 3089.63036908 0 -9092.34143421 0 105
0.01150000 0.01145670 93855.70499131 0 -3549.91504243 0 -8943.85248947 0 6479.82108426 0 -6175.10153930 0 144
0.01250000 0.01249090 92625.69124975 0 1805.51376881 0 -3777.26239747 0 1984.37041079 0 -16929.71393374 0 169
0.01350000 0.01339930 106850.70589570 0 5298.27587336 0 16683.48936149 0 -24792.48527427 0 -6518.56263520 0 180
0.01450000 0.01448870 80283.74002168 0 7790.37909805 0 5132.75085011 0 -13168.46722466 0 -11369.80781556 0 267
0.01550000 0.01550050 76102.02603629 0 8060.97103000 0 41887.56895450 0 -15102.10650061 0 -23979.16780206 0 238
0.01650000 0.01653350 61679.69899664 0 9259.37486025 0 37979.69662177 0 -8279.40106270 0 -10608.74097217 0 315
0.01750000 0.01747870 64506.29053889 0 6546.07989483 0 62782.60762117 0 23074.23704305 0 3383.42508504 0 297
0.01850000 0.01844180 56908.37698148 0 -7687.82989107 0 34619.06394646 0 23044.51263523 0 11619.80339477 0 388
0.01950000 0.01947590 62725.82069279 0 -3118.83349064 0 30614.80911224 0 20835.14620314 0 11915.05105754 0 399
0.02050000 0.02045430 71276.13533215 0 -4400.48784519 0 11361.37850588 0 17466.97151391 0 24070.78108885 0 462
0.02150000 0.02154770 72311.27674333 0 -3244.33038411 0 6583.59032290 0 2291.86275499 0 31778.05384817 0 571
0.02250000 0.02255340 72982.29415869 0 120.68996871 0 1908.90590676 0 2509.57185988 0 24864.46714246 0 510
0.02350000 0.02348930 75767.51553633 0 865.74777843 0 -1528.06747715 0 -784.85967908 0 24813.00398862 0 555
0.02450000 0.02439640 74605.49083207 0 1438.50606179 0 1961.70000423 0 -2713.61661014 0 18104.71533843 0 592
0.02550000 0.02547300 71467.79121541 0 -517.00505454 0 1659.88635288 0 5659.91544106 0 19500.43156240 0 837
0.02650000 0.02652900 70956.26521216 0 -69.75819412 0 1046.52763396 0 -3149.04591113 0 5535.80494721 0 723
0.02750000 0.02749970 70671.33236256 0 3398.96385196 0 -1755.15973466 0 -5850.82821413 0 11790.71873975 0 826
0.02850000 0.02848090 66922.61870603 0 3226.54010421 0 7997.04137079 0 -5108.21712246 0 -347.51160102 0 831
0.02950000 0.02946900 62537.04852074 0 1959.92541272 0 6114.70997192 0 -954.51506408 0 3570.91067825 0 996
0.03050000 0.03053250 60598.64003010 0 798.38761200 0 4542.33316296 0 632.82820604 0 -3578.63015133 0 1041
0.03150000 0.03150510 58797.54055767 0 1648.16295770 0 9482.29682772 0 -4239.28838875 0 -7089.40435973 0 1036
0.03250000 0.03246190 56821.97655726 0 3740.96090986 0 17054.04625153 0 -1450.06308901 0 34.02335576 0 1059
0.03350000 0.03345080 53737.51468596 0 2781.66110342 0 11340.19431971 0 -3511.26222107 0 -3763.78659318 0 1302
0.03450000 0.03451200 50654.71649420 0 661.04864755 0 20208.38266360 0 1016.55034685 0 3601.60002021 0 1339
0.03550000 0.03553350 50777.16330851 0 122.41464984 0 18619.67961274 0 3877.99264816 0 935.29956537 0 1365
0.03650000 0.03647120 50183.67335981 0 364.12288669 0 20656.46702031 0 2497.70427915 0 5764.93798496 0 1308
0.03750000 0.03744890 51683.20318721 0 541.22933780 0 20247.97823671 0 422.35943451 0 9340.21859481 0 1579
0.03850000 0.03847530 49553.47154921 0 1378.85760460 0 24250.79121532 0 -2652.70375650 0 4761.69485620 0 1662
0.03950000 0.03950240 50381.65122533 0 2875.51481199 0 31228.26321545 0 -2771.49047582 0 11926.47499039 0 1683
0.04050000 0.04050350 45594.80153445 0 966.66103386 0 28372.16908931 0 -795.19112904 0 3557.02449967 0 1822
0.04150000 0.04152450 46029.68736679 0 376.15239890 0 32439.42192219 0 4712.66067450 0 10187.09802899 0 1887
0.04250000 0.04250150 45029.26140206 0 -555.90077312 0 26709.15501889 0 3365.13570127 0 -851.12292613 0 1920
0.04350000 0.04349210 47567.70364760 0 187.79281937 0 29198.35234998 0 2366.01849778 0 5920.69166370 0 2005
0.04450000 0.04448520 44395.62132041 0 1664.51138200 0 22987.17114701 0 1112.13650039 0 210.43549794 0 2151
0.04550000 0.04548030 43990.01624801 0 359.07861032 0 20828.04783710 0 1835.31581501 0 1266.44832353 0 2274
0.04650000 0.04648670 42660.95811770 0 -496.35879143 0 20088.93047247 0 3505.23970112 0 418.54184452 0 2311
0.04750000 0.04749250 42072.23738369 0 385.36031061 0 13714.26502648 0 2584.59271604 0 -6107.80015622 0 2568
0.04850000 0.04851840 41581.78465464 0 608.87565711 0 8761.08065496 0 1889.75140963 0 -3914.57141569 0 2493
0.04950000 0.04949480 39213.92501817 0 782.52609125 0 10381.68198825 0 1048.23235094 0 -4405.97798768 0 2644
0.05050000 0.05050630 39422.66134473 0 1011.56929030 0 8465.87735699 0 1280.15704296 0 -1885.11528930 0 2829
0.05150000 0.05149060 37435.34067555 0 306.45531728 0 6174.91298895 0 1956.49823286 0 -3433.65711602 0 2784
0.05250000 0.05249300 36350.06705417 0 709.12454984 0 6599.28436659 0 1703.37493611 0 1129.03948454 0 3055
0.05350000 0.05348950 35371.15801152 0 580.50326619 0 6757.33392310 0 -1323.04670156 0 -1690.73097159 0 3009
0.05450000 0.05448610 35237.06544041 0 764.21674332 0 7294.21440257 0 109.69238147 0 222.15223839 0 3336
0.05550000 0.05550870 33915.66023600 0 1074.00607440 0 10834.80174837 0 -2779.29867847 0 1150.36785627 0 3349
0.05650000 0.05647670 33350.67466346 0 1038.73495899 0 10551.66567268 0 -1154.28304880 0 1161.27050287 0 3324
0.05750000 0.05747970 32851.01624094 0 -60.47785690 0 12536.71264648 0 936.08593123 0 -455.91917823 0 3639
0.05850000 0.05849280 33749.07045784 0 -517.74372826 0 10186.19964204 0 2556.06615749 0 1179.79280178 0 3846
0.05950000 0.05951020 33625.07087596 0 392.85685062 0 12507.21006260 0 1490.81214660 0 3983.82484944 0 3787
0.06050000 0.06049470 33092.13886259 0 740.54701992 0 10076.34133626 0 -1582.38106860 0 2313.96751050 0 3930
0.06150000 0.06148310 31960.06039009 0 504.61064195 0 12124.12012001 0 406.15408665 0 3774.17904472 0 4083
0.06250000 0.06249100 31718.27229662 0 381.84994677 0 12398.95998039 0 -1103.48425765 0 2972.77351803 0 4303
0.06350000 0.06350600 32184.21348041 0 -461.59787107 0 11147.54022872 0 2328.89626160 0 2207.70275254 0 4470
0.06450000 0.06451750 31902.94072581 0 175.98734934 0 12187.67267852 0 846.18512525 0 1272.75921460 0 4479
0.06550000 0.06550280 31956.40029510 0 313.09783513 0 9913.01237000 0 -1055.79543813 0 1822.03965226 0 4636
0.06650000 0.06648880 31293.25762956 0 777.98535521 0 13512.84888990 0 197.39446857 0 1171.59640723 0 4653
0.06750000 0.06749660 30775.29873208 0 552.46250207 0 10795.31708723 0 -316.25217154 0 -863.95655012 0 5220
0.06850000 0.06852730 29082.33842990 0 686.54065462 0 12671.47068941 0 -873.73344023 0 487.85406161 0 5029
0.06950000 0.06949320 29595.52811270 0 219.74323042 0 12920.35714892 0 579.88548652 0 -1157.56604309 0 5040
0.07050000 0.07048030 29404.53770125 0 -165.21003326 0 12815.32351382 0 1512.17379192 0 1778.98362571 0 5475
0.07150000 0.07148790 29269.89057030 0 -226.58982629 0 10247.26777243 0 1841.20524059 0 -1546.31249613 0 5509
0.07250000 0.07249820 29588.09701074 0 255.29384400 0 10788.60691308 0 527.06920666 0 -1491.11160892 0 5916
0.07350000 0.07351270 28973.64469981 0 485.12229980 0 10998.91818961 0 -314.56409137 0 838.66307548 0 5721
0.07450000 0.07449140 27814.61461872 0 1116.85025910 0 10779.12393969 0 136.51045204 0 496.81463962 0 6028
0.07550000 0.07549160 26886.83599400 0 886.06352388 0 11611.81773297 0 125.61889664 0 2514.89563442 0 6183
0.07650000 0.07648840 26021.72263204 0 33.57804420 0 10045.30816720 0 1567.31922315 0 163.93232737 0 6330
0.07750000 0.07749960 25831.61951635 0 501.36535773 0 11989.02934118 0 443.41607191 0 4257.61104611 0 6583
0.07850000 0.07848650 25084.62740189 0 702.87576948 0 9901.28897483 0 681.88346102 0 2314.97680943 0 6549
0.07950000 0.07947320 24166.60903048 0 123.27089024 0 11870.68626974 0 1189.69724065 0 6635.39730385 0 6828
0.08050000 0.08048110 24221.62136735 0 299.53108302 0 10950.40529416 0 847.31642734 0 5003.36094651 0 7147
0.08150000 0.08149960 23634.00975303 0 253.22866312 0 9376.00988736 0 643.61661331 0 4799.52692900 0 7386
0.08250000 0.08250610 23300.05381292 0 357.25078106 0 9577.55911830 0 880.64214681 0 6122.78436330 0 7227
0.08350000 0.08350160 22819.80498506 0 200.24934266 0 8922.28011141 0 211.44923334 0 5119.23068103 0 7798
0.08450000 0.08449610 22658.42806946 0 198.97385501 0 8315.28108482 0 840.22027953 0 6174.58025304 0 7371
0.08550000 0.08548940 21973.21392200 0 330.97462637 0 8248.25698167 0 385.31705494 0 3737.04571734 0 8256
0.08650000 0.08650700 21683.84459362 0 494.20820834 0 7399.55859119 0 -395.32686018 0 4942.57009604 0 8037
0.08750000 0.08749060 20799.09981306 0 423.43417149 0 7516.13816231 0 646.07220431 0 2473.45892262 0 8155
0.08850000 0.08849210 20235.66700809 0 467.64922812 0 7275.23736460 0 -25.60258630 0 4307.63234434 0 8718
0.08950000 0.08949900 19532.04147370 0 -14.23510764 0 6070.21208976 0 518.03653586 0 1989.45017900 0 8571
0.09050000 0.09049190 20034.91634333 0 122.08635041 0 6229.88096103 0 490.43941961 0 2516.62586114 0 8932
0.09150000 0.09150830 19708.16968124 0 -19.43843177 0 5467.31680605 0 333.96259483 0 908.40784925 0 9285
0.09250000 0.09250820 19273.06202496 0 115.68451153 0 4676.91374673 0 772.93442412 0 1830.34695877 0 9204
0.09350000 0.09350330 19181.89238604 0 68.23969834 0 4990.67261720 0 146.73542651 0 1943.71008278 0 9349
0.09450000 0.09448040 19283.70957403 0 120.75873413 0 4032.55956883 0 839.31523786 0 375.14531822 0 9564
0.09550000 0.09549270 18860.58041045 0 74.98702801 0 4282.54405684 0 338.39130977 0 1876.64161484 0 10155
0.09650000 0.09649430 18767.63618003 0 360.14891082 0 2801.90253785 0 -417.85308119 0 1084.67358763 0 9913
0.09750000 0.09749140 18296.03848579 0 385.25272600 0 4851.30063635 0 -418.12148815 0 1226.69747367 0 10476
0.09850000 0.09850240 17797.04553509 0 408.90470349 0 4253.11911134 0 -870.35949812 0 -19.78026246 0 10575
0.09950000 0.09950330 17057.92817046 0 641.50374029 0 5207.42787916 0 -538.30791652 0 324.01157293 0 10882
0.10050000 0.10051200 16578.67755033 0 334.53933707 0 5127.22743403 0 156.93045474 0 474.54795263 0 10875
0.10150000 0.10150300 16003.93172447 0 84.49362565 0 5666.15978494 0 593.09288385 0 -170.98854687 0 11118
0.10250000 0.10250800 16393.23273735 0 95.14660940 0 5922.20006649 0 -92.60284338 0 140.32582379 0 11575
0.10350000 0.10349800 15797.08090138 0 285.01825182 0 5421.84289856 0 -253.08004108 0 -558.52162296 0 11364
0.10450000 0.10450100 15751.27425799 0 159.24518754 0 6074.64856854 0 76.64527286 0 761.54820134 0 12093
0.10550000 0.10551000 15689.93993886 0 -184.81705123 0 5476.87741782 0 237.07988037 0 693.18428159 0 12067
0.10650000 0.10649700 16238.17780401 0 -176.31010317 0 6008.25666361 0 854.18853297 0 654.88748765 0 12054
0.10750000 0.10749900 15924.18601841 0 271.67332365 0 5809.10313121 0 -85.87813976 0 266.00683113 0 12807
0.10850000 0.10850100 15807.83936242 0 435.86740327 0 6076.65607519 0 -297.17198543 0 1696.64257956 0 12736
0.10950000 0.10950300 15384.59928688 0 -78.36851213 0 5855.13159854 0 625.97162808 0 1830.30259399 0 12933
0.11050000 0.11050200 15606.64504978 0 -110.39722703 0 5993.61628364 0 943.60909012 0 2455.55773075 0 13428
0.11150000 0.11150900 15685.39254812 0 166.25482401 0 5467.70499794 0 149.58475500 0 2621.42658111 0 13453
0.11250000 0.11250000 15289.21499312 0 390.96912890 0 5891.43308615 0 -106.69309999 0 2335.58425336 0 13668
0.11350000 0.11349100 15060.84724796 0 208.98033290 0 6378.80246245 0 -795.79449015 0 2668.00960829 0 13791
0.11450000 0.11448600 14849.78177004 0 -73.73560826 0 5806.21942000 0 -38.88285279 0 1225.58835398 0 14205
0.11550000 0.11549300 15116.30323270 0 -125.03993615 0 6658.62227026 0 255.67538117 0 1992.35607260 0 14776
0.11650000 0.11649800 15477.32169337 0 -183.93086459 0 5699.95466204 0 228.08491964 0 1063.56482160 0 14553
0.11750000 0.11747300 15795.19539790 0 -186.59497010 0 5579.12716249 0 627.98578945 0 1117.30499817 0 14568
0.11850000 0.11849100 15607.31052160 0 379.28677116 0 5431.60315188 0 -667.67120125 0 406.64764491 0 16015
0.11950000 0.11950300 14994.30006627 0 576.13888019 0 5688.31999644 0 -562.69191301 0 -67.90862611 0 15270
0.12050000 0.12050700 14751.18102917 0 224.76643351 0 6683.26690988 0 112.57897638 0 769.63922951 0 15999
0.12150000 0.12150000 14284.01981371 0 157.42734036 0 5565.35189588 0 531.59663325 0 313.18767383 0 15670
0.12250000 0.12250700 14265.71933874 0 -133.08770866 0 6097.34115750 0 1055.21869589 0 1258.03010505 0 16887
0.12350000 0.12352200 14212.48159339 0 -33.79731716 0 5087.87586726 0 491.78700004 0 816.27327620 0 16407
0.12450000 0.12449800 14137.61601399 0 185.34499220 0 4945.35398647 0 284.03113529 0 1103.78261085 0 16306
0.12550000 0.12549900 13907.91732519 0 230.27654016 0 4572.05757078 0 -242.06426428 0 980.76016342 0 17523
0.12650000 0.12650100 13717.70329753 0 25.48934518 0 4517.33360504 0 424.84718998 0 1443.69674196 0 17154
0.12750000 0.12750600 13755.96792700 0 -88.94030833 0 4359.13986297 0 164.62885454 0 514.54835442 0 18007
0.12850000 0.12850300 13753.08421580 0 254.41320296 0 3856.75300600 0 -42.97672449 0 412.43724972 0 17496
0.12950000 0.12949900 13371.10339290 0 329.50504278 0 4610.41092983 0 -419.44688619 0 763.28175542 0 18405
0.13050000 0.13049000 12882.86890324 0 416.57093882 0 4345.95242980 0 -330.68514613 0 -375.91726553 0 18100
0.13150000 0.13148800 12645.18455264 0 201.11334690 0 4468.09978179 0 117.65874459 0 105.64476005 0 19059
0.13250000 0.13249300 12365.13182970 0 65.86185663 0 4582.43893113 0 473.91575440 0 145.22369636 0 18957
0.13350000 0.13349100 12259.98728263 0 -41.49948797 0 4171.26607786 0 616.05720713 0 116.25681729 0 19468
0.13450000 0.13450700 12305.23936618 0 -38.53924751 0 3515.99816216 0 784.60014507 0 1049.85055657 0 19953
0.13550000 0.13551000 12043.26529426 0 156.02541307 0 3308.71478240 0 346.58548608 0 826.92082527 0 19956
0.13650000 0.13649900 11932.35332478 0 193.60238833 0 3248.43412698 0 36.03629709 0 1761.17116341 0 19723
0.13750000 0.13749600 11767.42722616 0 39.31618585 0 3044.92175418 0 369.37678668 0 1800.89983088 0 20946
0.13850000 0.13851100 11790.94056369 0 -76.95349723 0 2809.11181586 0 404.34511242 0 1819.92123364 0 20955
0.13950000 0.13949800 11866.02796703 0 65.24829161 0 2640.94708774 0 285.60941261 0 1753.57369350 0 20506
0.14050000 0.14048300 11623.79622568 0 259.95769231 0 2892.71725846 0 -301.42989594 0 2388.53362759 0 21447
0.14150000 0.14148400 11230.83511780 0 377.36466673 0 2850.70380442 0 -377.28591923 0 1578.12204897 0 21771
0.14250000 0.14249400 11117.15034908 0 18.59394804 0 3085.67081177 0 349.50468911 0 2103.92242270 0 22470
0.14350000 0.14350900 10982.86922763 0 -10.13259589 0 2857.72453209 0 165.84888621 0 1324.48855716 0 22519
0.14450000 0.14449900 10978.31074568 0 22.94557916 0 2700.08534986 0 469.06002838 0 1931.64286050 0 22218
0.14550000 0.14550500 10738.36379091 0 58.79376955 0 2044.51797184 0 -40.39691208 0 1267.59071682 0 23559
0.14650000 0.14650700 10893.85128092 0 59.30939930 0 2187.53895649 0 -121.35987701 0 979.34603581 0 23044
0.14750000 0.14750500 10698.09165479 0 61.92026706 0 2124.59641381 0 -59.75848186 0 551.58407927 0 23649
0.14850000 0.14849900 10579.92604250 0 257.70950669 0 1940.91510115 0 -437.70854196 0 -83.74552441 0 23640
0.14950000 0.14949500 10191.68978452 0 251.65593140 0 2300.36970305 0 -543.02943906 0 -707.38877752 0 24457
0.15050000 0.15050000 10021.16263145 0 291.62195048 0 2592.00163560 0 -309.25584451 0 -1171.55204244 0 24591
0.15150000 0.15149900 9769.72519663 0 74.27020395 0 2689.06070010 0 -197.33901258 0 -1108.95998159 0 25020
0.15250000 0.15250500 9630.24230381 0 -7.09436212 0 2587.03277937 0 417.87637270 0 -1560.62014019 0 25297
0.15350000 0.15350100 9827.86525103 0 -159.36719071 0 2261.56160492 0 435.30064311 0 -1321.52720758 0 25452
0.15450000 0.15450400 9982.04397981 0 -71.03257265 0 1720.14482590 0 324.96874322 0 -803.71582302 0 26061
0.15550000 0.15549900 9899.62529529 0 56.86722864 0 1877.39581623 0 281.84949685 0 -1193.02459974 0 26128
0.15650000 0.15649500 10089.16275994 0 5.32446219 0 1405.45429488 0 82.85556677 0 -538.47428448 0 26331
0.15750000 0.15749700 9931.84522242 0 -21.73541866 0 1603.94235547 0 152.40968286 0 -590.15482578 0 27345
0.15850000 0.15849900 9868.79176777 0 135.81614311 0 1607.40280892 0 -178.64258189 0 -470.07930938 0 26980
0.15950000 0.15949700 9862.29232636 0 236.69723407 0 1634.54296785 0 -343.47551445 0 -851.72961460 0 27777
0.16050000 0.16050000 9545.68301828 0 134.81238979 0 1863.09926336 0 -2.97793092 0 -288.07942217 0 28224
0.16150000 0.16150500 9280.28176650 0 97.33445891 0 1852.58480866 0 446.97745525 0 -100.69908442 0 28075
0.16250000 0.16249700 9274.00414903 0 40.68861056 0 1664.96612108 0 414.03881856 0 -106.22283324 0 28590
0.16350000 0.16349900 9161.11794649 0 125.22072267 0 1695.04544720 0 257.53648402 0 594.09774629 0 29163
0.16450000 0.16449100 8988.10636529 0 225.47627012 0 1631.48179749 0 -250.04770784 0 355.20334610 0 28996
0.16550000 0.16550500 8703.01823894 0 233.21237999 0 1795.19895565 0 -232.96393718 0 918.46645576 0 30777
0.16650000 0.16650700 8454.07632343 0 145.47768477 0 2035.70047027 0 -226.26485422 0 380.15632100 0 29211
0.16750000 0.16749900 8321.72507025 0 88.88296684 0 2285.34113118 0 -143.48237844 0 392.28676310 0 30922
0.16850000 0.16850800 8269.20825270 0 101.67289151 0 2527.56178133 0 -80.22307117 0 59.80306847 0 30867
0.16950000 0.16949900 8288.12983470 0 35.34509370 0 2511.55718414 0 92.50302261 0 446.67133822 0 30852
0.17050000 0.17049200 8136.39116925 0 38.29080470 0 2477.91758379 0 -20.95615116 0 72.72087465 0 31257
0.17150000 0.17149500 8352.10385869 0 -2.50220731 0 2374.88036414 0 77.19173614 0 196.00585071 0 32608
0.17250000 0.17250900 8139.10851250 0 105.66261688 0 2649.22112066 0 -71.61508231 0 414.50575795 0 32361
0.17350000 0.17350400 8193.26682720 0 36.36504017 0 2379.10611018 0 240.36842026 0 318.97838775 0 32508
0.17450000 0.17449800 8248.63408236 0 -139.43298243 0 2158.87930358 0 284.96390495 0 583.81066112 0 32791
0.17550000 0.17549800 8314.13869154 0 59.76702208 0 2042.66574195 0 254.23796205 0 382.91359256 0 33633
0.17650000 0.17650100 8301.58345659 0 75.83783372 0 2137.29583432 0 -74.27142398 0 562.30039376 0 33984
0.17750000 0.17750300 8074.21391915 0 72.71998735 0 1942.62314548 0 -96.39392541 0 414.87398569 0 34069
0.17850000 0.17849800 8102.17482666 0 26.24443387 0 1899.58930132 0 157.87209736 0 508.92955405 0 34536
