### header ###
fiducial parameters:
Omega_m = 0.31
Omega_nu = 0
Omega_de = 0.69
Omega_k = 0
H_0 = 100
w_de = -1
zeff = 0
beta = 0
fgrowth = 0
b_1 = 2
gamma = 0.55
Lx = 3500 Ly = 3500 Lz = 3500
nx = 700 ny = 700 nz = 700
xoffset = 1379.75464 yoffset = 22.6059522 zoffset = 368.141391
bins = 400 dk = 0.001
kx_ny = 0.628318531 ky_ny = 0.628318531 kz_ny = 0.628318531
############################
A(data) = 3.36621595 (not used)
A(ran) = 3.36648991 (used)
Ngal = 188883
weighted Ngal = 0
Nran = 9399747
weighted Nran = 0
SN(data) = 6614.70533
SN(ran) = 133.903425
SN(data+ran) = 6748.60875
############################
13 columns: k_central k_mean P_0(k) sigma^{lin}_{P_0(k)} P^img_1(k) sigma^{lin}_{P_1(k)} P_2(k) sigma^{lin}_{P_2(k)} P^img_3(k) sigma^{lin}_{P_3(k)} P_4(k) sigma^{lin}_{P_4(k)} N_modes
### header ###
0.00050000 0 0 0 0 0 0 0 0 0 0 0 0
0.00150000 0.00179520 15569.60045198 0 -4418.45558425 0 6218.65666972 0 -22006.48751285 0 55903.84727388 0 3
0.00250000 0.00253879 32529.59335338 0 -15308.95732369 0 -28159.66175578 0 15729.53551197 0 -3864.30611112 0 6
0.00350000 0.00331552 30525.85771272 0 -9713.38191613 0 -11685.57419268 0 -15915.31306085 0 9304.34966388 0 7
0.00450000 0.00420575 57733.89477034 0 -25870.10596976 0 -48654.75186049 0 10706.33241412 0 4863.23476427 0 24
0.00550000 0.00557378 80100.62436006 0 -25349.59609698 0 -68944.21117379 0 1742.26067261 0 -3186.50088322 0 45
0.00650000 0.00659388 133076.61746355 0 -1535.14366080 0 -115677.85681088 0 -69831.17419373 0 -38720.14493003 0 40
0.00750000 0.00754703 130781.84881497 0 -6637.95937034 0 -74865.91213641 0 -52431.74806924 0 -20226.01766675 0 57
0.00850000 0.00846663 97527.66756496 0 7909.57619166 0 -28473.43171745 0 -52567.61523186 0 -28830.01369933 0 75
0.00950000 0.00948925 91343.99253042 0 23238.94131773 0 -15727.76092046 0 -44077.63670390 0 -37282.28215766 0 112
0.01050000 0.01054430 71306.74703573 0 11777.29839144 0 16636.24086249 0 -9014.88051473 0 -44632.30746328 0 105
0.01150000 0.01145670 61283.63235362 0 4656.00684049 0 29324.57017125 0 3163.20936963 0 -31321.20744587 0 144
0.01250000 0.01249090 54885.00992222 0 2850.09378859 0 23729.50495875 0 1320.21844634 0 -25806.99705912 0 169
0.01350000 0.01339930 54537.07907395 0 5330.32943254 0 20236.77612779 0 -905.73819814 0 -23843.63337535 0 180
0.01450000 0.01448870 53658.21262778 0 -670.75455400 0 28779.99240110 0 -1063.08568189 0 -22314.37914013 0 267
0.01550000 0.01550050 54234.73304514 0 -4037.63933703 0 22607.40856350 0 2776.23750811 0 -14686.96299884 0 238
0.01650000 0.01653350 58099.90426963 0 -4176.94477070 0 18821.09574932 0 9227.28802748 0 -25144.07621753 0 315
0.01750000 0.01747870 67847.29179561 0 -2873.89549724 0 15679.95786161 0 -3412.51729464 0 -20491.09727381 0 297
0.01850000 0.01844180 68424.25586085 0 -1136.58149847 0 23792.05930954 0 -4942.96937913 0 -15896.23620210 0 388
0.01950000 0.01947590 68263.98806495 0 4246.46439317 0 22760.02343351 0 -10845.88185412 0 -20836.36623481 0 399
0.02050000 0.02045430 68191.22981297 0 3077.47441722 0 30972.50021382 0 -7144.00632230 0 -11984.59286240 0 462
0.02150000 0.02154770 65939.60592051 0 2675.42961905 0 47502.15467363 0 562.99913917 0 -6303.65960313 0 571
0.02250000 0.02255340 62489.91093371 0 3593.64763200 0 47443.59315375 0 8651.42199073 0 -4602.36981204 0 510
0.02350000 0.02348930 62666.03914124 0 -2153.99917692 0 43640.97628005 0 16716.87386430 0 16523.55430149 0 555
0.02450000 0.02439640 62783.27309299 0 -440.87064221 0 41762.90390081 0 7222.99782697 0 11581.09511743 0 592
0.02550000 0.02547300 64823.27694767 0 2632.00758299 0 39791.88729114 0 6680.30556029 0 23407.86024725 0 837
0.02650000 0.02652900 59965.55450829 0 3451.31430156 0 43508.88012440 0 1307.51902583 0 20190.96948439 0 723
0.02750000 0.02749970 56789.59026217 0 1434.29140695 0 41627.48038607 0 1528.78840495 0 34189.83462456 0 826
0.02850000 0.02848090 59001.84040546 0 -294.34483933 0 40683.50861381 0 8899.80934639 0 20349.79542469 0 831
0.02950000 0.02946900 59031.67572525 0 -1682.20184114 0 41981.06774478 0 9594.21809612 0 27710.35736741 0 996
0.03050000 0.03053250 59200.81647871 0 977.80214119 0 34219.66994435 0 4172.67465988 0 20118.76579226 0 1041
0.03150000 0.03150510 61703.54507008 0 -813.80548488 0 34341.22946290 0 2289.84415714 0 22171.74634737 0 1036
0.03250000 0.03246190 57496.32133171 0 1857.95294798 0 31232.58878226 0 1710.73949088 0 19065.54573006 0 1059
0.03350000 0.03345080 59373.95006307 0 1309.19379657 0 31884.08569099 0 3823.06904087 0 14059.86672338 0 1302
0.03450000 0.03451200 53083.68862586 0 2041.30152473 0 24374.67988523 0 3277.09377990 0 13109.79479280 0 1339
0.03550000 0.03553350 52405.24010853 0 1607.36953533 0 30115.37251366 0 2902.03386390 0 10294.23899151 0 1365
0.03650000 0.03647120 51320.41013503 0 1092.42744342 0 26333.27435432 0 3295.32770768 0 13192.20238612 0 1308
0.03750000 0.03744890 47945.02616778 0 709.39517505 0 19644.50621075 0 5845.53771318 0 11695.33444599 0 1579
0.03850000 0.03847530 46693.16276823 0 854.77858465 0 17700.66303361 0 2398.14969534 0 10948.09832520 0 1662
0.03950000 0.03950240 46504.05786026 0 632.26920971 0 14694.28318882 0 2454.92553252 0 8259.66982333 0 1683
0.04050000 0.04050350 44448.52632985 0 546.40670853 0 14512.60938281 0 3172.67016063 0 7342.09509980 0 1822
0.04150000 0.04152450 43668.37153651 0 1305.97734946 0 11175.71186897 0 -144.16559617 0 8692.04904516 0 1887
0.04250000 0.04250150 41603.07975278 0 1265.02865032 0 11402.30502262 0 -278.20936601 0 3344.33970699 0 1920
0.04350000 0.04349210 41546.18191244 0 -241.06827479 0 9023.25436842 0 3643.18091757 0 12750.66183562 0 2005
0.04450000 0.04448520 40013.82214207 0 23.10385054 0 7908.64453111 0 2685.50042588 0 4230.57070795 0 2151
0.04550000 0.04548030 40661.88077976 0 -955.94139201 0 5074.97680520 0 4447.24833153 0 13141.62652804 0 2274
0.04650000 0.04648670 42538.06765552 0 -1389.64933923 0 1213.14403100 0 3365.79008189 0 6762.18077616 0 2311
0.04750000 0.04749250 41499.37706132 0 958.07533830 0 1808.95203986 0 -870.22196728 0 10984.94328146 0 2568
0.04850000 0.04851840 41157.32454743 0 1198.44819504 0 2477.17447360 0 -1012.86030563 0 8897.16964152 0 2493
0.04950000 0.04949480 39263.83540443 0 1250.78755344 0 4734.92070677 0 -2795.56946439 0 6059.03216324 0 2644
0.05050000 0.05050630 37093.62089757 0 2146.94517566 0 7033.12762641 0 -3670.18798214 0 4143.32735275 0 2829
0.05150000 0.05149060 36373.69130367 0 1269.75350022 0 10464.49995586 0 -2763.50481401 0 -499.96786691 0 2784
0.05250000 0.05249300 33726.22259212 0 1469.33958931 0 12285.05338773 0 -2622.19187370 0 1007.36239930 0 3055
0.05350000 0.05348950 33625.51452383 0 346.92154934 0 15731.86466333 0 -1728.00848453 0 -2363.85571438 0 3009
0.05450000 0.05448610 34019.58475141 0 -29.72230049 0 16038.64717092 0 1546.80050879 0 1323.62344380 0 3336
0.05550000 0.05550870 33329.93412516 0 572.79488431 0 15982.08206648 0 1714.25540032 0 -711.68107074 0 3349
0.05650000 0.05647670 33495.63660757 0 216.68427830 0 17360.93967108 0 -2018.67548296 0 1500.63894709 0 3324
0.05750000 0.05747970 32904.03216235 0 761.07904371 0 19073.86412777 0 909.31067268 0 1146.16429263 0 3639
0.05850000 0.05849280 32586.82392963 0 689.79924828 0 21047.54262470 0 -1012.28799987 0 1600.52626681 0 3846
0.05950000 0.05951020 32261.85185905 0 -70.98266226 0 20962.58405608 0 2992.87076690 0 7988.84497624 0 3787
0.06050000 0.06049470 32294.90362596 0 -545.87987668 0 19996.31897795 0 3092.88008978 0 5795.21695263 0 3930
0.06150000 0.06148310 33444.50618964 0 -398.30595568 0 17454.43846136 0 2772.39995397 0 8011.53756520 0 4083
0.06250000 0.06249100 33057.31250418 0 586.36496378 0 18018.64765011 0 1947.37017778 0 7326.76706562 0 4303
0.06350000 0.06350600 32115.89170721 0 1126.42196206 0 16078.02092008 0 262.64065285 0 11892.53592773 0 4470
0.06450000 0.06451750 31027.62346265 0 456.49259311 0 15789.31706352 0 1399.73123726 0 9653.95528288 0 4479
0.06550000 0.06550280 30327.76893522 0 380.77520979 0 16214.88629042 0 1360.95641273 0 10842.02211758 0 4636
0.06650000 0.06648880 29463.21013311 0 705.89257505 0 12722.71201931 0 853.25243594 0 7900.19303904 0 4653
0.06750000 0.06749660 28346.88116027 0 199.27664469 0 14252.18807847 0 1564.12495843 0 9156.40418779 0 5220
0.06850000 0.06852730 28160.54905154 0 84.01215679 0 11108.16647955 0 1578.22186975 0 9661.35311125 0 5029
0.06950000 0.06949320 29227.85493386 0 -954.01706934 0 10259.07989718 0 3412.24001471 0 7417.28232391 0 5040
0.07050000 0.07048030 29152.76753053 0 -97.54596804 0 8180.00175565 0 595.75920759 0 8061.13739795 0 5475
0.07150000 0.07148790 28269.68642951 0 986.59080566 0 7394.42336700 0 -758.08774789 0 5880.49716596 0 5509
0.07250000 0.07249820 27484.54059754 0 1073.48589727 0 9761.48443730 0 -1702.70946429 0 7984.65250380 0 5916
0.07350000 0.07351270 26674.55048441 0 860.78114043 0 9391.67065745 0 -1004.40548619 0 3471.21190889 0 5721
0.07450000 0.07449140 26130.97092198 0 364.78835851 0 11817.22670045 0 -153.44670978 0 4573.46615280 0 6028
0.07550000 0.07549160 24942.21643307 0 207.52405874 0 11591.63175453 0 -191.79895971 0 3588.00221275 0 6183
0.07650000 0.07648840 25903.04682470 0 90.34190289 0 10956.00634862 0 492.59000270 0 2395.22161935 0 6330
0.07750000 0.07749960 25198.75581848 0 -208.85500237 0 10534.74050613 0 2219.34850934 0 2726.18293628 0 6583
0.07850000 0.07848650 25571.53094791 0 -307.23170106 0 9513.72927987 0 1655.61624205 0 3397.31126362 0 6549
0.07950000 0.07947320 25931.55120085 0 -92.86592658 0 8468.25087313 0 1046.07400401 0 5029.02597625 0 6828
0.08050000 0.08048110 25662.70058683 0 -106.59316830 0 7166.09998663 0 1435.84417452 0 3555.91537998 0 7147
0.08150000 0.08149960 26070.85663452 0 88.69463832 0 7481.65563100 0 363.21895414 0 4187.82523491 0 7386
0.08250000 0.08250610 25102.59514094 0 549.06748668 0 7002.70447318 0 -886.49718968 0 4409.63808267 0 7227
0.08350000 0.08350160 24838.62465358 0 772.70372723 0 7275.74755966 0 -587.53952154 0 3577.06629256 0 7798
0.08450000 0.08449610 24205.65004374 0 122.21279005 0 8341.12357371 0 -249.90130404 0 3024.86887010 0 7371
0.08550000 0.08548940 23367.37737839 0 501.23780896 0 7882.36948554 0 119.50431976 0 1049.35810743 0 8256
0.08650000 0.08650700 23190.80552298 0 536.25382685 0 9384.29501148 0 -1100.68927602 0 2069.31788822 0 8037
0.08750000 0.08749060 22183.72484008 0 690.10203796 0 8970.90391883 0 -815.85513807 0 -212.83119648 0 8155
0.08850000 0.08849210 21625.39398571 0 656.02322621 0 10099.87685619 0 -688.86204214 0 454.41410281 0 8718
0.08950000 0.08949900 21345.34126276 0 200.27374329 0 10521.03178671 0 275.52085987 0 -566.46181086 0 8571
0.09050000 0.09049190 20666.22727362 0 338.57320540 0 10157.79508665 0 -41.21666245 0 -570.28827380 0 8932
0.09150000 0.09150830 20664.23085817 0 185.92395268 0 9801.30183434 0 1087.79465045 0 -909.21528839 0 9285
0.09250000 0.09250820 20224.13216327 0 45.94084688 0 8903.61362694 0 752.83717525 0 -1305.57806637 0 9204
0.09350000 0.09350330 19848.02967475 0 309.20815236 0 9137.89298008 0 252.67853975 0 -255.69090885 0 9349
0.09450000 0.09448040 19575.40805377 0 340.52525606 0 9040.91155397 0 -324.73360985 0 -1525.61632262 0 9564
0.09550000 0.09549270 19173.35216439 0 312.54993000 0 8421.90076109 0 235.43061938 0 -1173.78137303 0 10155
0.09650000 0.09649430 18854.92390001 0 239.35246662 0 8679.80436372 0 711.55574021 0 -983.95331902 0 9913
0.09750000 0.09749140 18380.66431850 0 21.62007021 0 7135.52155664 0 942.91478119 0 -1041.44564752 0 10476
0.09850000 0.09850240 18288.71829580 0 86.39643140 0 6795.53200539 0 1188.61030335 0 -820.10972122 0 10575
0.09950000 0.09950330 17868.25101950 0 393.73638254 0 6645.63447863 0 540.37198827 0 189.65503134 0 10882
0.10050000 0.10051200 17565.23951887 0 249.84695717 0 5701.65161517 0 -66.24527931 0 422.76093584 0 10875
0.10150000 0.10150300 16993.48831619 0 357.54026130 0 5965.20063706 0 857.37836121 0 1413.78378379 0 11118
0.10250000 0.10250800 16465.10369358 0 328.02880446 0 6111.99262867 0 -149.10117881 0 795.92425716 0 11575
0.10350000 0.10349800 16458.89262328 0 156.82397925 0 5576.55400479 0 87.03228972 0 857.70998800 0 11364
0.10450000 0.10450100 15986.29672132 0 289.53236897 0 6491.47793225 0 1.11355617 0 426.15927858 0 12093
0.10550000 0.10551000 15636.25854563 0 324.44080225 0 5472.05274715 0 -604.06429587 0 585.04954782 0 12067
0.10650000 0.10649700 15612.41247220 0 -200.03084608 0 5823.74351118 0 1022.12921892 0 970.85017895 0 12054
0.10750000 0.10749900 15727.98274440 0 -209.21324803 0 4990.49515805 0 852.72227673 0 -253.35288453 0 12807
0.10850000 0.10850100 15690.60541068 0 179.21710589 0 4100.90352442 0 77.10566845 0 -109.72554414 0 12736
0.10950000 0.10950300 15629.38200353 0 280.60617367 0 4230.11596887 0 -159.00007209 0 -289.49465890 0 12933
0.11050000 0.11050200 14981.10154190 0 160.91108532 0 3753.19450010 0 163.16703478 0 -182.69197789 0 13428
0.11150000 0.11150900 15004.94761534 0 212.04150326 0 4022.71058594 0 121.60610158 0 -183.76006016 0 13453
0.11250000 0.11250000 14628.73421486 0 63.56154238 0 3803.58180783 0 61.57943458 0 -1127.06525148 0 13668
0.11350000 0.11349100 14509.72567160 0 270.82484708 0 3816.70269382 0 -49.96695137 0 -551.10826692 0 13791
0.11450000 0.11448600 14247.19703984 0 -191.37971246 0 3443.61701088 0 531.60883357 0 -242.31714357 0 14205
0.11550000 0.11549300 14555.31049106 0 -78.70712638 0 3555.79337681 0 616.01395146 0 40.85819497 0 14776
0.11650000 0.11649800 14851.00180170 0 -57.22647251 0 2834.95430475 0 448.99827134 0 -359.76737365 0 14553
0.11750000 0.11747300 14598.01159931 0 67.79516317 0 2945.64445030 0 -23.35484433 0 -164.22957145 0 14568
0.11850000 0.11849100 14508.17290403 0 203.26060263 0 3055.65803283 0 -539.77195452 0 418.53186244 0 16015
0.11950000 0.11950300 14285.23984537 0 280.05161382 0 3606.26941412 0 -350.97427271 0 -171.26582680 0 15270
0.12050000 0.12050700 14132.51406339 0 177.37596719 0 3322.62314337 0 82.65969623 0 10.62399137 0 15999
0.12150000 0.12150000 13705.39206892 0 161.26267627 0 4036.55239973 0 112.58452198 0 -557.27829978 0 15670
0.12250000 0.12250700 13717.14873768 0 216.85730097 0 3591.03010952 0 -93.71806324 0 62.80101901 0 16887
0.12350000 0.12352200 13447.52173987 0 189.90791063 0 3808.97212955 0 159.65223447 0 -188.36512513 0 16407
0.12450000 0.12449800 13170.57455208 0 173.92105935 0 4316.98222337 0 141.49261771 0 357.66115535 0 16306
0.12550000 0.12549900 13168.57813662 0 -69.14174539 0 3299.84182484 0 -46.39935696 0 -552.43033760 0 17523
0.12650000 0.12650100 13208.83918155 0 110.73162662 0 4223.00651163 0 -285.28000406 0 -57.15659797 0 17154
0.12750000 0.12750600 13187.76590735 0 178.95646276 0 4217.23908921 0 -681.15920586 0 -711.21524047 0 18007
0.12850000 0.12850300 13000.32467892 0 -38.05666953 0 4183.99877196 0 611.16044368 0 -177.20959924 0 17496
0.12950000 0.12949900 13067.31550849 0 34.23464306 0 4478.15949742 0 242.50347567 0 -502.55877052 0 18405
0.13050000 0.13049000 12934.22114511 0 152.19784100 0 4366.01640508 0 95.86387711 0 -28.08745806 0 18100
0.13150000 0.13148800 12762.19668044 0 384.67043816 0 4539.36072218 0 457.48747348 0 501.82120592 0 19059
0.13250000 0.13249300 12240.79951191 0 179.42783863 0 4685.13232367 0 -280.42982364 0 728.49976179 0 18957
0.13350000 0.13349100 12093.50841643 0 54.43936563 0 4403.50465076 0 497.41578249 0 1417.98734744 0 19468
0.13450000 0.13450700 12181.01796035 0 -77.17776123 0 4057.94731864 0 563.78106855 0 1095.61616254 0 19953
0.13550000 0.13551000 12308.12307738 0 -67.31136516 0 3391.26656128 0 187.51332121 0 1069.21689556 0 19956
0.13650000 0.13649900 12075.76250132 0 249.65286123 0 3544.35835276 0 -157.57152592 0 750.97163593 0 19723
0.13750000 0.13749600 11998.90050647 0 130.68424628 0 3319.65070259 0 -93.71307220 0 702.35559234 0 20946
0.13850000 0.13851100 11823.10503484 0 -88.47436714 0 3163.58647033 0 459.14449830 0 400.08609280 0 20955
0.13950000 0.13949800 11660.06443970 0 129.87902538 0 3065.37392135 0 29.26135035 0 177.27503730 0 20506
0.14050000 0.14048300 11804.91547184 0 133.82860062 0 2765.03539919 0 55.92458781 0 240.27969069 0 21447
0.14150000 0.14148400 11559.35637141 0 54.43603827 0 3042.13786375 0 -8.41041028 0 -204.11573392 0 21771
0.14250000 0.14249400 11400.64134308 0 110.18250146 0 2614.09529992 0 85.70212247 0 262.79371137 0 22470
0.14350000 0.14350900 11346.40539000 0 205.77719522 0 3156.23300675 0 -60.37293417 0 165.91654251 0 22519
0.14450000 0.14449900 11169.16806277 0 27.41322420 0 2882.22498615 0 46.89912630 0 114.73288683 0 22218
0.14550000 0.14550500 11032.00323011 0 157.13896924 0 3359.35718766 0 -129.48639701 0 -108.18220409 0 23559
0.14650000 0.14650700 11009.28845876 0 100.46206554 0 2987.08116210 0 -495.79757686 0 -500.78861549 0 23044
0.14750000 0.14750500 10953.38882614 0 67.30881418 0 3689.96358630 0 -94.76795594 0 -324.71031833 0 23649
0.14850000 0.14849900 10697.91419564 0 241.96887998 0 3346.60231117 0 -235.48496625 0 -1146.99613240 0 23640
0.14950000 0.14949500 10438.16945431 0 230.55160184 0 3906.08665003 0 -227.18653269 0 -617.44915235 0 24457
0.15050000 0.15050000 10339.73508139 0 142.95000099 0 3705.59108280 0 263.59560491 0 -830.82049012 0 24591
0.15150000 0.15149900 10148.71139635 0 -2.10525337 0 3931.66295019 0 586.85741292 0 -277.11688311 0 25020
0.15250000 0.15250500 10218.31974840 0 64.05332606 0 3327.46999644 0 280.69601237 0 -551.02397382 0 25297
0.15350000 0.15350100 9909.66282853 0 166.03854567 0 3054.80401066 0 365.85422253 0 68.86524185 0 25452
0.15450000 0.15450400 9870.17816739 0 112.29836910 0 3340.43560567 0 14.61819758 0 574.04597133 0 26061
0.15550000 0.15549900 9535.95603855 0 119.34904300 0 2721.29171843 0 275.57409761 0 419.10971380 0 26128
0.15650000 0.15649500 9587.81847548 0 -14.30110026 0 2924.71536166 0 438.45054304 0 732.16429326 0 26331
0.15750000 0.15749700 9532.81722982 0 -3.56404523 0 2326.62256622 0 367.05096268 0 680.00128490 0 27345
0.15850000 0.15849900 9327.65226867 0 98.85594931 0 2541.29268316 0 255.54339593 0 1439.59299909 0 26980
0.15950000 0.15949700 9479.92331157 0 83.66433685 0 2002.46015302 0 -50.99310891 0 1110.08462896 0 27777
0.16050000 0.16050000 9171.28857409 0 79.54684090 0 2304.08525402 0 11.62401805 0 1141.52817230 0 28224
0.16150000 0.16150500 9236.11662025 0 84.64302407 0 2102.39183752 0 13.88506946 0 719.67782374 0 28075
0.16250000 0.16249700 9020.17101567 0 103.18584169 0 2015.59213020 0 -120.83969987 0 294.14963426 0 28590
0.16350000 0.16349900 8962.69643309 0 177.87174370 0 2289.12322934 0 -214.38840053 0 700.10962496 0 29163
0.16450000 0.16449100 8680.95784821 0 149.80879718 0 2167.77444353 0 20.06153522 0 74.81101071 0 28996
0.16550000 0.16550500 8661.96971903 0 60.18482747 0 2127.65758417 0 330.03298375 0 574.58056702 0 30777
0.16650000 0.16650700 8473.67446844 0 12.06977325 0 1980.07811758 0 84.77268016 0 -133.42266281 0 29211
0.16750000 0.16749900 8459.28918600 0 28.10575854 0 1745.67676127 0 209.17331973 0 581.06115340 0 30922
0.16850000 0.16850800 8390.39067056 0 46.84477943 0 1574.63941313 0 276.54457735 0 494.43446875 0 30867
0.16950000 0.16949900 8393.45184092 0 7.03738665 0 1194.18917542 0 169.43134282 0 737.66330871 0 30852
0.17050000 0.17049200 8270.46155796 0 64.65823994 0 1246.61726339 0 326.31632365 0 535.92552742 0 31257
0.17150000 0.17149500 8224.38872583 0 119.08729075 0 1360.41294408 0 -260.37472132 0 549.83943399 0 32608
0.17250000 0.17250900 8126.05417369 0 71.97920631 0 1013.28842583 0 -82.39450571 0 561.02379699 0 32361
0.17350000 0.17350400 8074.85720858 0 31.90660082 0 1241.29348885 0 -29.12903237 0 89.17422167 0 32508
0.17450000 0.17449800 8086.97988684 0 58.94560804 0 1303.49292134 0 -233.34436523 0 273.77954195 0 32791
0.17550000 0.17549800 8100.14513762 0 106.24046824 0 1486.08729670 0 -28.03632765 0 -529.05564003 0 33633
0.17650000 0.17650100 7861.85077119 0 79.45833314 0 1389.90443676 0 -232.85857081 0 11.47029406 0 33984
0.17750000 0.17750300 7815.25665281 0 121.94549221 0 1701.38961186 0 -280.27565600 0 -538.29127973 0 34069
0.17850000 0.17849800 7760.15558637 0 72.49594517 0 1980.11139117 0 38.83028052 0 -270.41336367 0 34536
