### header ###
fiducial parameters:
Omega_m = 0.31
Omega_nu = 0
Omega_de = 0.69
Omega_k = 0
H_0 = 100
w_de = -1
zeff = 0
beta = 0
fgrowth = 0
b_1 = 2
gamma = 0.55
Lx = 3500 Ly = 3500 Lz = 3500
nx = 700 ny = 700 nz = 700
xoffset = 1379.75464 yoffset = 22.6059522 zoffset = 368.141391
bins = 400 dk = 0.001
kx_ny = 0.628318531 ky_ny = 0.628318531 kz_ny = 0.628318531
############################
A(data) = 3.3473605 (not used)
A(ran) = 3.3438422 (used)
Ngal = 187593
weighted Ngal = 0
Nran = 9399747
weighted Nran = 0
SN(data) = 6661.43749
SN(ran) = 133.002604
SN(data+ran) = 6794.44009
############################
13 columns: k_central k_mean P_0(k) sigma^{lin}_{P_0(k)} P^img_1(k) sigma^{lin}_{P_1(k)} P_2(k) sigma^{lin}_{P_2(k)} P^img_3(k) sigma^{lin}_{P_3(k)} P_4(k) sigma^{lin}_{P_4(k)} N_modes
### header ###
0.00050000 0 0 0 0 0 0 0 0 0 0 0 0
0.00150000 0.00179520 13287.80850382 0 -22495.72021023 0 -34232.86846872 0 32753.96826764 0 8912.12057500 0 3
0.00250000 0.00253879 24565.78120865 0 -21810.28423883 0 -11589.19169120 0 -43822.31735015 0 -11778.85115901 0 6
0.00350000 0.00331552 48435.70072077 0 -26439.41710911 0 -67629.46068754 0 28215.67230037 0 -13226.91783257 0 7
0.00450000 0.00420575 70220.25338268 0 -27336.58403025 0 -56938.54503718 0 -17790.72355283 0 -13385.74377287 0 24
0.00550000 0.00557378 99728.60468736 0 -7773.96412657 0 -63971.14028614 0 -55232.38621064 0 -23863.81935380 0 45
0.00650000 0.00659388 101899.04101816 0 -1849.84528301 0 -6336.58936687 0 -58641.26559267 0 -27883.82368768 0 40
0.00750000 0.00754703 90065.51025819 0 13709.93945967 0 -12361.36082273 0 -58702.48899983 0 -42834.09170207 0 57
0.00850000 0.00846663 94124.99925321 0 10693.65517601 0 20308.09252417 0 -31046.58940943 0 -32272.83214403 0 75
0.00950000 0.00948925 75979.13557410 0 7211.08588145 0 47400.22657368 0 -33601.44662646 0 -61649.42002897 0 112
0.01050000 0.01054430 87100.94422590 0 9692.99629614 0 73091.43153666 0 -6599.82783524 0 -36604.16637625 0 105
0.01150000 0.01145670 69313.10438428 0 6095.48892761 0 83348.45956241 0 3840.24930494 0 -42935.79797808 0 144
0.01250000 0.01249090 71842.11911242 0 3782.49744243 0 88665.80120333 0 15859.08069232 0 -18650.95678813 0 169
0.01350000 0.01339930 72195.15191128 0 -5371.41122604 0 79752.58259983 0 18805.90080950 0 -34695.59320540 0 180
0.01450000 0.01448870 77731.87742783 0 3581.00366748 0 87495.90174923 0 16774.32626449 0 14538.45187170 0 267
0.01550000 0.01550050 70855.11349599 0 1946.11687252 0 54169.51680709 0 25445.42403861 0 -17181.81684037 0 238
0.01650000 0.01653350 72915.85788897 0 1746.18695633 0 69023.06958409 0 15306.18452446 0 25408.49035277 0 315
0.01750000 0.01747870 70025.71378821 0 3314.01637454 0 50782.48708304 0 -4394.89788193 0 -1459.53497120 0 297
0.01850000 0.01844180 69165.03690502 0 3461.35183480 0 68147.53049699 0 10215.12548368 0 25426.67991577 0 388
0.01950000 0.01947590 63890.95093221 0 2160.32115918 0 54925.38187911 0 4187.70323174 0 -2350.34663649 0 399
0.02050000 0.02045430 60349.86448255 0 78.88835653 0 46110.87492845 0 4734.35505573 0 -1245.30850215 0 462
0.02150000 0.02154770 62509.20961640 0 3376.89237004 0 55346.73645117 0 3081.99962558 0 -6624.51683964 0 571
0.02250000 0.02255340 57080.73418206 0 3211.24534362 0 40999.38590289 0 -8729.20455493 0 -16854.84835434 0 510
0.02350000 0.02348930 56120.12561437 0 1207.08823747 0 49736.91994673 0 8976.09459900 0 -4873.67158059 0 555
0.02450000 0.02439640 53528.44562348 0 -1156.52347058 0 38867.21420156 0 8343.78546098 0 -18105.38081025 0 592
0.02550000 0.02547300 59774.12044896 0 -2562.17740701 0 31279.94819322 0 16556.49515643 0 -5981.28287263 0 837
0.02650000 0.02652900 57658.58554306 0 -3656.92291059 0 17764.88106394 0 12930.56105012 0 -5958.19100059 0 723
0.02750000 0.02749970 64698.05733413 0 756.52721648 0 11685.13054480 0 3253.94645187 0 -983.73371332 0 826
0.02850000 0.02848090 58628.06706830 0 2289.77760996 0 9839.89919972 0 -2526.53030002 0 -4041.04433449 0 831
0.02950000 0.02946900 52644.03357883 0 5295.07051744 0 12309.78675692 0 -5858.86933191 0 -4428.70385023 0 996
0.03050000 0.03053250 49459.97275893 0 3256.87452786 0 19140.85495733 0 -5082.48554554 0 -1604.19745300 0 1041
0.03150000 0.03150510 45122.09472052 0 1639.48964169 0 20181.98561486 0 -635.71746284 0 -11815.00846106 0 1036
0.03250000 0.03246190 45391.38898242 0 -1340.94789343 0 20449.94893313 0 5103.98028522 0 -5939.39142176 0 1059
0.03350000 0.03345080 46612.75159036 0 -2393.29175108 0 14707.37080122 0 4558.64831367 0 -12493.23515445 0 1302
0.03450000 0.03451200 50952.51513226 0 -549.18283513 0 14971.67402450 0 -715.54746199 0 -6435.55611724 0 1339
0.03550000 0.03553350 49402.63127071 0 1561.05269687 0 13870.98363936 0 -1889.09702901 0 -13130.20259518 0 1365
0.03650000 0.03647120 49918.37192880 0 1622.53120156 0 19883.18876908 0 -4555.18786023 0 -6267.55775706 0 1308
0.03750000 0.03744890 44463.05579785 0 2037.16450827 0 19609.67985234 0 -1057.05539811 0 -7770.94732100 0 1579
0.03850000 0.03847530 46394.47683442 0 756.34532085 0 24064.68093053 0 2564.00745451 0 -5446.05498150 0 1662
0.03950000 0.03950240 43958.29542474 0 -7.37623380 0 23916.61345127 0 1867.93502523 0 -4439.51776725 0 1683
0.04050000 0.04050350 45436.75197794 0 -567.50105601 0 18860.58041045 0 4698.20884487 0 -3413.62641433 0 1822
0.04150000 0.04152450 45246.98159815 0 -439.34116615 0 20255.52025063 0 3938.92768419 0 4906.63461792 0 1887
0.04250000 0.04250150 46111.87313617 0 484.50008365 0 15224.10966704 0 3.80074246 0 -2053.92330686 0 1920
0.04350000 0.04349210 45008.40995180 0 977.65684651 0 18778.06190516 0 364.30700056 0 5728.74740932 0 2005
0.04450000 0.04448520 43301.47474146 0 1540.00160506 0 15186.51050938 0 708.19843490 0 -183.29533901 0 2151
0.04550000 0.04548030 42943.78363988 0 -103.87482684 0 18607.70112003 0 1718.13731925 0 7238.80278262 0 2274
0.04650000 0.04648670 41714.10263423 0 939.45321863 0 15099.22278940 0 3018.52470544 0 2364.64318936 0 2311
0.04750000 0.04749250 40956.35205873 0 1025.27800973 0 15236.19907171 0 432.93378168 0 5049.52250821 0 2568
0.04850000 0.04851840 37822.86709692 0 1759.86240217 0 18689.66506548 0 -200.89817768 0 5365.15579096 0 2493
0.04950000 0.04949480 38026.50147289 0 909.64451771 0 16552.16958962 0 -688.05682124 0 5448.17340012 0 2644
0.05050000 0.05050630 36892.98114478 0 841.79855686 0 17857.15982255 0 231.04072363 0 4737.57150284 0 2829
0.05150000 0.05149060 35172.18193826 0 784.94286306 0 17182.48231219 0 2239.45684941 0 3376.29344540 0 2784
0.05250000 0.05249300 34750.60554226 0 422.31506972 0 16540.41292085 0 1817.24825518 0 6359.30413822 0 3055
0.05350000 0.05348950 34401.89831021 0 -604.86729853 0 15388.14846990 0 2472.97090995 0 5912.36217480 0 3009
0.05450000 0.05448610 35109.07302763 0 -5.35139162 0 14605.77543718 0 3159.95964893 0 5403.23187008 0 3336
0.05550000 0.05550870 33855.10230066 0 197.68283969 0 11383.44998781 0 1225.34434764 0 5350.14940149 0 3349
0.05650000 0.05647670 34247.50884869 0 979.07430148 0 11267.10333182 0 -1491.47761842 0 7708.12678148 0 3324
0.05750000 0.05747970 32645.38544952 0 965.12490308 0 11934.46065220 0 -319.35992493 0 1602.71123261 0 3639
0.05850000 0.05849280 32406.70289119 0 319.79469985 0 14570.06178300 0 -154.77321693 0 3474.41726480 0 3846
0.05950000 0.05951020 31917.47019381 0 242.50014832 0 11291.61487708 0 18.30712968 0 961.87850974 0 3787
0.06050000 0.06049470 31090.62146132 0 658.65849461 0 13854.45775590 0 -1215.70609749 0 775.50092710 0 3930
0.06150000 0.06148310 30344.62755458 0 897.28337871 0 11275.19990559 0 -30.00213139 0 -283.68287170 0 4083
0.06250000 0.06249100 30289.83704166 0 -481.68513786 0 14946.60791939 0 2183.65703756 0 907.77454190 0 4303
0.06350000 0.06350600 30038.84325472 0 -97.43106324 0 10611.55813620 0 2698.06675202 0 470.01387131 0 4470
0.06450000 0.06451750 30914.93690166 0 -100.32697476 0 10907.91491865 0 1096.05759218 0 1503.04573683 0 4479
0.06550000 0.06550280 29585.54603544 0 193.64009840 0 8666.65020414 0 1170.05473086 0 1424.36478568 0 4636
0.06650000 0.06648880 29930.81499644 0 396.28624872 0 10034.88244207 0 -787.96854159 0 1771.67452692 0 4653
0.06750000 0.06749660 28737.73494072 0 712.36761583 0 8971.82448817 0 -1327.57190991 0 -312.12513716 0 5220
0.06850000 0.06852730 28662.42571344 0 552.85291220 0 10404.81822508 0 -743.98085449 0 -590.52638087 0 5029
0.06950000 0.06949320 28206.24478296 0 384.32106545 0 10740.09401763 0 -1238.09922413 0 -2499.26813792 0 5040
0.07050000 0.07048030 27601.77454929 0 55.68390884 0 9826.19048029 0 122.73074895 0 -3399.40749984 0 5475
0.07150000 0.07148790 28089.56539107 0 -236.84031051 0 11628.67635233 0 -284.07328184 0 -3989.27062714 0 5509
0.07250000 0.07249820 28158.55263609 0 -102.11509753 0 9973.43721098 0 633.98612700 0 -3229.03562352 0 5916
0.07350000 0.07351270 28989.72693539 0 -585.69172813 0 9726.68026127 0 1545.35865319 0 -4340.01863943 0 5721
0.07450000 0.07449140 28703.46314215 0 225.31655688 0 9045.95804858 0 764.74579342 0 -3278.66872986 0 6028
0.07550000 0.07549160 29071.80179280 0 291.57204009 0 8729.99202992 0 -397.29222028 0 -2509.69386305 0 6183
0.07650000 0.07648840 27811.61999555 0 678.59492112 0 11157.07865810 0 502.97801776 0 -2164.70218198 0 6330
0.07750000 0.07749960 27363.86837475 0 1021.14764799 0 9150.95841009 0 -1004.84358847 0 -1827.37451799 0 6583
0.07850000 0.07848650 26896.37442338 0 365.61465268 0 10044.47632743 0 180.72550867 0 -993.97421546 0 6549
0.07950000 0.07947320 25807.10797109 0 39.43863267 0 10484.14246566 0 1159.55136735 0 -1276.99605183 0 6828
0.08050000 0.08048110 25664.03153046 0 162.49934473 0 9678.96593200 0 970.93447204 0 -1386.67689845 0 7147
0.08150000 0.08149960 25529.38439951 0 420.79113926 0 8054.12776148 0 1054.19608753 0 -1312.95371234 0 7386
0.08250000 0.08250610 24627.33735171 0 489.79502107 0 9516.65735586 0 -108.19995000 0 78.09500322 0 7227
0.08350000 0.08350160 23892.43464192 0 715.97114572 0 8294.20781062 0 221.04200958 0 -227.07229336 0 7798
0.08450000 0.08449610 23534.29989246 0 360.18107530 0 9101.50276289 0 106.83462366 0 1590.01181210 0 7371
0.08550000 0.08548940 23022.33024133 0 127.41677966 0 7895.90074582 0 1344.40834688 0 718.03189011 0 8256
0.08650000 0.08650700 22489.39822797 0 156.03428603 0 7958.68801174 0 761.98186714 0 1110.62809761 0 8037
0.08750000 0.08749060 22721.53698010 0 400.59517873 0 7163.72647048 0 350.79348620 0 1191.11691386 0 8155
0.08850000 0.08849210 21960.12630960 0 141.28299409 0 7369.75654499 0 553.92210359 0 1908.96136274 0 8718
0.08950000 0.08949900 21973.32483397 0 86.14632490 0 6785.71629609 0 1385.37922841 0 3140.93824616 0 8571
0.09050000 0.09049190 21541.98818465 0 117.27720741 0 5112.64251004 0 781.67983292 0 2861.69518060 0 8932
0.09150000 0.09150830 21180.30425217 0 304.51103045 0 6076.88899033 0 479.56561013 0 2406.64555220 0 9285
0.09250000 0.09250820 20359.11203013 0 614.43789238 0 5483.56540958 0 -1095.25791688 0 1932.55233865 0 9204
0.09350000 0.09350330 19943.30305654 0 696.37410983 0 7031.38630849 0 -1188.72121532 0 2208.34604197 0 9349
0.09450000 0.09448040 19116.67614799 0 293.92559209 0 6597.39886311 0 95.01950429 0 141.78653443 0 9564
0.09550000 0.09549270 19150.06065080 0 42.40031499 0 6976.38506283 0 -702.50421438 0 417.56471007 0 10155
0.09650000 0.09649430 19239.01205033 0 -3.79119294 0 7118.75166685 0 392.10597659 0 -1249.21260348 0 9913
0.09750000 0.09749140 19212.94773750 0 191.06472247 0 7309.62007514 0 -251.00820549 0 -599.71543755 0 10476
0.09850000 0.09850240 18450.87159519 0 425.25423691 0 7234.85431651 0 -77.55009271 0 -2570.27398078 0 10575
0.09950000 0.09950330 18595.27897945 0 319.88121118 0 7285.38580980 0 -286.84053547 0 -827.95896130 0 10882
0.10050000 0.10051200 17909.39936017 0 219.65671908 0 7155.27497840 0 783.64962950 0 -1618.22781714 0 10875
0.10150000 0.10150300 17668.83129837 0 251.18122817 0 7715.48024506 0 584.75452198 0 -467.41409475 0 11118
0.10250000 0.10250800 17170.61473145 0 330.85927792 0 7006.17601783 0 146.86297527 0 -309.76936693 0 11575
0.10350000 0.10349800 16949.23444037 0 274.59141757 0 7601.80656754 0 188.65127801 0 520.06511578 0 11364
0.10450000 0.10450100 16457.89441556 0 60.77720830 0 6844.33327196 0 306.88011012 0 327.85245443 0 12093
0.10550000 0.10551000 16488.72794308 0 308.59370005 0 7468.27964748 0 387.34008926 0 1641.74115467 0 12067
0.10650000 0.10649700 16253.70547974 0 83.57039441 0 6428.90139907 0 296.21259690 0 808.69133397 0 12054
0.10750000 0.10749900 16017.35207278 0 -29.15820222 0 7108.51449207 0 667.35399302 0 1186.61388790 0 12807
0.10850000 0.10850100 16018.79392838 0 126.72247073 0 6034.45407080 0 554.27924013 0 1537.87209525 0 12736
0.10950000 0.10950300 15713.56418836 0 178.03700253 0 5936.69626090 0 249.50423919 0 639.34095688 0 12933
0.11050000 0.11050200 15765.58190205 0 123.09121285 0 5538.86611756 0 -234.98364414 0 1606.99243463 0 13428
0.11150000 0.11150900 15478.43081306 0 16.84087345 0 5337.05069789 0 639.76464061 0 655.11042070 0 13453
0.11250000 0.11250000 15320.04852064 0 115.27968284 0 5117.27863036 0 59.42086583 0 224.13534441 0 13668
0.11350000 0.11349100 15063.73095917 0 218.00523986 0 4644.48308686 0 24.00345752 0 -190.90833659 0 13791
0.11450000 0.11448600 14985.53802068 0 164.38928469 0 4465.30480016 0 431.46308896 0 302.57118011 0 14205
0.11550000 0.11549300 14387.38976926 0 149.01134012 0 3741.70402006 0 273.68748501 0 -491.75594469 0 14776
0.11650000 0.11649800 14705.81803365 0 128.08336060 0 4255.08225320 0 -2.12337638 0 -911.07528211 0 14553
0.11750000 0.11747300 13973.02265128 0 248.01801880 0 3490.11130848 0 -283.20484112 0 -568.15210927 0 14568
0.11850000 0.11849100 13815.97130249 0 378.87972423 0 4507.88390524 0 -261.61915361 0 -636.30862364 0 16015
0.11950000 0.11950300 13563.31383601 0 87.93245126 0 4264.55413539 0 -123.95854445 0 -704.26438734 0 15270
0.12050000 0.12050700 13204.18087883 0 296.75606555 0 4896.88545581 0 103.37916125 0 -651.48581754 0 15999
0.12150000 0.12150000 13038.03474854 0 266.30185697 0 4821.37658698 0 -44.75719434 0 -377.10291448 0 15670
0.12250000 0.12250700 12805.67417248 0 176.57296454 0 5588.90959819 0 -282.42845733 0 563.03352188 0 16887
0.12350000 0.12352200 12680.12182302 0 138.81409364 0 5250.45063212 0 627.79945734 0 -6.85049998 0 16407
0.12450000 0.12449800 12682.78371029 0 -91.59820276 0 5537.43535316 0 621.60280560 0 1873.84663321 0 16306
0.12550000 0.12549900 12698.42229799 0 -153.90810357 0 4512.26492804 0 506.25657558 0 779.54366839 0 17523
0.12650000 0.12650100 13155.71234816 0 -80.00978746 0 4965.25159380 0 402.04701642 0 1376.40645008 0 17154
0.12750000 0.12750600 12902.72214578 0 141.55361929 0 4248.15025511 0 -329.64368274 0 1130.63661690 0 18007
0.12850000 0.12850300 12754.87649046 0 154.11439983 0 4617.42056630 0 216.98041326 0 984.22838071 0 17496
0.12950000 0.12949900 12578.19372307 0 3.53378844 0 4339.13134367 0 39.02049454 0 1098.78602663 0 18405
0.13050000 0.13049000 12751.32730743 0 -46.66465839 0 3355.68600147 0 803.78347932 0 580.65299735 0 18100
0.13150000 0.13148800 12604.47985984 0 -168.67492319 0 3458.90068027 0 794.35374367 0 1516.48826753 0 19059
0.13250000 0.13249300 12715.61365326 0 84.65378253 0 2476.09862749 0 100.06976991 0 685.20749274 0 18957
0.13350000 0.13349100 12578.97010686 0 213.82940420 0 2661.01106301 0 -14.75295562 0 721.37810423 0 19468
0.13450000 0.13450700 12293.70452135 0 251.47625401 0 2367.48253578 0 -567.42119939 0 249.33010740 0 19953
0.13550000 0.13551000 12005.11157676 0 97.82724079 0 3027.68603412 0 -9.17890823 0 604.52125318 0 19956
0.13650000 0.13649900 11968.62153880 0 30.39376156 0 2738.18361138 0 97.88824238 0 -189.51084578 0 19723
0.13750000 0.13749600 11890.42860031 0 37.51164811 0 2745.23761264 0 320.76628870 0 0.41726858 0 20946
0.13850000 0.13851100 11736.26096273 0 201.20096736 0 2497.84846471 0 61.96441002 0 103.47831655 0 20955
0.13950000 0.13949800 11500.24029167 0 294.28383775 0 3005.67000818 0 -504.05719123 0 -151.90725164 0 20506
0.14050000 0.14048300 11107.83374364 0 352.41501919 0 3562.71428371 0 -481.39343938 0 460.59411775 0 21447
0.14150000 0.14148400 11048.11873928 0 140.47000935 0 3427.15767461 0 131.38520993 0 195.74077110 0 21771
0.14250000 0.14249400 10798.48916956 0 -64.01262136 0 3543.93688727 0 247.05863026 0 55.00668035 0 22470
0.14350000 0.14350900 10912.91704848 0 5.03926315 0 3260.63444363 0 246.23344521 0 137.89574254 0 22519
0.14450000 0.14449900 11109.27559925 0 21.36419630 0 3358.04842642 0 135.97474723 0 233.07817651 0 22218
0.14550000 0.14550500 10809.12562744 0 44.23468805 0 2911.87175559 0 274.98737330 0 203.04210605 0 23559
0.14650000 0.14650700 10753.74728107 0 145.96791568 0 3015.01988721 0 -24.18923507 0 193.49480372 0 23044
0.14750000 0.14750500 10594.32241614 0 228.86241255 0 2787.26215788 0 -7.84664474 0 384.34990256 0 23649
0.14850000 0.14849900 10419.72479378 0 79.35529593 0 2808.19124652 0 436.06149922 0 624.21921896 0 23640
0.14950000 0.14949500 10112.13262882 0 134.10033494 0 2771.37956385 0 191.99194653 0 542.00683071 0 24457
0.15050000 0.15050000 10141.44666235 0 80.80424989 0 2329.70591897 0 56.55323686 0 684.80931877 0 24591
0.15150000 0.15149900 9840.54248914 0 53.14557750 0 2719.29530298 0 186.00824578 0 943.72665681 0 25020
0.15250000 0.15250500 9877.52053977 0 77.52314110 0 2363.75589361 0 -66.64422966 0 722.40071259 0 25297
0.15350000 0.15350100 9915.51898051 0 -37.01320972 0 2378.55155033 0 556.04052220 0 1037.29975810 0 25452
0.15450000 0.15450400 9941.22837504 0 -47.11717923 0 2124.31913389 0 77.03889944 0 848.40669200 0 26061
0.15550000 0.15549900 10030.30177773 0 120.54911051 0 2201.99078612 0 -213.60203467 0 927.49579920 0 26128
0.15650000 0.15649500 9800.71400090 0 163.19587190 0 2326.57820143 0 -156.01321275 0 769.60041032 0 26331
0.15750000 0.15749700 9675.25038102 0 154.28520427 0 2400.84485620 0 -239.37908549 0 639.64374656 0 27345
0.15850000 0.15849900 9579.30043623 0 5.77859125 0 2381.53508231 0 98.37314951 0 830.50882748 0 26980
0.15950000 0.15949700 9481.48717034 0 160.10919179 0 2744.81614716 0 -44.88685043 0 162.60027462 0 27777
0.16050000 0.16050000 9392.76868595 0 255.45910283 0 2607.09675465 0 -275.06501168 0 533.14163698 0 28224
0.16150000 0.16150500 8910.52344264 0 217.88101845 0 2793.92796724 0 -0.00870630 0 -63.44885582 0 28075
0.16250000 0.16249700 8848.66783726 0 72.82524281 0 2922.03129199 0 -76.08993663 0 317.85817686 0 28590
0.16350000 0.16349900 8876.65092716 0 -133.09990898 0 2460.92587007 0 616.71602423 0 121.72477739 0 29163
0.16450000 0.16449100 8960.89965918 0 -36.65097123 0 2350.37991009 0 525.94455928 0 422.60454996 0 28996
0.16550000 0.16550500 8822.22642374 0 33.74141753 0 1822.47220894 0 158.89026924 0 657.11570911 0 30777
0.16650000 0.16650700 8919.82895688 0 108.56662498 0 1730.07144717 0 60.34753533 0 528.79943338 0 29211
0.16750000 0.16749900 8723.43713252 0 60.49959564 0 1880.02442991 0 178.63259981 0 921.25145531 0 30922
0.16850000 0.16850800 8602.76490972 0 130.01544711 0 1776.38828562 0 10.69946696 0 785.37874710 0 30867
0.16950000 0.16949900 8423.91935893 0 234.01316441 0 2096.95715102 0 -251.81675375 0 1186.82462064 0 30852
0.17050000 0.17049200 8184.84860871 0 170.68797543 0 2325.61326730 0 -201.64017876 0 1135.48346997 0 31257
0.17150000 0.17149500 8056.49018643 0 104.46321484 0 2350.24681572 0 63.98555884 0 1087.83236052 0 32608
0.17250000 0.17250900 8112.28999828 0 33.57815511 0 2467.32549071 0 -20.90945722 0 1293.68830324 0 32361
0.17350000 0.17350400 8023.88206740 0 50.08218891 0 2564.37346400 0 -185.06438492 0 698.61342249 0 32508
0.17450000 0.17449800 7931.05984014 0 113.14019095 0 2786.53013888 0 9.32389235 0 1235.23769532 0 32791
0.17550000 0.17549800 7899.52756722 0 62.43512042 0 2679.53336192 0 -279.52034549 0 358.39206523 0 33633
0.17650000 0.17650100 7854.77458753 0 -14.47079557 0 2883.57811217 0 242.88279461 0 981.91697526 0 33984
0.17750000 0.17750300 7985.73944110 0 -41.02411927 0 2600.55294845 0 206.15651416 0 756.06360445 0 34069
0.17850000 0.17849800 7839.18036463 0 69.55699981 0 2505.51248180 0 91.54784873 0 662.96076990 0 34536
