### header ###
fiducial parameters:
Omega_m = 0.31
Omega_nu = 0
Omega_de = 0.69
Omega_k = 0
H_0 = 100
w_de = -1
zeff = 0
beta = 0
fgrowth = 0
b_1 = 2
gamma = 0.55
Lx = 3500 Ly = 3500 Lz = 3500
nx = 700 ny = 700 nz = 700
xoffset = 1379.75464 yoffset = 22.6059522 zoffset = 368.141391
bins = 400 dk = 0.001
kx_ny = 0.628318531 ky_ny = 0.628318531 kz_ny = 0.628318531
############################
A(data) = 3.30663273 (not used)
A(ran) = 3.31395817 (used)
Ngal = 186430
weighted Ngal = 0
Nran = 9399747
weighted Nran = 0
SN(data) = 6664.70988
SN(ran) = 131.813955
SN(data+ran) = 6796.52384
############################
13 columns: k_central k_mean P_0(k) sigma^{lin}_{P_0(k)} P^img_1(k) sigma^{lin}_{P_1(k)} P_2(k) sigma^{lin}_{P_2(k)} P^img_3(k) sigma^{lin}_{P_3(k)} P_4(k) sigma^{lin}_{P_4(k)} N_modes
### header ###
0.00050000 0 0 0 0 0 0 0 0 0 0 0 0
0.00150000 0.00179520 21212.35781135 0 -16377.26141375 0 -22552.83987452 0 24327.76412214 0 -19877.08861076 0 3
0.00250000 0.00253879 40727.20792978 0 -14937.29131396 0 -11860.03872067 0 -24009.89041760 0 40309.29162877 0 6
0.00350000 0.00331552 42193.35325437 0 -3989.11535038 0 -16699.90433297 0 -22838.54910790 0 -15131.60908449 0 7
0.00450000 0.00420575 46937.16910109 0 -2392.83701200 0 -22337.89247766 0 -20489.32268230 0 4466.18100472 0 24
0.00550000 0.00557378 45081.39002772 0 1494.18387047 0 -12121.45823274 0 -16578.45572639 0 246.64160126 0 45
0.00650000 0.00659388 46044.32774676 0 2265.37697667 0 -14799.09499998 0 -5600.40007823 0 -12845.38065755 0 40
0.00750000 0.00754703 41811.81607935 0 -2967.10591639 0 6936.84494571 0 -9752.05691989 0 2809.46673417 0 57
0.00850000 0.00846663 47422.85261545 0 -2066.00162033 0 -7328.71911628 0 6091.86210621 0 -9307.49956381 0 75
0.00950000 0.00948925 59675.74153203 0 -10721.91554583 0 -14926.53285292 0 19394.84336745 0 11545.71419916 0 112
0.01050000 0.01054430 66430.39138547 0 -5696.08383430 0 -7785.52115379 0 -4575.73984817 0 11974.61078515 0 105
0.01150000 0.01145670 77114.43049372 0 -3949.60850685 0 -20713.69759656 0 9964.02078477 0 12454.52687710 0 144
0.01250000 0.01249090 75297.35969770 0 2377.68643697 0 4254.88261166 0 -17532.96413575 0 14512.38755887 0 169
0.01350000 0.01339930 75118.56960289 0 6522.10072702 0 -2671.17059942 0 -14503.18186540 0 12565.21702264 0 180
0.01450000 0.01448870 69868.77335139 0 1916.51446787 0 31408.05151798 0 -2245.98956441 0 28643.57067863 0 267
0.01550000 0.01550050 72542.97184758 0 3313.31762913 0 12144.41701043 0 15716.33698760 0 17911.17395168 0 238
0.01650000 0.01653350 68689.00273201 0 611.29464716 0 27865.19047681 0 9482.10827737 0 32627.08497456 0 315
0.01750000 0.01747870 67317.13258148 0 974.83413689 0 17904.74105745 0 17128.91183093 0 35050.51150774 0 297
0.01850000 0.01844180 67146.21723651 0 -1633.38948337 0 30882.99425445 0 10757.85102394 0 38070.31170084 0 388
0.01950000 0.01947590 70847.01692222 0 -3027.40875420 0 12434.11907471 0 9228.44151197 0 42457.54556567 0 399
0.02050000 0.02045430 71382.72173482 0 -4896.63035828 0 2158.85712118 0 14346.35234056 0 35451.45827742 0 462
0.02150000 0.02154770 79128.37003558 0 -3775.86490666 0 -1626.02492859 0 5975.39344705 0 29793.94962610 0 571
0.02250000 0.02255340 83868.96943519 0 -2120.18211743 0 -2616.06953298 0 -1743.02596520 0 25781.37639417 0 510
0.02350000 0.02348930 81209.41131898 0 629.53190230 0 -10654.19269727 0 -4353.78281484 0 17899.19545898 0 555
0.02450000 0.02439640 85600.52710275 0 1098.80266342 0 -6962.06632757 0 -5459.71933614 0 10776.32895806 0 592
0.02550000 0.02547300 78931.27946581 0 3356.75075638 0 -6091.48500551 0 -7507.26520475 0 8532.96800733 0 837
0.02650000 0.02652900 73192.36142889 0 5784.52503877 0 3253.76899272 0 -2042.88756589 0 -2415.64051293 0 723
0.02750000 0.02749970 66100.20645232 0 4341.33849187 0 6991.25835793 0 -9344.48870563 0 2024.94200923 0 826
0.02850000 0.02848090 61252.79882610 0 3101.07648433 0 5929.28734134 0 3469.01585189 0 560.90733942 0 831
0.02950000 0.02946900 59134.38020899 0 731.72508186 0 11534.62300221 0 3267.03406427 0 -3477.93317424 0 996
0.03050000 0.03053250 59089.68268529 0 -1240.20655155 0 870.73327146 0 2615.70352348 0 -1020.29695318 0 1041
0.03150000 0.03150510 59370.40088005 0 651.25955712 0 3564.06740974 0 2660.15704085 0 -2888.32514447 0 1036
0.03250000 0.03246190 60371.71414053 0 -188.58694907 0 -1506.62819345 0 -1668.71494565 0 4506.71932956 0 1059
0.03350000 0.03345080 57838.04110968 0 281.23282630 0 4531.69670509 0 2866.28693613 0 -1975.80800675 0 1302
0.03450000 0.03451200 56149.73911022 0 2683.59274000 0 7174.58475229 0 -4127.17856999 0 3824.71053802 0 1339
0.03550000 0.03553350 54407.86662951 0 1883.91744003 0 6740.58621571 0 -1412.95194402 0 518.46021958 0 1365
0.03650000 0.03647120 53165.43074737 0 2016.91198264 0 12681.23094272 0 -1857.54257369 0 4819.71290744 0 1308
0.03750000 0.03744890 50606.46978747 0 1865.17331719 0 15182.07403061 0 -1305.75552552 0 5833.78104442 0 1579
0.03850000 0.03847530 47157.32936051 0 1584.82113193 0 18447.32241216 0 -1512.00742397 0 5956.50513865 0 1662
0.03950000 0.03950240 45186.31275085 0 2275.64742505 0 17288.40324304 0 1377.89267047 0 1913.16492639 0 1683
0.04050000 0.04050350 46037.78394056 0 809.40449793 0 21633.15782357 0 3261.88774888 0 11373.57882252 0 1822
0.04150000 0.04152450 42572.45036606 0 -365.24642494 0 17046.17150169 0 4990.62825241 0 12222.27721300 0 1887
0.04250000 0.04250150 45312.53057212 0 -316.50172347 0 17675.59692850 0 2953.82975364 0 14108.00251814 0 1920
0.04350000 0.04349210 43853.37270161 0 -316.16898757 0 10207.62783454 0 2235.22001217 0 9413.25412671 0 2005
0.04450000 0.04448520 44343.38178278 0 1735.37303931 0 16336.33489701 0 215.03058083 0 11232.72062128 0 2151
0.04550000 0.04548030 40915.31463002 0 1412.04246587 0 14188.63551995 0 -1344.05342858 0 12395.52170933 0 2274
0.04650000 0.04648670 40780.00202726 0 402.97645872 0 16865.71772735 0 383.00564949 0 11888.87583274 0 2311
0.04750000 0.04749250 40097.00611918 0 -38.67777656 0 13274.38815551 0 3752.14083639 0 8459.23373002 0 2568
0.04850000 0.04851840 40227.32768333 0 497.06308243 0 13840.81558366 0 275.05059312 0 8815.33879043 0 2493
0.04950000 0.04949480 38611.78393585 0 933.47506347 0 10615.26259598 0 1297.74768132 0 7806.06205054 0 2644
0.05050000 0.05050630 37609.69429158 0 970.16585210 0 14106.89339844 0 -787.13448358 0 8249.80974924 0 2829
0.05150000 0.05149060 35944.68380571 0 1478.14599968 0 12917.36252575 0 -1485.52164565 0 4113.78040408 0 2784
0.05250000 0.05249300 35056.94440197 0 866.45650591 0 14387.05703336 0 -167.52365695 0 5864.14874166 0 3055
0.05350000 0.05348950 33545.76881778 0 273.63757463 0 11037.70410534 0 1937.52119489 0 1952.72722590 0 3009
0.05450000 0.05448610 33054.20696903 0 359.66644376 0 13729.57087827 0 1279.29192960 0 3506.21572645 0 3336
0.05550000 0.05550870 32124.65375280 0 1041.07409243 0 10829.40033546 0 -67.99291921 0 -2869.49229205 0 3349
0.05650000 0.05647670 30493.69324157 0 1625.82528705 0 12753.32372288 0 -3249.79834421 0 -944.38547391 0 3324
0.05750000 0.05747970 29378.36247645 0 114.40791476 0 12448.42671878 0 -1225.59944517 0 -3895.92711362 0 3639
0.05850000 0.05849280 29918.39285586 0 -1021.93179561 0 10480.16072595 0 1465.15820806 0 -5404.37426337 0 3846
0.05950000 0.05951020 31152.17760438 0 -495.91625267 0 11707.42385067 0 457.09262687 0 -6910.74735929 0 3787
0.06050000 0.06049470 32108.46060526 0 302.90613425 0 9139.60102441 0 -837.73030582 0 -8884.68095375 0 3930
0.06150000 0.06148310 31364.46311397 0 -131.97969809 0 12018.97557294 0 561.22343854 0 -5743.16596535 0 4083
0.06250000 0.06249100 31771.17730606 0 -205.47107818 0 10003.87145540 0 671.38009751 0 -4982.40967547 0 4303
0.06350000 0.06350600 32173.56593134 0 -209.14559173 0 11465.74666916 0 1724.22638637 0 -1485.41073368 0 4470
0.06450000 0.06451750 33940.72634110 0 66.29053139 0 12030.73224171 0 715.64728277 0 -1748.09464221 0 4479
0.06550000 0.06550280 31749.54947201 0 886.76116016 0 10506.70196025 0 841.16524951 0 229.97153224 0 4636
0.06650000 0.06648880 31562.66280343 0 1157.04475684 0 15306.84999627 0 -2041.10188318 0 3643.23637355 0 4653
0.06750000 0.06749660 30137.55490756 0 751.34762750 0 15951.13762699 0 -210.08723435 0 4139.35670424 0 5220
0.06850000 0.06852730 29773.98547160 0 312.98914140 0 15617.29259885 0 1876.98544194 0 5155.28816231 0 5029
0.06950000 0.06949320 29556.37618747 0 506.04473372 0 14817.50638692 0 713.58653837 0 2423.62617473 0 5040
0.07050000 0.07048030 29140.67812585 0 221.15846715 0 16082.56831083 0 -439.23579978 0 5132.21847265 0 5475
0.07150000 0.07148790 28297.52533385 0 884.55733933 0 16099.20510625 0 343.61748177 0 3962.95121678 0 5509
0.07250000 0.07249820 27431.63558810 0 383.59681029 0 15661.21373877 0 91.52644272 0 3479.98504567 0 5916
0.07350000 0.07351270 26768.16018666 0 611.20037199 0 14488.98513331 0 704.72799937 0 1517.13155696 0 5721
0.07450000 0.07449140 26599.90672895 0 123.59475319 0 14646.70195391 0 1119.21268405 0 1825.63320007 0 6028
0.07550000 0.07549160 25819.30828774 0 134.27446673 0 12727.92488187 0 1208.68536983 0 50.48657395 0 6183
0.07650000 0.07648840 26082.61330329 0 247.16288751 0 11958.97219745 0 747.01096950 0 1219.48819565 0 6330
0.07750000 0.07749960 24550.47535686 0 693.99504809 0 11763.32348328 0 -652.04481387 0 -219.99610971 0 6583
0.07850000 0.07848650 24195.33523058 0 527.63263946 0 10907.91491865 0 626.78128546 0 -960.81819131 0 6549
0.07950000 0.07947320 23860.38108274 0 -379.19471422 0 10663.64239707 0 1913.85258060 0 -500.42704247 0 6828
0.08050000 0.08048110 23618.37116533 0 154.90520218 0 9004.31060404 0 301.08052324 0 -1392.98778952 0 7147
0.08150000 0.08149960 23793.94481302 0 265.02526020 0 8171.56135477 0 831.55583647 0 -375.09873519 0 7386
0.08250000 0.08250610 22880.91748024 0 433.94751708 0 9520.81655472 0 -986.08282884 0 -1962.31002006 0 7227
0.08350000 0.08350160 23023.66118497 0 163.62510122 0 8859.99194935 0 -468.33577322 0 -1216.21629255 0 7798
0.08450000 0.08449610 22565.92748691 0 -55.52896482 0 8220.75081323 0 805.41166703 0 -1708.78744022 0 7371
0.08550000 0.08548940 23366.15734673 0 -358.56065142 0 8550.78046963 0 726.36248814 0 -3202.07292374 0 8256
0.08650000 0.08650700 23239.16314167 0 88.12044705 0 7538.99711922 0 473.60298265 0 -1874.93357051 0 8037
0.08750000 0.08749060 22987.17114701 0 487.35384862 0 8289.05040404 0 541.42232463 0 -2974.53701835 0 8155
0.08850000 0.08849210 22477.30882330 0 735.26317369 0 7802.95651539 0 -1105.92210274 0 -2067.88712381 0 8718
0.08950000 0.08949900 21122.18638016 0 617.08425197 0 8411.55267434 0 -221.27603384 0 -1983.20583511 0 8571
0.09050000 0.09049190 20536.12753342 0 267.37659395 0 8270.84974985 0 968.63415780 0 -1855.75689098 0 8932
0.09150000 0.09150830 20448.61798950 0 -29.51001498 0 6701.31228731 0 1441.52286736 0 -1851.77515128 0 9285
0.09250000 0.09250820 19921.45339855 0 339.61688703 0 6298.32473740 0 726.40796205 0 -1889.01939063 0 9204
0.09350000 0.09350330 19396.17431108 0 361.53863780 0 5174.33174747 0 920.76787913 0 -1018.34601164 0 9349
0.09450000 0.09448040 19110.46507770 0 46.11043128 0 5470.73289471 0 91.71288574 0 -1365.44834749 0 9564
0.09550000 0.09549270 18850.82015714 0 341.51015435 0 4043.11838832 0 -329.08024993 0 -946.36414344 0 10155
0.09650000 0.09649430 18622.78514788 0 229.78630925 0 5033.80628213 0 127.81162627 0 -1854.58122411 0 9913
0.09750000 0.09749140 18565.44365966 0 -157.08462238 0 4235.66156734 0 172.49029494 0 -1463.36143415 0 10476
0.09850000 0.09850240 18417.15435646 0 109.63570545 0 5383.20116840 0 148.70522308 0 -1409.75767930 0 10575
0.09950000 0.09950330 18485.80886557 0 452.20251814 0 4732.04808676 0 -279.86639083 0 -1139.39866249 0 10882
0.10050000 0.10051200 17617.47905650 0 449.54950383 0 5382.44696700 0 -373.64578839 0 -835.70505325 0 10875
0.10150000 0.10150300 17481.16824600 0 286.36028665 0 6713.40169199 0 51.90735628 0 587.33544351 0 11118
0.10250000 0.10250800 17186.69696703 0 146.97499636 0 5504.79396054 0 734.27162068 0 491.46868269 0 11575
0.10350000 0.10349800 17314.24573193 0 -185.68881931 0 6282.30904900 0 847.21771569 0 578.10534941 0 11364
0.10450000 0.10450100 16906.64424408 0 311.03043602 0 5402.25584475 0 296.99896276 0 1309.63744445 0 12093
0.10550000 0.10551000 16915.29537770 0 299.41129810 0 5712.29916424 0 -33.92996788 0 907.18892670 0 12067
0.10650000 0.10649700 16493.38624579 0 149.21430902 0 5012.11190090 0 -53.62504995 0 1064.72606992 0 12054
0.10750000 0.10749900 16025.55955852 0 342.29541110 0 5861.93050227 0 -160.20457608 0 546.80488250 0 12807
0.10850000 0.10850100 15343.78368211 0 405.33777455 0 5269.36112292 0 -679.16722689 0 -199.54616077 0 12736
0.10950000 0.10950300 15247.95574048 0 350.91438024 0 5771.42633517 0 115.21757214 0 -435.26404216 0 12933
0.11050000 0.11050200 15037.00117452 0 109.66698262 0 5960.22068963 0 -23.08787922 0 -1017.58848289 0 13428
0.11150000 0.11150900 14567.17807180 0 213.45563087 0 5964.41316207 0 -61.49303415 0 -642.52302129 0 13453
0.11250000 0.11250000 14537.56457594 0 45.83448230 0 5613.44332584 0 379.07382018 0 -998.43065840 0 13668
0.11350000 0.11349100 14152.92186578 0 -42.34352806 0 5493.61403401 0 552.84736660 0 -602.12333640 0 13791
0.11450000 0.11448600 14693.39589307 0 -102.38050988 0 4915.19702197 0 750.33500122 0 -220.44530318 0 14205
0.11550000 0.11549300 14405.80115620 0 28.49761053 0 4699.88361561 0 505.76967204 0 -466.39592287 0 14776
0.11650000 0.11649800 14652.80211224 0 74.80601967 0 4450.28731949 0 -68.54237711 0 194.91225869 0 14553
0.11750000 0.11747300 14405.69024423 0 179.29585339 0 4231.77964841 0 189.50419106 0 -136.79993228 0 14568
0.11850000 0.11849100 14094.69308180 0 210.21145576 0 4837.86919685 0 -475.00158258 0 -458.35036860 0 16015
0.11950000 0.11950300 13820.29686930 0 301.94896396 0 4811.67178965 0 -480.19891747 0 -448.28178001 0 15270
0.12050000 0.12050700 13506.52690764 0 136.07013152 0 5143.02129848 0 384.18131637 0 -339.74776316 0 15999
0.12150000 0.12150000 13797.89265147 0 1.60999815 0 4780.25042870 0 208.07196387 0 -951.67239030 0 15670
0.12250000 0.12250700 13365.89053033 0 101.86366010 0 5083.98285713 0 190.95824698 0 264.20783898 0 16887
0.12350000 0.12352200 13410.25531813 0 190.50128966 0 4528.22516044 0 468.80382173 0 222.02801699 0 16407
0.12450000 0.12449800 12999.88103104 0 8.05469341 0 4366.32695859 0 373.88757648 0 413.54636941 0 16306
0.12550000 0.12549900 13360.01219595 0 50.43499988 0 4521.34861834 0 628.79433771 0 1204.04924950 0 17523
0.12650000 0.12650100 12845.71339346 0 58.72700055 0 3741.94802639 0 410.80795288 0 1167.86976506 0 17154
0.12750000 0.12750600 13333.50423524 0 -2.78237094 0 3828.60354815 0 196.64803101 0 2319.95675686 0 18007
0.12850000 0.12850300 12836.95134787 0 47.30672778 0 3505.42825147 0 145.94795152 0 792.90745159 0 17496
0.12950000 0.12949900 13051.56600882 0 253.21535369 0 4058.51296969 0 -301.75708625 0 1338.35255335 0 18405
0.13050000 0.13049000 12601.70706060 0 256.08020986 0 3502.06761880 0 -453.79854138 0 490.79655616 0 18100
0.13150000 0.13148800 12390.86340662 0 242.09975611 0 4434.10526314 0 -275.90905176 0 1051.70833206 0 19059
0.13250000 0.13249300 11999.56597828 0 96.48742420 0 4064.18057133 0 34.34910421 0 -159.68883542 0 18957
0.13350000 0.13349100 12026.62849884 0 151.77082992 0 4250.75668639 0 240.06230323 0 199.17460568 0 19468
0.13450000 0.13450700 11846.61837237 0 6.30062062 0 3950.44034662 0 388.58673980 0 219.62899109 0 19953
0.13550000 0.13551000 11724.06064609 0 106.95052667 0 3242.46706303 0 173.62159703 0 387.31790687 0 19956
0.13650000 0.13649900 11671.59928452 0 125.81188346 0 3549.56012413 0 234.91044224 0 59.34056556 0 19723
0.13750000 0.13749600 11308.47349644 0 126.06919923 0 3185.16993959 0 194.58950486 0 108.69018091 0 20946
0.13850000 0.13851100 11304.48066554 0 79.64277975 0 3140.87169898 0 107.33650032 0 580.42784605 0 20955
0.13950000 0.13949800 11188.13400955 0 214.66124398 0 3205.21173248 0 -193.66671727 0 -18.99223292 0 20506
0.14050000 0.14048300 10755.22241027 0 221.74075499 0 3393.83971897 0 -176.38219595 0 468.57312483 0 21447
0.14150000 0.14148400 10709.78177637 0 82.82794969 0 3740.02924932 0 -90.61507907 0 401.66437012 0 21771
0.14250000 0.14249400 10627.45182142 0 -2.03726433 0 3458.63449155 0 353.47644674 0 398.14735157 0 22470
0.14350000 0.14350900 10977.60090908 0 -85.63047333 0 3685.39401315 0 388.58784892 0 720.91005572 0 22519
0.14450000 0.14449900 10715.26082766 0 -58.35855098 0 2898.24067454 0 265.92031979 0 237.63887669 0 22218
0.14550000 0.14550500 11038.94631940 0 -63.50553184 0 3093.60101759 0 143.97039111 0 883.40607309 0 23559
0.14650000 0.14650700 10708.51737992 0 174.48449215 0 2982.51158895 0 -224.35605923 0 290.06474643 0 23044
0.14750000 0.14750500 10814.01684529 0 205.23927217 0 3158.22942220 0 -108.47135159 0 442.33024373 0 23649
0.14850000 0.14849900 10484.79684628 0 87.56089616 0 2878.16560806 0 75.14152838 0 -69.51684967 0 23640
0.14950000 0.14949500 10292.36457922 0 87.04770648 0 2874.02859160 0 322.25694557 0 151.54013302 0 24457
0.15050000 0.15050000 10255.69708211 0 126.42300841 0 2791.78736623 0 254.35996521 0 1.39172339 0 24591
0.15150000 0.15149900 10056.12208423 0 152.91100497 0 2236.83932693 0 168.09152623 0 143.79958667 0 25020
0.15250000 0.15250500 9857.29019654 0 58.63427814 0 2317.09522804 0 170.99187423 0 324.12470314 0 25297
0.15350000 0.15350100 9751.74636638 0 131.62810714 0 2117.81969248 0 -146.95835956 0 269.11347539 0 25452
0.15450000 0.15450400 9761.22933977 0 165.63038963 0 2417.24873649 0 68.57631617 0 482.93733400 0 26061
0.15550000 0.15549900 9493.72076057 0 78.49140259 0 2302.43266568 0 -206.20753366 0 -123.76001203 0 26128
0.15650000 0.15649500 9466.23677454 0 172.10432128 0 2873.78458527 0 -121.11808891 0 664.13754590 0 26331
0.15750000 0.15749700 9233.07763229 0 111.12159310 0 2785.43211038 0 42.15165035 0 587.85118417 0 27345
0.15850000 0.15849900 9261.48218767 0 -66.65398992 0 3125.47711762 0 406.06424795 0 1098.00409724 0 26980
0.15950000 0.15949700 9330.28088234 0 104.02134155 0 2789.45821487 0 33.95836134 0 821.77118253 0 27777
0.16050000 0.16050000 9205.89310857 0 193.23970619 0 3173.81255392 0 -175.00910577 0 1308.87215186 0 28224
0.16150000 0.16150500 9016.10054639 0 40.38559906 0 2973.45008105 0 32.24887516 0 1088.00871055 0 28075
0.16250000 0.16249700 9043.28507011 0 25.81953011 0 3373.83119968 0 153.57093118 0 1376.83900676 0 28590
0.16350000 0.16349900 8941.27933178 0 -31.64296307 0 2810.04347641 0 318.61570561 0 1240.50601387 0 29163
0.16450000 0.16449100 9046.46824364 0 -16.69380417 0 2801.92472024 0 260.46234177 0 1141.30634837 0 28996
0.16550000 0.16550500 9131.04971156 0 -13.12243876 0 2345.87688412 0 227.23311572 0 1292.81209868 0 30777
0.16650000 0.16650700 9019.47227026 0 92.03741416 0 2407.83231028 0 -51.03259357 0 814.12158399 0 29211
0.16750000 0.16749900 8900.28626786 0 209.81882739 0 2577.22816127 0 -340.98775898 0 1337.36543682 0 30922
0.16850000 0.16850800 8548.99478692 0 218.33353928 0 2574.39990605 0 -89.63273175 0 558.43732986 0 30867
0.16950000 0.16949900 8553.32035373 0 79.34841938 0 2671.56988251 0 133.26516781 0 1224.75651420 0 30852
0.17050000 0.17049200 8316.84494359 0 11.66827193 0 2514.69599287 0 158.22590654 0 469.93512382 0 31257
0.17150000 0.17149500 8399.62963762 0 30.46075239 0 2580.91043865 0 273.01314024 0 916.79057590 0 32608
0.17250000 0.17250900 8263.34100952 0 119.23591279 0 2306.82477967 0 -151.98045354 0 732.20200333 0 32361
0.17350000 0.17350400 8135.78115341 0 157.49943314 0 2325.02543386 0 -38.47558404 0 787.94414095 0 32508
0.17450000 0.17449800 8062.60143595 0 39.14105585 0 2344.54594049 0 60.53797118 0 585.63405390 0 32791
0.17550000 0.17549800 7978.30833914 0 86.08654335 0 2154.19881847 0 124.81367574 0 807.53784948 0 33633
0.17650000 0.17650100 7853.65437664 0 93.62334442 0 2348.97132807 0 -13.41236265 0 406.56002445 0 33984
0.17750000 0.17750300 7778.17878141 0 39.18442243 0 2093.95143664 0 27.00406995 0 393.72640046 0 34069
0.17850000 0.17849800 7606.66451180 0 92.87723960 0 2313.94532811 0 107.04524549 0 352.28968867 0 34536
