### header ###
fiducial parameters:
Omega_m = 0.31
Omega_nu = 0
Omega_de = 0.69
Omega_k = 0
H_0 = 100
w_de = -1
zeff = 0
beta = 0
fgrowth = 0
b_1 = 2
gamma = 0.55
Lx = 3500 Ly = 3500 Lz = 3500
nx = 700 ny = 700 nz = 700
xoffset = 1379.75464 yoffset = 22.6059522 zoffset = 368.141391
bins = 400 dk = 0.001
kx_ny = 0.628318531 ky_ny = 0.628318531 kz_ny = 0.628318531
############################
A(data) = 3.33144639 (not used)
A(ran) = 3.33977422 (used)
Ngal = 187720
weighted Ngal = 0
Nran = 9399747
weighted Nran = 0
SN(data) = 6617.48999
SN(ran) = 132.840798
SN(data+ran) = 6750.33079
############################
13 columns: k_central k_mean P_0(k) sigma^{lin}_{P_0(k)} P^img_1(k) sigma^{lin}_{P_1(k)} P_2(k) sigma^{lin}_{P_2(k)} P^img_3(k) sigma^{lin}_{P_3(k)} P_4(k) sigma^{lin}_{P_4(k)} N_modes
### header ###
0.00050000 0 0 0 0 0 0 0 0 0 0 0 0
0.00150000 0.00179520 19506.30989678 0 -25036.93525501 0 -24652.62528075 0 33150.25673460 0 53669.52564866 0 3
0.00250000 0.00253879 20154.70127037 0 -20087.26679293 0 -6940.73795583 0 -39661.01116715 0 -41855.95904320 0 6
0.00350000 0.00331552 43764.42130208 0 -16389.57264236 0 -44954.95038251 0 13372.98889638 0 13010.08493223 0 7
0.00450000 0.00420575 61246.80957975 0 -18886.86654722 0 -36080.66188029 0 -15081.14413838 0 -20671.44013619 0 24
0.00550000 0.00557378 80692.89427710 0 -9267.12760692 0 -38834.05152269 0 -26671.55586124 0 -1583.39036753 0 45
0.00650000 0.00659388 86800.37278861 0 -715.01730278 0 1462.85123909 0 -26777.47679209 0 -27275.91518295 0 40
0.00750000 0.00754703 83686.29742145 0 -907.18670846 0 -10464.08958157 0 -9597.73400555 0 -27674.86553717 0 57
0.00850000 0.00846663 89259.29115203 0 3059.86159647 0 -343.37569368 0 -24704.19934656 0 -24877.99840274 0 75
0.00950000 0.00948925 95578.83334919 0 292.35064212 0 19772.38771157 0 -41144.01511110 0 -32480.12661499 0 112
0.01050000 0.01054430 85837.87871744 0 3404.58708882 0 21753.27548652 0 -10135.12468009 0 -53154.67228633 0 105
0.01150000 0.01145670 98567.35636688 0 1737.84637623 0 39718.79630325 0 -23634.78613681 0 -58125.08128670 0 144
0.01250000 0.01249090 89824.38763654 0 1576.65801098 0 38473.58762187 0 3987.99513949 0 -44159.82247329 0 169
0.01350000 0.01339930 92802.48492911 0 1402.29330375 0 51171.89900789 0 8803.63757765 0 -30947.65593266 0 180
0.01450000 0.01448870 100120.45667554 0 -3812.44367419 0 41277.66403432 0 20585.92700772 0 -33746.63039451 0 267
0.01550000 0.01550050 98011.90922372 0 3273.56677927 0 21336.24648127 0 9999.98953647 0 -28134.37382674 0 238
0.01650000 0.01653350 93006.89568886 0 3005.51473142 0 28992.94338250 0 -2510.65879718 0 -4169.89076944 0 315
0.01750000 0.01747870 90523.57669216 0 2846.34496402 0 29227.74402190 0 1647.06492920 0 -12182.23799202 0 297
0.01850000 0.01844180 85157.43378467 0 2821.82232757 0 27236.87416969 0 1944.96338804 0 -5818.45301023 0 388
0.01950000 0.01947590 86078.33586728 0 1123.31642692 0 17852.61243180 0 9334.34026043 0 -4900.34590925 0 399
0.02050000 0.02045430 80948.65727872 0 4473.81174822 0 24715.29054351 0 3678.15146155 0 9752.53384136 0 462
0.02150000 0.02154770 76419.89974083 0 2175.85992611 0 23187.47816389 0 4481.07648222 0 9203.90778432 0 571
0.02250000 0.02255340 76844.47076000 0 2930.16113936 0 27313.62525257 0 8077.10872156 0 11354.50196377 0 510
0.02350000 0.02348930 67588.42325883 0 1933.10689850 0 15139.26201038 0 8292.34448954 0 23753.46194416 0 555
0.02450000 0.02439640 72840.77048563 0 617.47133474 0 22691.81257228 0 2918.22701144 0 15188.95057271 0 592
0.02550000 0.02547300 68840.84121823 0 2053.26892624 0 24384.88378642 0 -3384.25692481 0 23684.47469914 0 837
0.02650000 0.02652900 64342.58447194 0 6435.50066125 0 26684.08891379 0 -8909.94670040 0 7115.63504051 0 723
0.02750000 0.02749970 60199.13511602 0 3339.24884760 0 40266.25778461 0 -760.68530622 0 18744.01193053 0 826
0.02850000 0.02848090 52889.70359123 0 3037.80120574 0 32337.16108633 0 1642.97227753 0 -7.94896103 0 831
0.02950000 0.02946900 54912.95973853 0 1509.97773492 0 44934.65349209 0 3324.12045496 0 13841.70287941 0 996
0.03050000 0.03053250 52476.77832885 0 1151.31060801 0 39083.04889418 0 4991.48227458 0 12383.76504057 0 1041
0.03150000 0.03150510 51453.50449841 0 185.75425737 0 33985.75660071 0 10674.03484861 0 8153.81543965 0 1036
0.03250000 0.03246190 49158.62493785 0 404.71888576 0 27436.40480279 0 3550.00377201 0 22133.25989396 0 1059
0.03350000 0.03345080 50336.39914178 0 -452.44097887 0 22681.05411124 0 8306.96268711 0 6578.75456104 0 1302
0.03450000 0.03451200 53034.66553535 0 -1756.97869096 0 24744.79312739 0 6242.11455126 0 21670.64606925 0 1339
0.03550000 0.03553350 51653.36786741 0 385.62649933 0 13870.53999148 0 4276.36626014 0 5575.43379390 0 1365
0.03650000 0.03647120 51260.96131939 0 2073.73218461 0 16530.43084360 0 -5648.45823461 0 14994.30006627 0 1308
0.03750000 0.03744890 48697.23114481 0 1551.02625483 0 17994.80157667 0 -794.74526292 0 7098.94278910 0 1579
0.03850000 0.03847530 47456.23711827 0 1322.51432411 0 22426.84387718 0 -348.16376340 0 5209.80139531 0 1662
0.03950000 0.03950240 46276.68832282 0 231.76276055 0 18146.97279880 0 3209.53729929 0 2460.28258065 0 1683
0.04050000 0.04050350 46167.44003288 0 -854.33493677 0 16464.88186964 0 5464.45527724 0 1993.21009476 0 1822
0.04150000 0.04152450 46465.23867094 0 907.57711860 0 18886.97745919 0 -1561.37434158 0 10249.15327591 0 1887
0.04250000 0.04250150 45037.69071174 0 2350.52409565 0 14065.74505777 0 1939.41778956 0 7824.01869840 0 1920
0.04350000 0.04349210 41970.42019571 0 640.46338601 0 20179.65646350 0 4204.96113419 0 14004.41073864 0 2005
0.04450000 0.04448520 40966.66687189 0 401.29170590 0 15829.57810844 0 2954.40649589 0 14326.94274590 0 2151
0.04550000 0.04548030 42249.03106305 0 109.64602026 0 19545.12908610 0 3876.95007565 0 20427.32289136 0 2274
0.04650000 0.04648670 41379.59213428 0 -358.29002622 0 13889.28411432 0 3090.04074337 0 19888.84527952 0 2311
0.04750000 0.04749250 41215.33150747 0 84.78510230 0 14840.35425263 0 1411.33262927 0 21448.93304226 0 2568
0.04850000 0.04851840 41562.59688392 0 1798.78141226 0 18891.63576191 0 -1406.36377303 0 21944.04407403 0 2493
0.04950000 0.04949480 39661.78755094 0 1623.21885577 0 19641.84432349 0 -2495.87423165 0 17059.59185000 0 2644
0.05050000 0.05050630 38160.70495596 0 1107.83422510 0 22020.57333297 0 -1741.38446805 0 16797.39595414 0 2829
0.05150000 0.05149060 37710.84600774 0 809.70174201 0 24849.05037871 0 -2078.68994964 0 13147.94851030 0 2784
0.05250000 0.05249300 36717.96205694 0 302.02549322 0 24032.07281150 0 177.85399778 0 11002.02372476 0 3055
0.05350000 0.05348950 37454.41753430 0 -91.76190883 0 25856.57470948 0 2082.74932773 0 8347.93356864 0 3009
0.05450000 0.05448610 36846.61994154 0 -413.99112641 0 21203.04120592 0 869.05739160 0 5218.35270815 0 3336
0.05550000 0.05550870 37303.24451990 0 658.51541817 0 23098.74858831 0 2402.60835651 0 6092.17265972 0 3349
0.05650000 0.05647670 36080.88370423 0 883.91404991 0 21670.20242138 0 -91.00316005 0 5945.80213359 0 3324
0.05750000 0.05747970 35947.67842888 0 -261.41507559 0 17887.66061415 0 4565.66904134 0 6175.66719035 0 3639
0.05850000 0.05849280 35173.62379387 0 115.24308189 0 16641.89737293 0 2082.58295977 0 4785.16382895 0 3846
0.05950000 0.05951020 34068.27510601 0 1195.83067256 0 15935.16630339 0 1098.00964284 0 8562.89205669 0 3787
0.06050000 0.06049470 34244.73604945 0 1122.36258398 0 16923.72468738 0 -232.46483332 0 6580.98389162 0 3930
0.06150000 0.06148310 31033.05814916 0 888.43260355 0 16672.84181242 0 221.77181034 0 7770.21530200 0 4083
0.06250000 0.06249100 31476.48420315 0 346.57661312 0 15369.62617100 0 1247.31600880 0 5959.56630901 0 4303
0.06350000 0.06350600 31047.69852913 0 -15.20680740 0 16344.43147078 0 869.24483282 0 6227.80690720 0 4470
0.06450000 0.06451750 30406.40552158 0 213.85047748 0 13532.59122047 0 295.45506814 0 4121.82152187 0 4479
0.06550000 0.06550280 30592.07215850 0 38.22825035 0 15509.59707649 0 949.69039341 0 3936.42107368 0 4636
0.06650000 0.06648880 30500.34795973 0 112.81410976 0 12323.20710523 0 157.48723283 0 2495.15330385 0 4653
0.06750000 0.06749660 30118.14531290 0 291.64856935 0 13229.57971984 0 1094.59355418 0 2484.82739949 0 5220
0.06850000 0.06852730 29216.20917707 0 345.94552401 0 10875.35116441 0 836.94393995 0 891.84536485 0 5029
0.06950000 0.06949320 28819.80979814 0 369.92025534 0 12323.65075311 0 -93.70697204 0 1319.77479846 0 5040
0.07050000 0.07048030 28719.32355379 0 293.09264319 0 11129.46157769 0 1661.10638454 0 4147.83037871 0 5475
0.07150000 0.07148790 28202.80651191 0 111.18703117 0 10088.40855854 0 1120.89854598 0 1309.91472437 0 5509
0.07250000 0.07249820 28554.73019108 0 -252.57317338 0 8677.13138526 0 1525.98233212 0 2920.20124450 0 5916
0.07350000 0.07351270 28273.12470056 0 -287.14554339 0 7421.06442207 0 2561.67830315 0 4271.61922785 0 5721
0.07450000 0.07449140 28199.03550495 0 13.79267979 0 6086.58269646 0 288.68167417 0 2296.96470558 0 6028
0.07550000 0.07549160 28706.67958927 0 891.43942704 0 6772.39576855 0 -1855.50179345 0 1793.52418491 0 6183
0.07650000 0.07648840 26608.11421469 0 943.43163097 0 6550.80474473 0 -1623.82887160 0 -540.46848169 0 6330
0.07750000 0.07749960 26292.56966152 0 465.80919855 0 7677.58162509 0 -800.36184506 0 165.69915505 0 6583
0.07850000 0.07848650 25322.64448840 0 457.66271439 0 8217.87819323 0 57.66379841 0 -2632.41795728 0 6549
0.07950000 0.07947320 25471.48835144 0 677.49800174 0 8689.64225542 0 -1055.05676442 0 -2577.36125563 0 6828
0.08050000 0.08048110 23962.53100663 0 693.56138228 0 8744.11112363 0 174.27819589 0 -4043.90586331 0 7147
0.08150000 0.08149960 23140.11875292 0 482.74434717 0 8764.81838833 0 303.55386016 0 -3255.05557156 0 7386
0.08250000 0.08250610 22701.01826574 0 -32.09271111 0 9689.08110362 0 503.63350750 0 -2466.41601256 0 7227
0.08350000 0.08350160 22929.49692288 0 81.74478340 0 7204.63080482 0 2075.67314407 0 -2170.52506037 0 7798
0.08450000 0.08449610 22728.19169827 0 -8.62736518 0 7516.14925351 0 539.18190284 0 -1011.22324496 0 7371
0.08550000 0.08548940 22095.99347222 0 624.58522846 0 6707.45681042 0 -240.43496744 0 -1953.91398397 0 8256
0.08650000 0.08650700 21771.13231361 0 681.61616317 0 8010.91645817 0 -638.03774124 0 918.61175044 0 8037
0.08750000 0.08749060 20984.32280210 0 72.70678883 0 7285.90709606 0 360.63581437 0 -1945.15193839 0 8155
0.08850000 0.08849210 21076.93429662 0 5.69373250 0 7968.57026822 0 354.34710570 0 -145.00630890 0 8718
0.08950000 0.08949900 21000.29412570 0 337.09918533 0 7307.75675405 0 -64.49786123 0 -712.19902964 0 8571
0.09050000 0.09049190 20463.70201735 0 303.58158815 0 7497.10566835 0 -241.04054680 0 -1303.17127663 0 8932
0.09150000 0.09150830 19739.00320875 0 606.08622107 0 8431.38373448 0 -250.21629403 0 -1960.53542855 0 9285
0.09250000 0.09250820 19596.03768009 0 501.35315741 0 8535.09751714 0 -292.88301957 0 -1324.49964836 0 9204
0.09350000 0.09350330 18596.83174702 0 150.63176399 0 8145.46376835 0 1151.46588477 0 -169.07975188 0 9349
0.09450000 0.09448040 18631.54719347 0 46.09645637 0 7820.70243051 0 113.47625422 0 -1424.16514414 0 9564
0.09550000 0.09549270 18855.47845986 0 -269.86989502 0 7250.44853942 0 1531.53902179 0 -856.29807863 0 10155
0.09650000 0.09649430 18950.97366558 0 -117.85284053 0 6648.09672436 0 209.63915000 0 -558.60480694 0 9913
0.09750000 0.09749140 18403.29036028 0 290.12907537 0 5882.32721346 0 -74.67647449 0 -628.68786221 0 10476
0.09850000 0.09850240 18833.73971384 0 430.10552646 0 7080.60904055 0 -87.24845715 0 -1294.30941027 0 10575
0.09950000 0.09950330 17691.90098802 0 235.08346492 0 6445.71565364 0 -45.31253057 0 -413.62844427 0 10882
0.10050000 0.10051200 17584.98184944 0 568.53919204 0 6986.33386649 0 427.69097288 0 510.71301852 0 10875
0.10150000 0.10150300 17014.00703054 0 100.10470718 0 6778.12991738 0 1505.65216812 0 377.07962297 0 11118
0.10250000 0.10250800 16716.87386430 0 101.22635992 0 5853.24609506 0 1240.45055789 0 2601.82843610 0 11575
0.10350000 0.10349800 16789.52120431 0 166.16387620 0 5236.71973030 0 601.14065635 0 2463.42138938 0 11364
0.10450000 0.10450100 16125.71306696 0 153.56427647 0 4668.15170114 0 802.68434170 0 3812.37712701 0 12093
0.10550000 0.10551000 15888.58327621 0 319.52851112 0 5129.39021743 0 10.24486098 0 2827.02409894 0 12067
0.10650000 0.10649700 15491.07477758 0 406.19734231 0 4801.55661804 0 -863.18682105 0 3164.09666539 0 12054
0.10750000 0.10749900 15125.61983814 0 169.32819469 0 4655.38573346 0 -68.75632630 0 1577.78931307 0 12807
0.10850000 0.10850100 14909.78514553 0 114.58093743 0 4852.66485357 0 -261.16774190 0 1141.61690188 0 12736
0.10950000 0.10950300 14778.90902154 0 180.31846174 0 4706.44960421 0 -280.86903504 0 -49.48370792 0 12933
0.11050000 0.11050200 14665.88972463 0 130.99812716 0 4847.31889665 0 -118.07688271 0 -415.60267733 0 13428
0.11150000 0.11150900 14325.83362620 0 -78.75304393 0 3852.66035433 0 868.63370787 0 -129.20357149 0 13453
0.11250000 0.11250000 14626.18323956 0 -36.80025874 0 4195.74434953 0 472.54931894 0 -491.19473013 0 13668
0.11350000 0.11349100 14647.14560179 0 -34.51868861 0 2873.38530218 0 419.81067745 0 23.00114606 0 13791
0.11450000 0.11448600 14544.66294199 0 200.21495995 0 4154.52946167 0 59.48929851 0 210.25027495 0 14205
0.11550000 0.11549300 14239.10046607 0 128.18318137 0 3621.63072190 0 -390.58870085 0 309.48432316 0 14776
0.11650000 0.11649800 14333.04290422 0 188.58140347 0 4245.07799355 0 51.22214213 0 295.86211507 0 14553
0.11750000 0.11747300 13910.02465261 0 246.11809676 0 4542.22225099 0 -778.64971791 0 -150.22804442 0 14568
0.11850000 0.11849100 13701.51014999 0 321.19551802 0 5104.29083874 0 -625.51356165 0 -341.38038735 0 16015
0.11950000 0.11950300 13682.87693911 0 23.22773921 0 5362.05025582 0 143.41361302 0 26.26783629 0 15270
0.12050000 0.12050700 13633.07746482 0 -158.92908843 0 5213.38385192 0 444.03717894 0 -228.00839038 0 15999
0.12150000 0.12150000 13981.00831308 0 -67.92515200 0 4833.64345081 0 504.23686862 0 -868.77123871 0 15670
0.12250000 0.12250700 13911.91015609 0 1.52264388 0 4296.09749952 0 171.98786372 0 -498.57703081 0 16887
0.12350000 0.12352200 13765.61726835 0 236.95233160 0 4513.58478047 0 -321.90424551 0 -625.98493752 0 16407
0.12450000 0.12449800 13619.76802848 0 120.48478157 0 3801.99576667 0 486.30129403 0 -507.43446070 0 16306
0.12550000 0.12549900 13288.69579957 0 177.26394611 0 3835.80173497 0 40.17530997 0 -803.98533910 0 17523
0.12650000 0.12650100 13144.06659137 0 349.01667645 0 3765.30608716 0 183.76006016 0 -128.20647288 0 17154
0.12750000 0.12750600 12605.69989150 0 286.09409792 0 4281.34620757 0 24.54925533 0 -329.38082137 0 18007
0.12850000 0.12850300 12198.87478744 0 351.05191109 0 4035.46546243 0 -190.62994755 0 -102.99718043 0 17496
0.12950000 0.12949900 11873.12633307 0 126.32207852 0 4349.22433290 0 172.59787955 0 -423.01048777 0 18405
0.13050000 0.13049000 11888.43218486 0 -7.08698648 0 4352.13022650 0 62.13499263 0 159.17974948 0 18100
0.13150000 0.13148800 12098.27763112 0 -194.17025761 0 3938.91659299 0 954.44186218 0 905.77812645 0 19059
0.13250000 0.13249300 12238.47036055 0 -205.68735652 0 3798.31348928 0 390.43009673 0 837.06039752 0 18957
0.13350000 0.13349100 12526.06509741 0 -5.41733987 0 3276.70558800 0 534.88517314 0 1455.63086988 0 19468
0.13450000 0.13450700 12411.82576885 0 147.76358046 0 3745.19774710 0 -154.78430813 0 1300.84212527 0 19953
0.13550000 0.13551000 12168.15217190 0 180.96951501 0 3697.18395551 0 -623.98741295 0 1272.89230896 0 19956
0.13650000 0.13649900 12020.52834051 0 250.45808213 0 4240.45296443 0 -541.29477586 0 433.30090030 0 19723
0.13750000 0.13749600 11914.05284981 0 134.69371398 0 4518.38726875 0 -443.97063176 0 35.96165334 0 20946
0.13850000 0.13851100 11749.23766316 0 46.27735379 0 4478.35913897 0 154.63568609 0 -245.59348314 0 20955
0.13950000 0.13949800 11683.46686526 0 99.57332793 0 4457.66296546 0 207.96548838 0 -154.80870876 0 20506
0.14050000 0.14048300 11340.63796759 0 195.34370625 0 4001.54858216 0 274.11560522 0 -630.06095240 0 21447
0.14150000 0.14148400 11386.77734689 0 98.39222637 0 4141.84113236 0 347.41288937 0 -322.82592397 0 21771
0.14250000 0.14249400 10759.63670665 0 224.90396436 0 3594.93421084 0 325.75732733 0 -628.30188856 0 22470
0.14350000 0.14350900 10846.17022524 0 130.38700220 0 3661.42593655 0 189.81252633 0 236.37558936 0 22519
0.14450000 0.14449900 10301.33735755 0 81.79768841 0 2786.15303818 0 242.43027377 0 -84.75049777 0 22218
0.14550000 0.14550500 10518.11480191 0 121.65157549 0 3170.52955962 0 264.54168401 0 415.58604053 0 23559
0.14650000 0.14650700 10401.28013326 0 -35.39400588 0 2177.30178171 0 505.83067362 0 152.88105873 0 23044
0.14750000 0.14750500 10200.57383328 0 86.80580748 0 2544.90841336 0 322.38005786 0 546.18266636 0 23649
0.14850000 0.14849900 10175.16390107 0 236.34342489 0 2200.73748086 0 -205.44778667 0 713.09852571 0 23640
0.14950000 0.14949500 9908.06569616 0 155.99213948 0 2451.56489984 0 54.76711050 0 557.96817223 0 24457
0.15050000 0.15050000 9667.18708084 0 104.50580504 0 2867.90625089 0 -352.73555478 0 736.00295653 0 24591
0.15150000 0.15149900 9728.76540630 0 58.62473971 0 3125.42166163 0 -97.64889435 0 711.67663426 0 25020
0.15250000 0.15250500 9789.86681029 0 34.26137284 0 3272.64620992 0 3.55378587 0 663.26355958 0 25297
0.15350000 0.15350100 9732.18149496 0 -11.34130344 0 3069.25584028 0 -12.42202967 0 541.95248384 0 25452
0.15450000 0.15450400 9801.62347905 0 124.50977694 0 3349.45274879 0 48.32112866 0 700.95699241 0 26061
0.15550000 0.15549900 9654.35456597 0 62.59206086 0 3386.22006667 0 -92.74558709 0 474.83965111 0 26128
0.15650000 0.15649500 9630.87450203 0 59.66686857 0 3423.06502293 0 147.65155937 0 1128.06345921 0 26331
0.15750000 0.15749700 9544.04152113 0 116.99881837 0 3335.15619592 0 229.64877841 0 675.84319516 0 27345
0.15850000 0.15849900 9405.96721032 0 230.32423231 0 3253.31425364 0 -153.92695861 0 1118.40302667 0 26980
0.15950000 0.15949700 8948.08932671 0 273.82612498 0 3487.69342755 0 119.70285218 0 1129.77150354 0 27777
0.16050000 0.16050000 8810.50302856 0 116.28565440 0 3507.70194684 0 188.42723583 0 1243.35645149 0 28224
0.16150000 0.16150500 8600.65758230 0 -37.25444325 0 3349.90748786 0 345.03937322 0 1197.23925458 0 28075
0.16250000 0.16249700 8711.45863982 0 -1.84426641 0 2867.60678857 0 367.97375027 0 1311.98877820 0 28590
0.16350000 0.16349900 8650.39050942 0 120.46038093 0 2984.87401390 0 15.05441435 0 1173.00498924 0 29163
0.16450000 0.16449100 8465.34497953 0 117.98371666 0 2605.45525750 0 -102.02814255 0 1307.09756035 0 28996
0.16550000 0.16550500 8309.80203353 0 23.36183178 0 2798.29789884 0 235.44060146 0 1080.44562335 0 30777
0.16650000 0.16650700 8307.97198604 0 84.69437631 0 2578.47037533 0 72.58090374 0 937.35476416 0 29211
0.16750000 0.16749900 8232.66275876 0 93.05159321 0 2395.45453448 0 56.23381038 0 1300.93085484 0 30922
0.16850000 0.16850800 8163.06549791 0 -76.33405388 0 2421.85158322 0 323.81636786 0 964.97739016 0 30867
0.16950000 0.16949900 8262.67553770 0 102.84079455 0 2447.18387705 0 -116.52411514 0 1096.83064860 0 30852
0.17050000 0.17049200 8089.67504770 0 120.86964610 0 2338.36814379 0 -221.27603384 0 848.90801410 0 31257
0.17150000 0.17149500 7916.27527461 0 151.58117045 0 2593.78731831 0 -176.13929873 0 664.12867294 0 32608
0.17250000 0.17250900 7937.06017769 0 31.74400387 0 2957.75603736 0 -72.36096531 0 1022.92002126 0 32361
0.17350000 0.17350400 7911.35078317 0 13.44685627 0 2710.57762218 0 49.70786101 0 323.48141371 0 32508
0.17450000 0.17449800 7915.45452604 0 106.93034069 0 2986.80388217 0 93.84450288 0 835.64959727 0 32791
0.17550000 0.17549800 7754.92054141 0 52.19739108 0 2843.97144787 0 -18.00899831 0 365.46935800 0 33633
0.17650000 0.17650100 7750.53951861 0 99.99346247 0 2864.81180694 0 11.98093277 0 661.07526642 0 33984
0.17750000 0.17750300 7725.15176880 0 23.74492172 0 2931.96900446 0 26.23378632 0 588.69855162 0 34069
0.17850000 0.17849800 7593.18870751 0 26.50696250 0 2679.41135875 0 276.89838653 0 567.65522365 0 34536
