### header ###
fiducial parameters:
Omega_m = 0.31
Omega_nu = 0
Omega_de = 0.69
Omega_k = 0
H_0 = 100
w_de = -1
zeff = 0
beta = 0
fgrowth = 0
b_1 = 2
gamma = 0.55
Lx = 3500 Ly = 3500 Lz = 3500
nx = 700 ny = 700 nz = 700
xoffset = 1379.75464 yoffset = 22.6059522 zoffset = 368.141391
bins = 400 dk = 0.001
kx_ny = 0.628318531 ky_ny = 0.628318531 kz_ny = 0.628318531
############################
A(data) = 3.31143308 (not used)
A(ran) = 3.32080334 (used)
Ngal = 186688
weighted Ngal = 0
Nran = 9399747
weighted Nran = 0
SN(data) = 6600.70058
SN(ran) = 132.086224
SN(data+ran) = 6732.7868
############################
13 columns: k_central k_mean P_0(k) sigma^{lin}_{P_0(k)} P^img_1(k) sigma^{lin}_{P_1(k)} P_2(k) sigma^{lin}_{P_2(k)} P^img_3(k) sigma^{lin}_{P_3(k)} P_4(k) sigma^{lin}_{P_4(k)} N_modes
### header ###
0.00050000 0 0 0 0 0 0 0 0 0 0 0 0
0.00150000 0.00179520 63865.21935529 0 -69407.49047031 0 -136936.35400154 0 179766.12013679 0 18643.19295027 0 3
0.00250000 0.00253879 89083.82841631 0 -60944.35263897 0 -889.26555244 0 -136307.48313457 0 -118181.13996209 0 6
0.00350000 0.00331552 144280.94462065 0 -34500.38813911 0 -126315.42380392 0 -13885.51310736 0 27086.36662710 0 7
0.00450000 0.00420575 170331.94801263 0 -5147.60196282 0 -52332.48185655 0 -94766.29226076 0 -3895.38364497 0 24
0.00550000 0.00557378 132685.09821128 0 37890.96704618 0 -2600.37548930 0 -97840.32840693 0 33677.86497343 0 45
0.00650000 0.00659388 116534.09721528 0 21157.12365055 0 98215.65451166 0 44401.49965479 0 -47374.38408479 0 40
0.00750000 0.00754703 70845.02050677 0 8746.50682217 0 32565.41791952 0 48744.14690790 0 2170.54724277 0 57
0.00850000 0.00846663 100952.74009454 0 -14651.02752072 0 40365.19126139 0 53479.53344494 0 19856.56989640 0 75
0.00950000 0.00948925 96775.46258793 0 -5221.76879681 0 504.51414854 0 17088.42896207 0 33802.97367501 0 112
0.01050000 0.01054430 92836.86763965 0 4140.88728942 0 -10862.90684144 0 4764.95566811 0 -4598.93154099 0 105
0.01150000 0.01145670 95519.60635748 0 4483.41672477 0 4978.19502063 0 -23248.70157105 0 27335.69673450 0 144
0.01250000 0.01249090 79799.83109883 0 3139.57402894 0 -1857.63130327 0 4883.42074271 0 477.69896168 0 169
0.01350000 0.01339930 92855.83358643 0 -3336.23204203 0 16696.57697388 0 -6808.56416180 0 5251.04955676 0 180
0.01450000 0.01448870 83026.26029107 0 7424.72451706 0 10981.92647589 0 -14563.18524089 0 -21097.34209900 0 267
0.01550000 0.01550050 76383.18787893 0 6011.07382763 0 26884.06319477 0 -11890.87224819 0 -20833.26069966 0 238
0.01650000 0.01653350 67890.43655173 0 2862.07228129 0 32400.71364484 0 -5387.95929189 0 -7347.65178947 0 315
0.01750000 0.01747870 72611.73726865 0 805.89080674 0 36186.02825130 0 1518.66214214 0 -15514.14446723 0 297
0.01850000 0.01844180 72127.82834580 0 -397.38871370 0 44634.52570267 0 7805.54076428 0 -5385.75214369 0 388
0.01950000 0.01947590 74130.23304284 0 795.31313221 0 37770.62755929 0 5112.46505089 0 -20833.26069966 0 399
0.02050000 0.02045430 72067.93588228 0 3897.79043471 0 41779.76252017 0 -4068.59486771 0 -2502.78404735 0 462
0.02150000 0.02154770 71414.77529400 0 3397.72163791 0 47223.54380629 0 5046.96044171 0 -6258.96207943 0 571
0.02250000 0.02255340 65180.41348941 0 3658.74186689 0 56559.22610155 0 -6502.59131159 0 -3977.55832316 0 510
0.02350000 0.02348930 62248.89922402 0 6002.38942042 0 47635.47086095 0 4425.45412952 0 -4087.72718245 0 555
0.02450000 0.02439640 58426.87275566 0 52.00939529 0 53119.84592791 0 9141.71944303 0 -3966.50039981 0 592
0.02550000 0.02547300 57363.78152818 0 -1233.59619817 0 41301.51010776 0 15029.45916060 0 6316.46993560 0 837
0.02650000 0.02652900 59605.09060747 0 -412.82433249 0 36100.95877071 0 16144.34627783 0 4052.06898426 0 723
0.02750000 0.02749970 59492.18222254 0 -357.71993869 0 27870.29242740 0 3390.87836939 0 9043.80635637 0 826
0.02850000 0.02848090 58143.82540955 0 13.18898594 0 16526.99257255 0 4057.18202605 0 4737.57150284 0 831
0.02950000 0.02946900 56068.77337250 0 859.58772764 0 17821.66799231 0 2107.81543283 0 6935.52509327 0 996
0.03050000 0.03053250 56888.30191501 0 1213.56549648 0 17693.01010771 0 -2663.19602881 0 5073.93423269 0 1041
0.03150000 0.03150510 53759.80799182 0 1331.95293271 0 18588.84608522 0 2094.67236444 0 4375.37737530 0 1036
0.03250000 0.03246190 55629.45106138 0 -601.44566427 0 14508.17290403 0 5399.59395748 0 2567.05753367 0 1059
0.03350000 0.03345080 54584.88213280 0 -910.56619617 0 18304.24597153 0 5059.49349426 0 2216.74207806 0 1302
0.03450000 0.03451200 54081.23087938 0 1304.26930513 0 12367.90462893 0 -1887.81045016 0 4771.81002782 0 1339
0.03550000 0.03553350 54404.65018239 0 728.87131689 0 15942.48649338 0 2171.22380578 0 2663.00747847 0 1365
0.03650000 0.03647120 50424.13050964 0 1985.13570338 0 14097.13314513 0 -1374.73167934 0 4147.87474350 0 1308
0.03750000 0.03744890 50421.80135828 0 1338.25273258 0 15770.90567659 0 214.74331883 0 1977.97079016 0 1579
0.03850000 0.03847530 46906.33557358 0 1978.01515494 0 15081.92052216 0 -567.74062586 0 787.02024425 0 1662
0.03950000 0.03950240 45478.89852634 0 1054.49887721 0 12359.91896713 0 2654.82217512 0 1322.89142480 0 1683
0.04050000 0.04050350 43648.18555807 0 309.42110334 0 14266.05207465 0 -68.03639670 0 -3895.10636505 0 1822
0.04150000 0.04152450 45917.99901352 0 80.09430238 0 13889.28411432 0 3162.07806754 0 995.83088183 0 1887
0.04250000 0.04250150 42709.75938428 0 738.67371675 0 14180.87168209 0 -704.37086283 0 -4829.99444701 0 1920
0.04350000 0.04349210 40973.09976612 0 3340.83488876 0 14017.60926301 0 -6178.11834487 0 -159.63781592 0 2005
0.04450000 0.04448520 38318.08904066 0 1680.10560491 0 16412.30959610 0 2160.09933524 0 3028.36259714 0 2151
0.04550000 0.04548030 39544.44268722 0 -1512.28470389 0 17445.34367986 0 7388.58939741 0 5142.01199956 0 2274
0.04650000 0.04648670 40217.23469410 0 -1531.79411932 0 12570.98444505 0 5314.64648006 0 4544.67340552 0 2311
0.04750000 0.04749250 40666.31725854 0 487.80858770 0 12802.12498946 0 1186.82462064 0 6333.00691025 0 2568
0.04850000 0.04851840 39874.73853234 0 923.75473847 0 11149.09299629 0 -1748.93757317 0 9067.02023158 0 2493
0.04950000 0.04949480 38643.06111124 0 1273.45796000 0 10108.76090494 0 -171.83036872 0 6525.76082202 0 2644
0.05050000 0.05050630 36826.43396309 0 1115.85205137 0 13440.42337383 0 416.73397941 0 8018.80229920 0 2829
0.05150000 0.05149060 36908.28699657 0 478.83248201 0 10613.33272771 0 505.29275057 0 3422.02245042 0 2784
0.05250000 0.05249300 35733.95106369 0 -205.66184677 0 11652.07877789 0 3735.83677687 0 7134.47898413 0 3055
0.05350000 0.05348950 35277.32648533 0 -211.44701510 0 5460.57335831 0 2636.04477868 0 4993.35668686 0 3009
0.05450000 0.05448610 35846.85944862 0 -888.24516232 0 6034.21006447 0 3242.86634612 0 9547.18032986 0 3336
0.05550000 0.05550870 35339.76992415 0 316.36308351 0 3376.40435737 0 1941.84676169 0 4980.50198960 0 3349
0.05650000 0.05647670 36157.74569908 0 997.87498943 0 3365.63480514 0 -748.29643922 0 9180.28353482 0 3324
0.05750000 0.05747970 32845.13790656 0 2084.22445692 0 3013.04565415 0 -2714.04916682 0 5832.40573600 0 3639
0.05850000 0.05849280 31812.65838265 0 1012.72388391 0 6724.74798646 0 -1373.34527972 0 6418.36476197 0 3846
0.05950000 0.05951020 30109.27235534 0 510.87605911 0 8667.90350940 0 -2312.95821158 0 2303.22014066 0 3787
0.06050000 0.06049470 29228.07675780 0 1047.92734302 0 9391.67065745 0 -868.76236576 0 1645.27924650 0 3930
0.06150000 0.06148310 29192.47401560 0 416.92585712 0 10029.05956367 0 -548.22677395 0 2357.53373212 0 4083
0.06250000 0.06249100 28734.62940558 0 -446.11788749 0 8978.82303345 0 1127.22052824 0 -62.36080940 0 4303
0.06350000 0.06350600 31061.67343728 0 -1307.37484027 0 9294.00157713 0 1358.92672369 0 323.22520706 0 4470
0.06450000 0.06451750 30335.64368505 0 -148.72296900 0 8621.39812060 0 -137.78483057 0 -1488.71591038 0 4479
0.06550000 0.06550280 31332.63137873 0 693.72331376 0 8435.11037665 0 -719.04229815 0 -85.30062114 0 4636
0.06650000 0.06648880 30633.88597099 0 259.66599383 0 10385.89664309 0 -1323.96727091 0 -424.58765597 0 4653
0.06750000 0.06749660 31123.11866838 0 152.07029224 0 10251.34933291 0 164.02216607 0 -3814.45118084 0 5220
0.06850000 0.06852730 31244.67818693 0 -336.80305037 0 11063.50222944 0 -519.47395499 0 -1302.94945269 0 5029
0.06950000 0.06949320 30373.57557862 0 315.48022423 0 10731.94198787 0 -126.36866155 0 -4553.11380640 0 5040
0.07050000 0.07048030 30825.98550213 0 759.42312800 0 11789.49870808 0 -1644.94651059 0 -2038.63963746 0 5475
0.07150000 0.07148790 30191.12538882 0 191.06694071 0 11847.28384418 0 -476.05746453 0 -7283.34502956 0 5509
0.07250000 0.07249820 29338.10143153 0 640.31920045 0 12277.28954987 0 859.46017888 0 -4563.19570442 0 5916
0.07350000 0.07351270 28268.46639784 0 728.18588092 0 11891.75954395 0 222.87871179 0 -5024.46749430 0 5721
0.07450000 0.07449140 28702.35402246 0 233.53624294 0 10092.96704049 0 875.07991154 0 -6163.04540822 0 6028
0.07550000 0.07549160 27343.46057236 0 40.17275899 0 9799.01704777 0 1439.12716882 0 -4583.32622688 0 6183
0.07650000 0.07648840 26876.07753296 0 685.93507526 0 8590.52022829 0 668.73595616 0 -6474.48621852 0 6330
0.07750000 0.07749960 26552.88005389 0 367.18516617 0 8482.84688832 0 233.73921185 0 -4061.23031294 0 6583
0.07850000 0.07848650 25525.83521649 0 317.19492328 0 6871.92816997 0 1046.95686329 0 -5646.68364310 0 6549
0.07950000 0.07947320 25235.24585644 0 684.32685171 0 8254.49023435 0 -118.74124541 0 -3460.47563024 0 6828
0.08050000 0.08048110 24144.31572462 0 587.26556897 0 7775.41707337 0 -17.31690762 0 -4915.76267301 0 7147
0.08150000 0.08149960 23230.73383199 0 612.07657655 0 8215.30503553 0 317.75724697 0 -3086.86866104 0 7386
0.08250000 0.08250610 22781.31853165 0 198.12981492 0 8144.17718950 0 -129.97551880 0 -1517.88575835 0 7227
0.08350000 0.08350160 23115.93994358 0 4.78416562 0 8508.73374200 0 1554.71962341 0 -1169.66653896 0 7798
0.08450000 0.08449610 22441.04060928 0 -265.34025019 0 6424.62019705 0 1900.18822596 0 709.32862787 0 7371
0.08550000 0.08548940 22867.27530800 0 91.82202312 0 6421.29283796 0 328.58225519 0 -882.26367980 0 8256
0.08650000 0.08650700 22658.64989340 0 155.01278679 0 6238.12172036 0 202.68386039 0 1219.64347241 0 8037
0.08750000 0.08749060 22441.59516913 0 389.48512675 0 6075.14767240 0 165.35754618 0 393.17960446 0 8155
0.08850000 0.08849210 21496.73610111 0 578.87951496 0 5815.08128636 0 -359.53113115 0 622.34924316 0 8718
0.08950000 0.08949900 21254.39344779 0 391.16766133 0 6094.98982374 0 -440.21958895 0 -314.21028218 0 8571
0.09050000 0.09049190 20230.67596947 0 601.71961683 0 6826.24352974 0 -304.37571785 0 -327.60068426 0 8932
0.09150000 0.09150830 19717.81902258 0 509.91223410 0 6355.82150238 0 -249.88244900 0 -1016.01353292 0 9285
0.09250000 0.09250820 19485.23662258 0 237.37490621 0 7438.59960445 0 -107.36611382 0 -1662.75897289 0 9204
0.09350000 0.09350330 18665.59716810 0 455.15832212 0 6859.87203888 0 -80.44300961 0 -1745.49930212 0 9349
0.09450000 0.09448040 18350.71808674 0 341.06872471 0 6951.44096089 0 189.55299232 0 -2222.50950047 0 9564
0.09550000 0.09549270 18185.34834024 0 161.51333732 0 6720.26714290 0 -677.71649832 0 -2242.16310146 0 10155
0.09650000 0.09649430 17811.24226718 0 320.61323018 0 7046.24851240 0 875.96387994 0 -2201.78005337 0 9913
0.09750000 0.09749140 17697.11385058 0 -11.00857862 0 6322.59227632 0 249.46098352 0 -1998.92206119 0 10476
0.09850000 0.09850240 17394.76782178 0 164.15415131 0 6594.51515190 0 69.44342595 0 -2089.70350821 0 10575
0.09950000 0.09950330 17308.25648558 0 315.85843405 0 6564.24727543 0 183.09126098 0 -1287.12231464 0 10882
0.10050000 0.10051200 16707.66817083 0 145.43886558 0 6856.13430551 0 -74.29571370 0 -1639.83346879 0 10875
0.10150000 0.10150300 16806.49073564 0 78.12716769 0 6235.73711302 0 596.76074268 0 -1776.98721026 0 11118
0.10250000 0.10250800 16775.10264828 0 53.94991111 0 6646.03376172 0 136.66572880 0 -604.11309714 0 11575
0.10350000 0.10349800 16754.36210999 0 -42.27454082 0 5815.30311030 0 887.07725928 0 -1043.37995227 0 11364
0.10450000 0.10450100 16927.38478238 0 -269.51719496 0 5510.46156218 0 997.78071426 0 356.75611368 0 12093
0.10550000 0.10551000 16892.22568805 0 184.95901855 0 4534.20331560 0 797.67112068 0 361.03398834 0 12067
0.10650000 0.10649700 16419.07522624 0 466.87728082 0 5142.24491470 0 -75.91791217 0 1057.09865378 0 12054
0.10750000 0.10749900 16023.67405504 0 488.40751233 0 4678.92125338 0 -247.46567719 0 881.03810254 0 12807
0.10850000 0.10850100 15339.90176318 0 112.49911977 0 5283.65767579 0 525.09164624 0 1863.18799294 0 12736
0.10950000 0.10950300 15073.93486036 0 62.38765010 0 4558.61504008 0 709.00254668 0 1817.09297842 0 12933
0.11050000 0.11050200 15464.12316900 0 46.99262509 0 3887.71962788 0 971.26166235 0 1745.37729895 0 13428
0.11150000 0.11150900 15030.67919226 0 29.62835806 0 3361.96361895 0 258.43043449 0 2307.76753141 0 13453
0.11250000 0.11250000 14972.67223222 0 170.39184048 0 3073.29303597 0 -171.43108563 0 1656.72536175 0 13668
0.11350000 0.11349100 14622.74496851 0 224.87734548 0 3723.94701374 0 -964.87424203 0 1391.21319800 0 13791
0.11450000 0.11448600 14475.67569697 0 233.69928354 0 4079.86352381 0 -339.97513269 0 291.62638696 0 14205
0.11550000 0.11549300 14494.53073178 0 119.66625123 0 4453.52594900 0 -680.80539667 0 -53.51291795 0 14776
0.11650000 0.11649800 14235.66219501 0 337.43081211 0 4898.61568253 0 -760.82283706 0 -1856.66636913 0 14553
0.11750000 0.11747300 14011.39819272 0 240.43829480 0 5501.14495674 0 -824.25339240 0 -1825.85502401 0 14568
0.11850000 0.11849100 13760.62622972 0 132.83815673 0 6093.93616003 0 -129.13480607 0 -2174.49570888 0 16015
0.11950000 0.11950300 13545.67883286 0 187.94365965 0 5566.84920746 0 146.14537483 0 -2310.10777397 0 15270
0.12050000 0.12050700 13523.82917488 0 110.58954839 0 6243.19039737 0 306.65384970 0 -1689.61076070 0 15999
0.12150000 0.12150000 13247.76928283 0 -31.53016560 0 5071.05052148 0 1017.94118295 0 -2248.07470944 0 15670
0.12250000 0.12250700 13169.90908026 0 134.71367813 0 5655.65642143 0 544.13966788 0 -575.25823916 0 16887
0.12350000 0.12352200 13108.68567310 0 17.03064383 0 4130.27301394 0 407.49612148 0 -1003.27418411 0 16407
0.12450000 0.12449800 13045.02220262 0 -104.72064152 0 4867.77106382 0 945.85505751 0 261.33410985 0 16306
0.12550000 0.12549900 13191.09326643 0 -50.18411701 0 3509.08834646 0 411.70412160 0 -114.20494586 0 17523
0.12650000 0.12650100 13135.19363381 0 102.81095923 0 3356.78402997 0 201.98511498 0 186.74137390 0 17154
0.12750000 0.12750600 13049.23685746 0 -9.60357907 0 2861.52881264 0 474.93503540 0 678.69141454 0 18007
0.12850000 0.12850300 12893.07280443 0 127.54987402 0 2849.42831677 0 -3.04919187 0 -85.57679194 0 17496
0.12950000 0.12949900 12922.13174044 0 166.26924257 0 2424.92384477 0 184.97121886 0 679.36908667 0 18405
0.13050000 0.13049000 12413.60036036 0 126.44297257 0 2395.15507217 0 198.33389295 0 -329.42629528 0 18100
0.13150000 0.13148800 12241.68680766 0 286.31037626 0 2338.04649908 0 -291.68295206 0 792.94959814 0 19059
0.13250000 0.13249300 11842.73645343 0 199.73360200 0 2574.26681168 0 -13.40570793 0 -200.75510124 0 18957
0.13350000 0.13349100 11935.34794795 0 -0.41789301 0 2524.12351028 0 140.99240473 0 140.96024025 0 19468
0.13450000 0.13450700 11683.68868920 0 33.85720963 0 2378.49609435 0 386.52599541 0 -449.21011320 0 19953
0.13550000 0.13551000 11726.94435729 0 107.05944222 0 2016.25760202 0 -96.71457192 0 -90.53610974 0 19956
0.13650000 0.13649900 11509.44598514 0 158.79932143 0 2246.73267460 0 43.68423195 0 8.19413194 0 19723
0.13750000 0.13749600 11363.15309739 0 218.30692041 0 2544.09875598 0 -391.48486956 0 -646.14984269 0 20946
0.13850000 0.13851100 11025.09341441 0 165.73797424 0 2192.71854547 0 -226.61422693 0 -381.76010808 0 20955
0.13950000 0.13949800 11075.99091721 0 39.28501959 0 2657.42860640 0 282.64029919 0 -350.35649304 0 20506
0.14050000 0.14048300 11103.50817684 0 -27.39204001 0 2470.05392516 0 38.55155874 0 -232.53803522 0 21447
0.14150000 0.14148400 10939.03681729 0 139.63706046 0 2591.21416062 0 196.98409428 0 -49.32399468 0 21771
0.14250000 0.14249400 10918.26300541 0 51.51872074 0 2690.33618775 0 -177.42920494 0 -239.57096320 0 22470
0.14350000 0.14350900 10794.88453055 0 187.63199701 0 2715.99012629 0 -251.03038789 0 -130.83841392 0 22519
0.14450000 0.14449900 10718.03362690 0 56.56976274 0 2821.85560116 0 197.57414596 0 -200.24046970 0 22218
0.14550000 0.14550500 10600.44475685 0 96.10743980 0 3172.41506310 0 -108.12075886 0 -166.20047715 0 23559
0.14650000 0.14650700 10512.03682598 0 186.03930113 0 2903.90827618 0 5.82526301 0 -573.83523859 0 23044
0.14750000 0.14750500 10238.58336522 0 160.81902839 0 3545.15691894 0 -156.95152801 0 -215.67719762 0 23649
0.14850000 0.14849900 10187.02039061 0 272.20237374 0 3153.77076103 0 -541.84157187 0 -548.66154887 0 23640
0.14950000 0.14949500 9814.51144991 0 -16.77887366 0 3360.10029786 0 304.23264141 0 -675.50602277 0 24457
0.15050000 0.15050000 9977.72950420 0 -60.36095568 0 3281.67444424 0 -32.23124016 0 -619.26367217 0 24591
0.15150000 0.15149900 10043.65557886 0 48.52343209 0 3121.70611065 0 321.27759288 0 -933.89985631 0 25020
0.15250000 0.15250500 9957.80971448 0 19.78924633 0 2875.89191269 0 75.84182656 0 -1056.48641970 0 25297
0.15350000 0.15350100 9729.04268622 0 205.67293797 0 3021.63024059 0 -2.02509729 0 -935.11434238 0 25452
0.15450000 0.15450400 9714.29139428 0 141.43716172 0 2779.25431368 0 316.75571188 0 -417.57691038 0 26061
0.15550000 0.15549900 9184.29854811 0 171.97011780 0 2906.96944654 0 230.51611001 0 -478.51416466 0 26128
0.15650000 0.15649500 9365.24033512 0 85.53786184 0 2520.21940895 0 353.01948943 0 532.88543033 0 26331
0.15750000 0.15749700 9090.57793390 0 60.33356042 0 2664.98171152 0 359.33703521 0 14.00973451 0 27345
0.15850000 0.15849900 9000.33995553 0 211.76755069 0 2421.03083465 0 -70.69551117 0 798.14138743 0 26980
0.15950000 0.15949700 8713.17777534 0 141.77544323 0 2496.18478517 0 80.03196985 0 450.25601307 0 27777
0.16050000 0.16050000 8457.83623920 0 110.16641922 0 2727.61370069 0 -105.70753623 0 953.93832184 0 28224
0.16150000 0.16150500 8528.63134932 0 23.70000237 0 2302.70994560 0 80.12236311 0 594.30958815 0 28075
0.16250000 0.16249700 8537.79267800 0 -69.14906558 0 2503.59370473 0 394.83108368 0 479.01881412 0 28590
0.16350000 0.16349900 8507.33625118 0 64.59923477 0 1933.99419426 0 -53.15289769 0 698.95724960 0 29163
0.16450000 0.16449100 8547.87457603 0 121.15801722 0 2139.00387865 0 -133.20083887 0 251.13242690 0 28996
0.16550000 0.16550500 8403.75556288 0 119.26918638 0 2252.72192096 0 -242.13302970 0 310.45147554 0 30777
0.16650000 0.16650700 8109.88320854 0 128.69337643 0 2287.02699312 0 -68.55113915 0 -166.37349982 0 29211
0.16750000 0.16749900 8206.92009064 0 -6.05769013 0 2591.35834618 0 42.00458108 0 86.87091280 0 30922
0.16850000 0.16850800 8133.44091086 0 64.59002908 0 2593.21057607 0 -150.49866963 0 -597.04800468 0 30867
0.16950000 0.16949900 8033.81977987 0 186.39865591 0 2455.09190047 0 -66.50747520 0 -199.79682183 0 30852
0.17050000 0.17049200 7800.42772249 0 121.84012584 0 2734.72315793 0 -174.92814003 0 -476.74400962 0 31257
0.17150000 0.17149500 7868.78276928 0 55.63843493 0 2713.60551894 0 76.86887139 0 -565.69651827 0 32608
0.17250000 0.17250900 7737.46299741 0 5.27924338 0 2785.38774559 0 72.66552957 0 -112.23847664 0 32361
0.17350000 0.17350400 7800.35008411 0 -56.05624032 0 2414.16538373 0 476.94143293 0 -214.54478641 0 32508
0.17450000 0.17449800 7906.67029806 0 -10.88063057 0 2369.92259911 0 390.98798394 0 113.62709450 0 32791
0.17550000 0.17549800 7961.32771662 0 10.33976835 0 2054.78842022 0 81.00910430 0 11.52386454 0 33633
0.17650000 0.17650100 7743.04186948 0 135.19503608 0 2107.36069375 0 5.29717784 0 459.61254682 0 33984
0.17750000 0.17750300 7593.79872334 0 124.64730778 0 1988.49633606 0 16.33799858 0 430.89300144 0 34069
0.17850000 0.17849800 7615.90347886 0 -62.04349026 0 2107.07232263 0 298.43416364 0 838.56990942 0 34536
