### header ###
fiducial parameters:
Omega_m = 0.31
Omega_nu = 0
Omega_de = 0.69
Omega_k = 0
H_0 = 100
w_de = -1
zeff = 0
beta = 0
fgrowth = 0
b_1 = 2
gamma = 0.55
Lx = 3500 Ly = 3500 Lz = 3500
nx = 700 ny = 700 nz = 700
xoffset = 1379.75464 yoffset = 22.6059522 zoffset = 368.141391
bins = 400 dk = 0.001
kx_ny = 0.628318531 ky_ny = 0.628318531 kz_ny = 0.628318531
############################
A(data) = 3.3565069 (not used)
A(ran) = 3.35405127 (used)
Ngal = 188073
weighted Ngal = 0
Nran = 9399747
weighted Nran = 0
SN(data) = 6652.81952
SN(ran) = 133.408673
SN(data+ran) = 6786.22819
############################
13 columns: k_central k_mean P_0(k) sigma^{lin}_{P_0(k)} P^img_1(k) sigma^{lin}_{P_1(k)} P_2(k) sigma^{lin}_{P_2(k)} P^img_3(k) sigma^{lin}_{P_3(k)} P_4(k) sigma^{lin}_{P_4(k)} N_modes
### header ###
0.00050000 0 0 0 0 0 0 0 0 0 0 0 0
0.00150000 0.00179520 16132.58960907 0 -25743.22267667 0 -23622.80764411 0 3724.61248556 0 24998.55971357 0 3
0.00250000 0.00253879 31223.60491273 0 -23147.66076685 0 -26305.87909786 0 -37903.72192267 0 -24034.62378680 0 6
0.00350000 0.00331552 63866.88303483 0 -36293.83468564 0 -77910.66752264 0 37925.01702081 0 34578.80290153 0 7
0.00450000 0.00420575 75076.53396646 0 -26296.67340439 0 -64761.49898067 0 -23208.10779022 0 -14698.83057957 0 24
0.00550000 0.00557378 111281.30634060 0 -4389.42992183 0 -78968.10223968 0 -52557.41133066 0 -20853.44667811 0 45
0.00650000 0.00659388 95325.73223483 0 -10550.45673221 0 -19054.89818099 0 -43274.96678076 0 -16346.09515032 0 40
0.00750000 0.00754703 90826.92092869 0 20391.83106112 0 -20155.03400628 0 -55359.93497554 0 5773.78876012 0 57
0.00850000 0.00846663 75955.28950067 0 17818.00789732 0 -9904.77161067 0 -32147.05797064 0 -21232.98743768 0 75
0.00950000 0.00948925 59266.03271677 0 994.86483858 0 9039.31442160 0 2091.43373494 0 -7401.37754749 0 112
0.01050000 0.01054430 67292.95377213 0 6397.74622684 0 37107.48489376 0 10719.24256737 0 3881.81911111 0 105
0.01150000 0.01145670 61478.17194809 0 -1056.39990837 0 22262.25051447 0 5053.78152784 0 10671.06240782 0 144
0.01250000 0.01249090 63427.00616386 0 -1151.97607983 0 23729.28313481 0 26193.85800868 0 11631.44915157 0 169
0.01350000 0.01339930 71199.49516124 0 -9759.98712571 0 12124.00920804 0 2471.20740964 0 6634.53219049 0 180
0.01450000 0.01448870 76290.46547244 0 -978.01176482 0 18443.55140520 0 4021.94529335 0 38108.90906621 0 267
0.01550000 0.01550050 88649.16440791 0 -549.98251043 0 13612.11510258 0 10539.78700074 0 19988.00058024 0 238
0.01650000 0.01653350 88826.73447105 0 -395.56199356 0 20859.54683643 0 -5029.92436320 0 37143.97493172 0 315
0.01750000 0.01747870 80648.64040128 0 6833.96300281 0 22317.26285134 0 7236.76200238 0 11182.69932305 0 297
0.01850000 0.01844180 79757.90637436 0 739.83163771 0 28363.62886766 0 11028.93096856 0 41256.59076012 0 388
0.01950000 0.01947590 78933.38679323 0 688.85095094 0 28588.89107768 0 13366.99965003 0 41736.28502813 0 399
0.02050000 0.02045430 79348.64120697 0 -2836.20761001 0 31017.08682555 0 20058.31876889 0 46590.79102040 0 462
0.02150000 0.02154770 83831.25936557 0 -2870.17994626 0 14084.48918061 0 12442.77020833 0 52039.00878530 0 571
0.02250000 0.02255340 83866.64028383 0 -1727.81993418 0 13465.48947893 0 -977.77663144 0 36507.89478674 0 510
0.02350000 0.02348930 86185.47682980 0 6771.77466153 0 13421.45742704 0 -5465.24275222 0 49453.87260061 0 555
0.02450000 0.02439640 78819.14746467 0 6934.01669048 0 30585.63926427 0 -9906.41310782 0 32878.96605725 0 592
0.02550000 0.02547300 68962.84438466 0 6190.51830306 0 34497.17169200 0 -380.07646438 0 44530.60118727 0 837
0.02650000 0.02652900 66429.06044184 0 1081.00905616 0 29065.70163448 0 7822.31065407 0 19991.32793932 0 723
0.02750000 0.02749970 65071.16519947 0 -2331.46941929 0 24593.50920102 0 13973.57721113 0 34216.45349724 0 826
0.02850000 0.02848090 65275.24322331 0 464.05678943 0 23396.76905031 0 4292.55940769 0 15782.32960944 0 831
0.02950000 0.02946900 62345.28172550 0 3897.61297556 0 15382.04831158 0 -740.68455076 0 26807.20119992 0 996
0.03050000 0.03053250 56830.51677891 0 2598.67853617 0 15624.94552475 0 1127.79727048 0 11227.72958266 0 1041
0.03150000 0.03150510 51675.10661343 0 3665.71822977 0 11955.20119049 0 -2389.60947369 0 5623.55849746 0 1036
0.03250000 0.03246190 48599.07405181 0 2297.50817423 0 18312.00980939 0 320.02428762 0 9261.59309964 0 1059
0.03350000 0.03345080 46105.10750604 0 -100.06211698 0 9175.18158422 0 5421.98708412 0 417.64234844 0 1302
0.03450000 0.03451200 45356.67353597 0 -1154.88197343 0 3213.86286610 0 4655.18609191 0 2156.26178110 0 1339
0.03550000 0.03553350 44993.99139576 0 198.84186977 0 2844.83656123 0 814.24469628 0 -2325.44689935 0 1365
0.03650000 0.03647120 47083.57290081 0 218.58198210 0 -1655.78261001 0 1956.70896561 0 3582.84480617 0 1308
0.03750000 0.03744890 43890.86094729 0 775.93902938 0 4908.60885098 0 -1552.27956009 0 -883.97394237 0 1579
0.03850000 0.03847530 44493.33476552 0 989.03530546 0 737.96831663 0 -859.67202074 0 3535.80703991 0 1662
0.03950000 0.03950240 43128.34115710 0 -114.44673395 0 4929.71539877 0 915.68145621 0 6485.13376760 0 1683
0.04050000 0.04050350 42958.86766773 0 625.59896386 0 4725.48209817 0 -1311.98877820 0 1564.24696159 0 1822
0.04150000 0.04152450 42567.01567955 0 1929.57989787 0 11480.71978504 0 -1295.72908348 0 8442.64129938 0 1887
0.04250000 0.04250150 40833.68342048 0 275.85137754 0 9114.55710170 0 -939.54194820 0 1316.25888903 0 1920
0.04350000 0.04349210 41614.17094973 0 -33.41267445 0 12409.49661749 0 -1673.85016983 0 9013.26119997 0 2005
0.04450000 0.04448520 40304.85514999 0 1338.99584277 0 11487.37450321 0 -674.23386248 0 -654.10999474 0 2151
0.04550000 0.04548030 40379.60981742 0 1097.68910725 0 16672.84181242 0 -2005.80969450 0 4674.79532812 0 2274
0.04650000 0.04648670 38329.95662139 0 105.96407561 0 15673.63587935 0 27.09546141 0 1500.41712316 0 2311
0.04750000 0.04749250 39327.05522704 0 -121.81794344 0 14148.04173912 0 2029.35630562 0 -1210.11613423 0 2568
0.04850000 0.04851840 39790.22361160 0 -275.30125417 0 15121.40518330 0 75.68743709 0 -809.11945417 0 2493
0.04950000 0.04949480 37978.03294223 0 1683.90988547 0 12943.09410267 0 -208.66312467 0 -5385.21976624 0 2644
0.05050000 0.05050630 37183.23776892 0 1824.37989482 0 17254.35326841 0 -2066.50072420 0 1554.16506357 0 2829
0.05150000 0.05149060 34135.26593558 0 1199.09148447 0 16347.42609395 0 -847.55710631 0 -3380.23082032 0 2784
0.05250000 0.05249300 33321.17207958 0 830.61752121 0 19110.35416573 0 2668.49762095 0 2929.39584677 0 3055
0.05350000 0.05348950 32966.36468920 0 -540.33649644 0 14192.85017479 0 2299.06094181 0 -3233.19482238 0 3009
0.05450000 0.05448610 33449.38631630 0 -50.70739968 0 16256.47827898 0 3273.36713772 0 5534.28545322 0 3336
0.05550000 0.05550870 34792.08661885 0 -457.02829793 0 13382.86006166 0 2702.71396354 0 4988.70947534 0 3349
0.05650000 0.05647670 32867.87486030 0 326.49600104 0 11932.02058887 0 1410.71152224 0 6618.17267499 0 3324
0.05750000 0.05747970 33750.29048950 0 879.30233022 0 13129.86985928 0 -258.68331378 0 5700.10993880 0 3639
0.05850000 0.05849280 31177.02188555 0 1151.68770871 0 12479.03842235 0 -18.61424493 0 6380.31086524 0 3846
0.05950000 0.05951020 31308.00892150 0 649.77222761 0 16295.74111618 0 -766.07673705 0 6604.29758761 0 3787
0.06050000 0.06049470 30134.11663650 0 566.33537121 0 14492.97796421 0 -435.60010542 0 3146.26202070 0 3930
0.06150000 0.06148310 30141.99138634 0 237.00889671 0 16549.17496644 0 -1229.51463770 0 2513.63123797 0 4083
0.06250000 0.06249100 29680.26485738 0 409.67110520 0 16199.58043863 0 -557.72527502 0 -208.82394702 0 4303
0.06350000 0.06350600 29523.98989238 0 181.44754559 0 15387.15026218 0 495.93954418 0 1433.49284077 0 4470
0.06450000 0.06451750 29816.35384394 0 -99.02198453 0 13891.05870583 0 1532.54832071 0 -2629.88916438 0 4479
0.06550000 0.06550280 29084.22393339 0 96.67808188 0 13598.58384231 0 2147.28900277 0 602.28526788 0 4636
0.06650000 0.06648880 29138.34897449 0 319.82797344 0 11823.88141862 0 1587.19464808 0 -2065.80197879 0 4653
0.06750000 0.06749660 28784.65070381 0 16.45179426 0 11857.26592144 0 795.46951808 0 1640.94258849 0 5220
0.06850000 0.06852730 27635.38087604 0 777.98424610 0 9981.88870305 0 2200.17182982 0 1431.91789080 0 5029
0.06950000 0.06949320 26874.74658933 0 -42.78041031 0 9291.56151380 0 650.72274319 0 1859.69426590 0 5040
0.07050000 0.07048030 27787.55209817 0 -541.11288023 0 7036.80990380 0 1626.55730605 0 942.84268841 0 5475
0.07150000 0.07148790 27722.11403617 0 -195.23501252 0 6608.80061357 0 1754.43880686 0 996.98658456 0 5509
0.07250000 0.07249820 27740.19268720 0 260.27490054 0 5873.18806717 0 -1353.09275409 0 514.79901547 0 5916
0.07350000 0.07351270 27785.99933060 0 54.27577047 0 4853.33032539 0 296.84368600 0 -814.93124137 0 5721
0.07450000 0.07449140 27117.08924265 0 94.74233528 0 5403.40932924 0 477.01685307 0 -835.22147707 0 6028
0.07550000 0.07549160 26797.33003463 0 269.55934151 0 3659.81771299 0 176.55410950 0 -796.28693930 0 6183
0.07650000 0.07648840 27121.30389749 0 -49.86868337 0 4956.60046018 0 1333.10641719 0 -2918.54865615 0 6330
0.07750000 0.07749960 26012.62785054 0 1185.16094110 0 5499.44800361 0 -2023.40033286 0 -1483.85796611 0 6583
0.07850000 0.07848650 25369.78207543 0 898.01872507 0 3757.18733100 0 -847.04247477 0 -1638.54688995 0 6549
0.07950000 0.07947320 23636.67164030 0 112.51353832 0 5842.92019070 0 631.29762086 0 -187.95475084 0 6828
0.08050000 0.08048110 24147.08852385 0 459.89426322 0 5266.33322615 0 662.96631550 0 -541.59978378 0 7147
0.08150000 0.08149960 23405.64200786 0 324.34098148 0 5059.77077419 0 1403.43569704 0 556.51522543 0 7386
0.08250000 0.08250610 22812.15205917 0 369.81267072 0 5630.34630999 0 -29.92981679 0 1860.59265285 0 7227
0.08350000 0.08350160 22268.57249673 0 576.58474631 0 5444.41348435 0 -496.24787946 0 1824.08043250 0 7798
0.08450000 0.08449610 21826.14465047 0 637.74382452 0 7037.67501716 0 -336.56348051 0 2550.64256218 0 7371
0.08550000 0.08548940 21041.88611426 0 301.87908942 0 6664.74461097 0 -288.74489399 0 1656.35935225 0 8256
0.08650000 0.08650700 21033.01315670 0 66.63613309 0 7958.04472232 0 112.46584617 0 2966.15207345 0 8037
0.08750000 0.08749060 20897.14599409 0 168.20021996 0 7323.46188893 0 876.98316094 0 2117.68659811 0 8155
0.08850000 0.08849210 20620.08789432 0 231.17049063 0 7724.99649204 0 763.32057461 0 3149.51174140 0 8718
0.08950000 0.08949900 20453.16538025 0 52.14027141 0 6489.20423688 0 208.74298128 0 2372.04101773 0 8571
0.09050000 0.09049190 20076.28650795 0 119.81598239 0 5956.22785873 0 642.16810299 0 2661.63217004 0 8932
0.09150000 0.09150830 19759.96557098 0 419.77851298 0 6987.52062456 0 -410.89779158 0 2807.28176837 0 9285
0.09250000 0.09250820 19253.54151833 0 467.11241419 0 5636.50192430 0 -167.90075764 0 640.59093478 0 9204
0.09350000 0.09350330 18756.98863096 0 354.26835820 0 6654.01942353 0 141.24528402 0 2719.33966777 0 9349
0.09450000 0.09448040 18182.13189313 0 293.73593262 0 5422.39745841 0 -288.11380488 0 -235.16443065 0 9564
0.09550000 0.09549270 18108.70816933 0 47.07991281 0 5712.28807305 0 1009.03717004 0 2166.29931434 0 10155
0.09650000 0.09649430 17823.88623170 0 45.18132171 0 5228.86716286 0 1142.62620080 0 405.46088684 0 9913
0.09750000 0.09749140 17958.86609856 0 50.38231670 0 4349.66798078 0 153.27368711 0 1909.36064583 0 10476
0.09850000 0.09850240 17752.45892336 0 199.57610701 0 5287.39540916 0 59.09877747 0 1825.89938880 0 10575
0.09950000 0.09950330 17291.73060213 0 291.71844389 0 4913.24497131 0 -496.53957794 0 2208.65659548 0 10882
0.10050000 0.10051200 17428.04141262 0 131.05247402 0 5103.03753348 0 -186.77797485 0 1281.16634188 0 10875
0.10150000 0.10150300 17341.19734052 0 64.54078416 0 6215.58440816 0 -385.17619674 0 1407.83890223 0 11118
0.10250000 0.10250800 17076.78320527 0 244.44443514 0 5561.80271285 0 -419.99146396 0 588.00091533 0 11575
0.10350000 0.10349800 16858.95209721 0 248.93969726 0 6587.43896825 0 -46.54265523 0 719.04118903 0 11364
0.10450000 0.10450100 16764.78783512 0 85.44037022 0 5951.00390496 0 633.24079856 0 672.20528256 0 12093
0.10550000 0.10551000 16476.63853840 0 72.75414824 0 5876.18269035 0 1046.68291072 0 1201.38736223 0 12067
0.10650000 0.10649700 16155.32656281 0 284.37939887 0 5408.01217597 0 274.23095366 0 1052.76088665 0 12054
0.10750000 0.10749900 15880.37579047 0 240.91743451 0 5041.11538092 0 339.68897981 0 1768.84627170 0 12807
0.10850000 0.10850100 15477.43260534 0 147.59610339 0 4576.77132949 0 123.85650544 0 729.78523152 0 12736
0.10950000 0.10950300 15477.32169337 0 223.77155315 0 5134.99127189 0 -245.79645205 0 1356.26483642 0 12933
0.11050000 0.11050200 15040.77218148 0 170.92976353 0 4415.08386038 0 -181.29559620 0 -739.58319490 0 13428
0.11150000 0.11150900 14903.46316327 0 106.96095239 0 4912.64604667 0 -377.74620390 0 -183.51938118 0 13453
0.11250000 0.11250000 14580.37659616 0 254.42096680 0 4553.70163983 0 -143.89718921 0 -1687.15960617 0 13668
0.11350000 0.11349100 14645.26009831 0 93.45908379 0 4817.07320257 0 376.02485014 0 -100.52839090 0 13791
0.11450000 0.11448600 14392.60263183 0 2.61034648 0 4410.03736576 0 187.52663064 0 -1597.26545491 0 14205
0.11550000 0.11549300 14417.33600103 0 146.86519351 0 4282.44423607 0 713.47784464 0 -404.97287417 0 14776
0.11650000 0.11649800 13941.63456392 0 122.58101779 0 4130.11773719 0 82.86965259 0 -109.80484620 0 14553
0.11750000 0.11747300 14459.81528534 0 -171.26360856 0 3637.99023740 0 690.61888773 0 51.15936596 0 14568
0.11850000 0.11849100 14270.26672949 0 -112.82520096 0 3633.54266742 0 666.39793184 0 890.57098632 0 16015
0.11950000 0.11950300 14654.13305587 0 -56.13332414 0 2505.50139060 0 423.99871342 0 567.18495690 0 15270
0.12050000 0.12050700 14413.12134618 0 29.20522889 0 3225.51971409 0 -118.13455693 0 597.11566098 0 15999
0.12150000 0.12150000 14491.64702058 0 135.17950840 0 2926.71177711 0 -411.02977682 0 172.69880944 0 15670
0.12250000 0.12250700 14128.07758462 0 268.97261719 0 3224.71005671 0 -134.46745356 0 42.04927861 0 16887
0.12350000 0.12352200 13980.34284127 0 127.14504534 0 3251.38438537 0 -267.51079743 0 109.07682004 0 16407
0.12450000 0.12449800 13877.63835752 0 86.14377393 0 3701.84225823 0 139.62486014 0 128.64013868 0 16306
0.12550000 0.12549900 13619.98985242 0 162.99623035 0 3380.61901221 0 48.69057643 0 -762.00737689 0 17523
0.12650000 0.12650100 13687.09159395 0 138.03105514 0 3422.97629336 0 -143.31379225 0 85.27344770 0 17154
0.12750000 0.12750600 13036.03833309 0 334.20771028 0 3828.14880907 0 -26.33748901 0 -311.97762424 0 18007
0.12850000 0.12850300 13015.40870677 0 169.15628114 0 3628.39635204 0 78.75637129 0 -39.39870436 0 17496
0.12950000 0.12949900 12699.53141768 0 162.85980863 0 3707.96459894 0 10.06583797 0 -408.26695966 0 18405
0.13050000 0.13049000 12670.02883380 0 182.89161944 0 4436.98897435 0 -422.92286731 0 -378.87528775 0 18100
0.13150000 0.13148800 12298.36282407 0 208.34924379 0 3678.71711259 0 -114.47002546 0 -209.07128071 0 19059
0.13250000 0.13249300 12137.54046832 0 147.46522726 0 4178.57517665 0 98.85140192 0 -289.78968474 0 18957
0.13350000 0.13349100 12148.85348921 0 -31.05357686 0 4076.82453585 0 312.98470492 0 -313.65572234 0 19468
0.13450000 0.13450700 12145.63704209 0 45.29777928 0 3893.55359748 0 569.41983308 0 -162.01133206 0 19953
0.13550000 0.13551000 11957.75216579 0 76.94784072 0 3564.84379352 0 549.73850410 0 182.62432159 0 19956
0.13650000 0.13649900 11664.05727060 0 178.23775320 0 3328.09110347 0 -180.48815706 0 294.79846929 0 19723
0.13750000 0.13749600 11805.35911972 0 135.95367395 0 3596.52025201 0 26.54933087 0 467.89434358 0 20946
0.13850000 0.13851100 11429.81119105 0 109.03500622 0 3537.81454656 0 -24.35759944 0 399.39843858 0 20955
0.13950000 0.13949800 11375.57523798 0 161.75623453 0 3411.30835417 0 -63.76173849 0 125.45031044 0 20506
0.14050000 0.14048300 11262.00138123 0 5.07900291 0 3567.50568079 0 17.36548706 0 562.79727938 0 21447
0.14150000 0.14148400 11348.62362939 0 -47.91363808 0 3364.20404073 0 354.34045098 0 -13.24854567 0 21771
0.14250000 0.14249400 11435.13496559 0 18.81665927 0 2961.19430842 0 59.29553530 0 87.05779947 0 22470
0.14350000 0.14350900 11136.11629586 0 302.58116218 0 3382.12741500 0 -243.34307928 0 161.25269419 0 22519
0.14450000 0.14449900 10893.96219289 0 154.33178730 0 3057.26625638 0 266.03677736 0 7.76971620 0 22218
0.14550000 0.14550500 10717.88944134 0 182.72746972 0 3454.07600960 0 -248.86205888 0 -84.95025023 0 23559
0.14650000 0.14650700 10409.59853097 0 181.98325041 0 3375.51706162 0 -38.42201356 0 -638.44478817 0 23044
0.14750000 0.14750500 10290.50125814 0 130.93268909 0 3468.91603112 0 58.06563247 0 152.83780307 0 23649
0.14850000 0.14849900 10160.12423801 0 -18.61269216 0 3295.62717000 0 -22.65321521 0 -813.39843795 0 23640
0.14950000 0.14949500 10365.87703260 0 -60.75047852 0 3405.99567083 0 159.88182225 0 -434.06064729 0 24457
0.15050000 0.15050000 10272.16750958 0 67.48460966 0 2830.01872211 0 358.66490867 0 -473.96011919 0 24591
0.15150000 0.15149900 10347.89820234 0 63.46360711 0 2766.92090267 0 269.78116545 0 3.66995507 0 25020
0.15250000 0.15250500 10071.01756173 0 79.12249170 0 2736.75284697 0 301.87687118 0 117.15298600 0 25297
0.15350000 0.15350100 10111.99953445 0 50.40094991 0 2347.85111718 0 428.53168561 0 412.57478056 0 25452
0.15450000 0.15450400 9969.81038958 0 175.09450798 0 2679.47790593 0 -201.81763791 0 239.36244870 0 26061
0.15550000 0.15549900 9485.90146672 0 293.36548664 0 2410.41655917 0 -168.25900330 0 559.44219231 0 26128
0.15650000 0.15649500 9474.38880429 0 175.38398822 0 2828.42158975 0 -143.80513227 0 589.40173350 0 26331
0.15750000 0.15749700 9103.97609981 0 137.75044786 0 2954.92778214 0 -63.15749008 0 253.34290245 0 27345
0.15850000 0.15849900 9040.94482756 0 177.29943794 0 2825.39369298 0 26.73033921 0 250.78859979 0 26980
0.15950000 0.15949700 8769.89815654 0 66.54596166 0 3081.92198720 0 130.68424628 0 81.08774089 0 27777
0.16050000 0.16050000 8750.85457138 0 94.11690268 0 2888.29187088 0 -92.95731804 0 98.01379473 0 28224
0.16150000 0.16150500 8760.98083419 0 -46.37107441 0 2609.11535249 0 415.80675535 0 82.97402075 0 28075
0.16250000 0.16249700 8644.82272855 0 -26.98388397 0 2390.34149269 0 258.00453253 0 154.25858540 0 28590
0.16350000 0.16349900 8916.45723301 0 -37.55091095 0 2088.93821562 0 480.76345940 0 325.32809800 0 29163
0.16450000 0.16449100 8608.83179445 0 163.42878703 0 2252.28936428 0 -167.43049089 0 294.19732641 0 28996
0.16550000 0.16550500 8563.72389646 0 256.44289200 0 2003.80218785 0 -225.43634181 0 567.35797957 0 30777
0.16650000 0.16650700 8209.03850926 0 117.44801184 0 2483.89573895 0 -6.52973147 0 285.18461977 0 29211
0.16750000 0.16749900 8018.85775519 0 169.37921419 0 2590.33795606 0 -74.17992161 0 700.64422066 0 30922
0.16850000 0.16850800 8100.35587036 0 -7.24356091 0 2592.94438734 0 101.70871608 0 619.49658730 0 30867
0.16950000 0.16949900 8020.19979002 0 -10.23851682 0 2811.59624398 0 56.48036769 0 326.26641327 0 30852
0.17050000 0.17049200 8045.23262153 0 149.57255468 0 2531.58788583 0 -370.06887737 0 266.26525602 0 31257
0.17150000 0.17149500 7916.47491616 0 72.82690649 0 3043.06952429 0 -189.19696490 0 47.76568151 0 32608
0.17250000 0.17250900 7872.18776674 0 104.55682454 0 3155.46771416 0 37.27352011 0 413.31345428 0 32361
0.17350000 0.17350400 7915.68744117 0 -37.92113510 0 3051.09955088 0 130.83286832 0 -4.11362513 0 32508
0.17450000 0.17449800 7989.94300474 0 -70.50673900 0 2814.35795202 0 283.12831186 0 123.44280379 0 32791
0.17550000 0.17549800 8016.02949996 0 1.04038533 0 2706.35187614 0 190.98708409 0 397.79465151 0 33633
0.17650000 0.17650100 7912.07171097 0 118.03695440 0 2691.84459053 0 -62.22937872 0 323.96720814 0 33984
0.17750000 0.17750300 7946.78715742 0 1.21732541 0 2376.91005319 0 153.80384632 0 301.46871513 0 34069
0.17850000 0.17849800 7830.51813981 0 -20.69861357 0 2358.93122293 0 68.21230309 0 -150.53416146 0 34536
