### header ###
fiducial parameters:
Omega_m = 0.31
Omega_nu = 0
Omega_de = 0.69
Omega_k = 0
H_0 = 100
w_de = -1
zeff = 0
beta = 0
fgrowth = 0
b_1 = 2
gamma = 0.55
Lx = 3500 Ly = 3500 Lz = 3500
nx = 700 ny = 700 nz = 700
xoffset = 1379.75464 yoffset = 22.6059522 zoffset = 368.141391
bins = 400 dk = 0.001
kx_ny = 0.628318531 ky_ny = 0.628318531 kz_ny = 0.628318531
############################
A(data) = 3.37947049 (not used)
A(ran) = 3.38483494 (used)
Ngal = 189563
weighted Ngal = 0
Nran = 9399747
weighted Nran = 0
SN(data) = 6606.65542
SN(ran) = 134.633106
SN(data+ran) = 6741.28852
############################
13 columns: k_central k_mean P_0(k) sigma^{lin}_{P_0(k)} P^img_1(k) sigma^{lin}_{P_1(k)} P_2(k) sigma^{lin}_{P_2(k)} P^img_3(k) sigma^{lin}_{P_3(k)} P_4(k) sigma^{lin}_{P_4(k)} N_modes
### header ###
0.00050000 0 0 0 0 0 0 0 0 0 0 0 0
0.00150000 0.00179520 44876.75744402 0 -36798.26232284 0 -67243.26520981 0 78382.81977672 0 73146.66569747 0 3
0.00250000 0.00253879 60032.98898574 0 -25193.43204395 0 2437.31271177 0 -65244.40969580 0 -57220.26143967 0 6
0.00350000 0.00331552 73676.93582356 0 -1221.02987203 0 -21345.78491064 0 -22940.14447195 0 21973.54665791 0 7
0.00450000 0.00420575 79469.09160583 0 8577.15533597 0 25571.53094791 0 -51629.63270595 0 11581.76058924 0 24
0.00550000 0.00557378 67086.21386102 0 7434.87296227 0 48215.31863740 0 -588.99579570 0 36772.41983395 0 45
0.00650000 0.00659388 63957.16537799 0 5383.92209620 0 52678.85993725 0 41479.63473075 0 -17045.83876578 0 40
0.00750000 0.00754703 67277.64792035 0 526.49579177 0 53108.86564293 0 15665.65021755 0 30686.23642059 0 57
0.00850000 0.00846663 67158.08481724 0 3350.07385582 0 52551.97664416 0 39358.77605031 0 25120.34105606 0 75
0.00950000 0.00948925 66080.46412175 0 8014.02199332 0 60289.08472327 0 24082.42684565 0 64995.19050037 0 112
0.01050000 0.01054430 55683.68701446 0 1249.10169151 0 47475.53580096 0 17786.61980996 0 32465.81897093 0 105
0.01150000 0.01145670 58441.06948776 0 -1133.34286896 0 47991.16554708 0 40233.20601771 0 67871.47060495 0 144
0.01250000 0.01249090 59896.34543933 0 -2602.84882622 0 32432.43446811 0 23144.33340776 0 38739.44361272 0 169
0.01350000 0.01339930 71378.28525604 0 -3270.31705856 0 26457.16302423 0 18686.89226624 0 77139.16386292 0 180
0.01450000 0.01448870 65894.02110105 0 -3327.14835172 0 7837.10631080 0 19096.15743363 0 40751.71947504 0 267
0.01550000 0.01550050 74184.02534803 0 -3547.89644459 0 10358.73430176 0 1260.41471239 0 44414.36544325 0 238
0.01650000 0.01653350 66960.77242353 0 1796.89590878 0 6555.72923617 0 -5375.24878018 0 18072.21813137 0 315
0.01750000 0.01747870 74817.66542969 0 4678.34451114 0 7580.73329334 0 -4885.10660465 0 38608.34566479 0 297
0.01850000 0.01844180 65127.28665602 0 1014.67482545 0 10322.08898705 0 -676.68612613 0 25727.91682488 0 388
0.01950000 0.01947590 67391.66542497 0 441.71800966 0 20016.28313246 0 3599.13777449 0 14331.26831271 0 399
0.02050000 0.02045430 68429.80145933 0 -2375.40165040 0 12212.62787166 0 6876.19828079 0 13691.08442486 0 462
0.02150000 0.02154770 71501.28663020 0 -148.73295108 0 19643.06435515 0 -2977.15454083 0 10151.07382130 0 571
0.02250000 0.02255340 71054.31139318 0 4471.44932327 0 21148.47251693 0 -14096.57858528 0 3575.69098414 0 510
0.02350000 0.02348930 66831.67089106 0 7800.50536087 0 40675.63386397 0 -11525.08457284 0 6327.16184946 0 555
0.02450000 0.02439640 61559.91406960 0 4559.83507175 0 40178.08276888 0 -6288.25393057 0 -7468.93402810 0 592
0.02550000 0.02547300 58776.57819544 0 -1422.64565015 0 46248.40577061 0 11712.08215338 0 2695.72650946 0 837
0.02650000 0.02652900 62494.23650052 0 -2386.32647939 0 44496.55121264 0 14793.88213742 0 3007.34477892 0 723
0.02750000 0.02749970 64140.83559945 0 -962.06040537 0 31156.50317119 0 9117.86227839 0 9054.24317270 0 826
0.02850000 0.02848090 63609.78908957 0 912.15889206 0 33665.11009694 0 4275.34587003 0 7768.19670416 0 831
0.02950000 0.02946900 61419.49951623 0 3399.40749984 0 24134.55547130 0 -1850.39984286 0 8761.29138770 0 996
0.03050000 0.03053250 57595.14389652 0 2029.72231512 0 29179.38640320 0 -367.31936965 0 9355.10298111 0 1041
0.03150000 0.03150510 57570.18870338 0 -497.43131017 0 21803.18587279 0 6397.56876769 0 3923.63292360 0 1036
0.03250000 0.03246190 57862.55265494 0 -13.39550403 0 25472.26473523 0 5900.35040850 0 5596.04123783 0 1059
0.03350000 0.03345080 53751.15685820 0 624.17818154 0 15731.64283939 0 3720.04291242 0 925.46278280 0 1302
0.03450000 0.03451200 54512.34570476 0 2398.99262631 0 18064.67611745 0 -936.95215371 0 7040.02635091 0 1339
0.03550000 0.03553350 50572.19798890 0 2705.96368425 0 17524.31300213 0 1454.17792308 0 4153.75307788 0 1365
0.03650000 0.03647120 48258.01974566 0 1577.31239160 0 21093.68200401 0 1406.29722585 0 11591.07719468 0 1308
0.03750000 0.03744890 46203.15368706 0 -240.46935015 0 17891.20979718 0 4589.47074999 0 7476.05457654 0 1579
0.03850000 0.03847530 47528.77354631 0 -1072.28028416 0 17300.04899984 0 4895.47687379 0 11798.14984170 0 1662
0.03950000 0.03950240 48830.54733212 0 -1155.49198926 0 12180.79613642 0 4914.24317903 0 8982.19475732 0 1683
0.04050000 0.04050350 49833.19153624 0 226.69962914 0 12342.72761186 0 -1763.69995631 0 5657.12045943 0 1822
0.04150000 0.04152450 48780.85876979 0 1820.19851357 0 13546.01156877 0 -5317.95165675 0 6431.17509444 0 1887
0.04250000 0.04250150 46932.17806246 0 2216.70880447 0 17736.93124763 0 -5406.84760029 0 -1494.59424476 0 1920
0.04350000 0.04349210 44574.96597506 0 1397.64609223 0 20073.40279674 0 -2858.47873348 0 -2151.33728965 0 2005
0.04450000 0.04448520 43376.22940890 0 758.64563510 0 20202.06068134 0 1359.63656029 0 -6472.06833759 0 2151
0.04550000 0.04548030 44184.88857839 0 244.63964021 0 21988.74159773 0 -517.48863073 0 -3922.33525356 0 2274
0.04650000 0.04648670 43697.31956055 0 -938.08345580 0 20364.65762860 0 4993.96670269 0 -8246.06092467 0 2311
0.04750000 0.04749250 44489.89649447 0 322.83923341 0 19117.00888390 0 1142.16037053 0 -4363.19924105 0 2568
0.04850000 0.04851840 43359.92534938 0 1652.49961571 0 18349.94170296 0 -2930.90424955 0 -6348.35712683 0 2493
0.04950000 0.04949480 41196.36556069 0 1747.47353518 0 21427.97068003 0 -1556.60512690 0 -4630.59690828 0 2644
0.05050000 0.05050630 40137.93263592 0 346.11078285 0 20374.63970585 0 1478.19036447 0 -2785.88684945 0 2829
0.05150000 0.05149060 39862.42730373 0 -71.57093935 0 18628.21983439 0 3728.62749886 0 -3430.29648334 0 2784
0.05250000 0.05249300 39798.54200931 0 454.76014815 0 20113.66384166 0 1838.67644768 0 -1742.89287084 0 3055
0.05350000 0.05348950 38667.90539241 0 1175.34523180 0 16702.01166039 0 537.39843837 0 -3319.10723394 0 3009
0.05450000 0.05448610 37913.59308796 0 1008.06336295 0 17432.25606746 0 1193.44606522 0 488.89552500 0 3336
0.05550000 0.05550870 35141.45932272 0 1203.55014564 0 18319.88455923 0 554.68850530 0 -646.98390070 0 3349
0.05650000 0.05647670 34728.20132443 0 169.62765701 0 13426.78120158 0 2284.66456817 0 -411.79174205 0 3324
0.05750000 0.05747970 34933.94302782 0 -568.81869021 0 16170.29967869 0 3309.81281089 0 457.79802700 0 3639
0.05850000 0.05849280 35107.96390793 0 -247.20170670 0 10914.34781288 0 1217.35868584 0 -739.44455494 0 3846
0.05950000 0.05951020 35056.83349000 0 -310.64113501 0 11338.97428805 0 1391.09119484 0 1226.84165923 0 3787
0.06050000 0.06049470 35455.78384423 0 741.87019971 0 10275.22867994 0 -2620.33964381 0 -1892.91240076 0 3930
0.06150000 0.06148310 33649.58242121 0 1383.79318724 0 10588.36644338 0 -1078.73757902 0 -3687.64552613 0 4083
0.06250000 0.06249100 32398.16266954 0 1221.32933435 0 13031.60185431 0 -1859.15079725 0 -4373.48078062 0 4303
0.06350000 0.06350600 30894.30727534 0 1140.39687022 0 14026.26039663 0 -628.06786431 0 -3960.08968797 0 4470
0.06450000 0.06451750 30596.73046121 0 570.08641402 0 14894.47929374 0 746.54957570 0 -6577.52343817 0 4479
0.06550000 0.06550280 29177.16816381 0 400.98558887 0 14537.89731185 0 327.71936007 0 -5088.72988942 0 4636
0.06650000 0.06648880 28389.69318049 0 559.78712853 0 14090.14569105 0 393.82067564 0 -4270.52119935 0 4653
0.06750000 0.06749660 28776.44321807 0 -62.25477756 0 13211.61198078 0 1679.63977464 0 -4989.33058237 0 5220
0.06850000 0.06852730 28324.58785440 0 -483.01940886 0 11892.20319182 0 1260.47016838 0 -3192.70086232 0 5029
0.06950000 0.06949320 29040.19188150 0 417.21644648 0 11046.79888684 0 152.97422479 0 -5585.65987749 0 5040
0.07050000 0.07048030 28279.89033070 0 661.66088162 0 10954.66431379 0 -858.95442030 0 -3427.16876580 0 5475
0.07150000 0.07148790 27619.96411228 0 516.26416259 0 13847.58121379 0 -71.13882631 0 -3656.71217784 0 5509
0.07250000 0.07249820 27432.63379583 0 276.92278716 0 13178.56021388 0 -612.93503519 0 -3975.91682601 0 5916
0.07350000 0.07351270 26678.87605122 0 50.02240736 0 12224.16271648 0 1460.83264125 0 -4019.91560431 0 5721
0.07450000 0.07449140 27666.99078734 0 -399.47718608 0 12272.29851124 0 438.05791467 0 -3514.27902664 0 6028
0.07550000 0.07549160 27567.50275072 0 -106.52795206 0 12160.61015797 0 1286.23501889 0 -2673.81030429 0 6183
0.07650000 0.07648840 27745.07281386 0 607.76210093 0 13167.13628102 0 902.20343368 0 -1083.77963715 0 6330
0.07750000 0.07749960 26695.95649452 0 306.47749967 0 10741.45823485 0 31.55656265 0 -2266.34191081 0 6583
0.07850000 0.07848650 26739.87763444 0 384.05044025 0 12894.40374806 0 62.03750101 0 9.70708212 0 6549
0.07950000 0.07947320 25515.74222726 0 752.86933973 0 12549.80025888 0 800.95300586 0 1164.67550034 0 6828
0.08050000 0.08048110 24978.04099921 0 626.37978413 0 13069.53374788 0 234.58103369 0 1012.54420652 0 7147
0.08150000 0.08149960 23817.45815055 0 698.52469292 0 11449.55352162 0 726.58209384 0 -183.06353299 0 7386
0.08250000 0.08250610 23007.35712545 0 578.78745802 0 12790.81196857 0 174.59429500 0 2234.76527310 0 7227
0.08350000 0.08350160 22388.02468787 0 671.25476698 0 11992.91126011 0 1119.84488227 0 3006.36875359 0 7798
0.08450000 0.08449610 21268.59017988 0 -74.99235178 0 10882.15006814 0 1360.79004477 0 3155.57862613 0 7371
0.08550000 0.08548940 21963.67549263 0 -120.15426390 0 9535.87840017 0 1963.44132215 0 2667.39959246 0 8256
0.08650000 0.08650700 21395.58438494 0 119.71172514 0 9294.57831937 0 377.49221549 0 3801.72957794 0 8037
0.08750000 0.08749060 21263.15549338 0 383.61233797 0 8770.27525723 0 -750.70544720 0 2386.17120264 0 8155
0.08850000 0.08849210 21073.82876147 0 433.96193563 0 9389.59660362 0 -826.33410095 0 2326.66693101 0 8718
0.08950000 0.08949900 20432.20301802 0 121.91110950 0 9353.79421987 0 -274.55148926 0 773.09746472 0 8571
0.09050000 0.09049190 20707.15379036 0 51.61687783 0 9444.59784929 0 767.10267277 0 952.39997282 0 8932
0.09150000 0.09150830 20262.84044062 0 129.03054882 0 10096.68259147 0 -83.24575508 0 182.94596630 0 9285
0.09250000 0.09250820 20567.62653275 0 370.85080676 0 9382.49823758 0 363.88886243 0 815.37378013 0 9204
0.09350000 0.09350330 19800.33752788 0 -78.40300576 0 9245.58850245 0 601.14731107 0 1234.16184922 0 9349
0.09450000 0.09448040 19815.08881982 0 133.10878193 0 8775.38829902 0 254.46200422 0 -222.27313244 0 9564
0.09550000 0.09549270 19872.76304395 0 300.96073831 0 8996.30275984 0 209.39403454 0 263.38487217 0 10155
0.09650000 0.09649430 19268.95828209 0 438.88531796 0 9080.80658939 0 199.01045596 0 359.29488866 0 9913
0.09750000 0.09749140 18870.00792786 0 115.66898385 0 8145.57468032 0 826.61803559 0 646.48812420 0 10476
0.09850000 0.09850240 18609.69753548 0 55.67392676 0 7455.42495022 0 575.74625182 0 -15.29731157 0 10575
0.09950000 0.09950330 18322.65735846 0 497.11853842 0 7499.52354928 0 200.38132790 0 -67.50512837 0 10882
0.10050000 0.10051200 17513.44362912 0 541.16611798 0 7345.69973881 0 192.39344786 0 438.93522835 0 10875
0.10150000 0.10150300 16780.31551084 0 425.15552526 0 6560.74245719 0 -76.29545651 0 -263.05768186 0 11118
0.10250000 0.10250800 16357.74090712 0 395.78825398 0 6953.73683866 0 45.27482050 0 -11.25900676 0 11575
0.10350000 0.10349800 15915.97853267 0 148.29706704 0 6299.76659300 0 276.55788678 0 -1019.55606123 0 11364
0.10450000 0.10450100 15779.55681021 0 12.85114808 0 6788.47800413 0 254.24794412 0 -90.06706303 0 12093
0.10550000 0.10551000 15613.18885598 0 137.81366768 0 5950.05006203 0 162.04793301 0 -1375.84079903 0 12067
0.10650000 0.10649700 15711.78959685 0 -57.41047547 0 6291.33728332 0 424.76400600 0 -335.80262440 0 12054
0.10750000 0.10749900 15297.20065493 0 245.01341354 0 6074.23819425 0 38.22059742 0 -560.50694721 0 12807
0.10850000 0.10850100 15549.74720944 0 6.37781535 0 6204.13829291 0 606.77054793 0 73.10629374 0 12736
0.10950000 0.10950300 15386.48479036 0 -122.66420177 0 5360.98550091 0 904.17766673 0 -42.30870170 0 12933
0.11050000 0.11050200 15393.47224444 0 141.20646483 0 5343.55013931 0 339.22314954 0 116.51080570 0 13428
0.11150000 0.11150900 15452.25558826 0 27.11431644 0 4533.83730610 0 264.15349212 0 1175.25650222 0 13453
0.11250000 0.11250000 15158.89342898 0 77.36109871 0 4373.60278379 0 193.92181480 0 180.60239639 0 13668
0.11350000 0.11349100 15111.64492998 0 111.22030476 0 4346.96172872 0 -119.62188645 0 1276.88513986 0 13791
0.11450000 0.11448600 14912.66885673 0 151.94939819 0 4642.97468407 0 -139.91544950 0 -686.82237102 0 14205
0.11550000 0.11549300 14841.68519626 0 205.83154208 0 4218.63658003 0 -425.95630968 0 -63.56520248 0 14776
0.11650000 0.11649800 14510.72387933 0 0.82551224 0 4251.34451983 0 276.35935436 0 -1126.29995890 0 14553
0.11750000 0.11747300 14637.05261257 0 103.83512036 0 4160.06396895 0 65.16921138 0 -996.81799836 0 14568
0.11850000 0.11849100 14560.96700150 0 172.24961596 0 4026.34849854 0 330.62858103 0 -948.21970069 0 16015
0.11950000 0.11950300 14089.48021924 0 230.21886593 0 3585.41796386 0 141.65344006 0 -1891.07126207 0 15270
0.12050000 0.12050700 13694.85543182 0 407.96416999 0 4089.02485249 0 -455.60751560 0 -498.01137977 0 15999
0.12150000 0.12150000 13380.19817440 0 136.41284951 0 3878.19228970 0 325.00645329 0 -1590.72164871 0 15670
0.12250000 0.12250700 13192.53512203 0 41.89100723 0 4284.19664519 0 418.06492305 0 -312.20832113 0 16887
0.12350000 0.12352200 13175.23285479 0 -4.43086663 0 3808.12919858 0 313.10005337 0 -919.24283955 0 16407
0.12450000 0.12449800 13106.57834568 0 220.53070540 0 3674.08099227 0 13.19297877 0 66.20501826 0 16306
0.12550000 0.12549900 12894.84739594 0 353.95558645 0 4076.81344465 0 -465.09492547 0 -564.55523410 0 17523
0.12650000 0.12650100 12447.42851105 0 326.94519452 0 4652.11383036 0 -306.44311696 0 -1.56050923 0 17154
0.12750000 0.12750600 12168.04125993 0 35.61582982 0 4933.34222018 0 -127.98243071 0 -337.77131186 0 18007
0.12850000 0.12850300 12385.20689617 0 -119.49877416 0 4804.21850530 0 265.75949744 0 -51.67732485 0 17496
0.12950000 0.12949900 12492.23694672 0 -110.46388513 0 4823.41736722 0 402.70472439 0 -395.08285385 0 18405
0.13050000 0.13049000 12773.17696542 0 -68.10749128 0 3894.93999710 0 9.72741228 0 -894.13791526 0 18100
0.13150000 0.13148800 12863.68113252 0 -16.69624424 0 4996.86150510 0 -39.75018439 0 -662.06238295 0 19059
0.13250000 0.13249300 12689.21660452 0 153.76613625 0 4099.37293924 0 -206.12324056 0 -1110.16226734 0 18957
0.13350000 0.13349100 12653.50295035 0 218.99901110 0 4314.86380475 0 154.68670560 0 -1102.70454651 0 19468
0.13450000 0.13450700 12308.12307738 0 16.26679309 0 4201.27885681 0 94.68909753 0 -1098.51096494 0 19953
0.13550000 0.13551000 12178.24516112 0 191.87770720 0 4063.04926924 0 451.77772529 0 -783.95685565 0 19956
0.13650000 0.13649900 12056.68564257 0 56.26342388 0 3887.28707120 0 744.76722035 0 -204.14013455 0 19723
0.13750000 0.13749600 11884.10661805 0 -99.40740362 0 3211.74444748 0 441.72355526 0 -308.50940695 0 20946
0.13850000 0.13851100 12035.50145639 0 -34.38393057 0 2881.83679425 0 567.69737020 0 501.38975836 0 20955
0.13950000 0.13949800 12029.84494595 0 138.04658282 0 2736.14283114 0 -118.03251792 0 99.13799845 0 20506
0.14050000 0.14048300 11762.65801147 0 212.38533036 0 2750.68339034 0 -253.74884026 0 833.12080436 0 21447
0.14150000 0.14148400 11659.06623197 0 121.90223654 0 2598.22379709 0 195.88162930 0 375.54127395 0 21771
0.14250000 0.14249400 11553.47803702 0 0.70333384 0 3054.03871807 0 173.54174041 0 371.58615312 0 22470
0.14350000 0.14350900 11570.00392048 0 143.85837002 0 2872.50909762 0 -81.64751360 0 507.29803898 0 22519
0.14450000 0.14449900 11168.16985504 0 214.39949173 0 2906.17088036 0 70.03214668 0 189.10823533 0 22218
0.14550000 0.14550500 11109.71924713 0 177.55786282 0 3062.30165980 0 -213.39352016 0 633.93178013 0 23559
0.14650000 0.14650700 10931.42825618 0 32.36965829 0 2857.60252892 0 498.93860384 0 284.76869989 0 23044
0.14750000 0.14750500 10717.47906705 0 107.30466859 0 2886.22890825 0 314.14040764 0 1181.75594364 0 23649
0.14850000 0.14849900 10557.62164544 0 256.36081714 0 2565.90404918 0 -71.96600778 0 603.26018409 0 23640
0.14950000 0.14949500 10385.23117127 0 171.33902870 0 2734.53460758 0 203.38704228 0 1168.20250097 0 24457
0.15050000 0.15050000 10226.99306441 0 83.17854243 0 2638.41829483 0 19.29868269 0 1203.74978718 0 24591
0.15150000 0.15149900 9972.41682086 0 -5.19485046 0 2258.54479935 0 239.31364743 0 1304.96805053 0 25020
0.15250000 0.15250500 10070.16353956 0 24.89042054 0 2245.52373414 0 309.12385926 0 779.54255927 0 25297
0.15350000 0.15350100 10030.62342244 0 41.74338339 0 2064.95904782 0 -273.41464157 0 1140.54105578 0 25452
0.15450000 0.15450400 10062.03369220 0 134.80018947 0 2131.16240240 0 -89.57938310 0 395.74499831 0 26061
0.15550000 0.15549900 9819.72431247 0 221.27270648 0 2530.67840768 0 -572.49542200 0 252.22823716 0 26128
0.15650000 0.15649500 9542.45547996 0 206.39941137 0 2461.24751478 0 -365.18431424 0 -76.98987635 0 26331
0.15750000 0.15749700 9480.12295311 0 23.19224738 0 2742.80864051 0 339.39395397 0 22.25914498 0 27345
0.15850000 0.15849900 9439.06334201 0 -57.91623405 0 2502.66204418 0 166.79496531 0 -438.02353196 0 26980
0.15950000 0.15949700 9439.49589869 0 144.88097838 0 2638.37393004 0 -9.33516101 0 -884.75919912 0 27777
0.16050000 0.16050000 9262.71331054 0 135.86161702 0 2434.89483083 0 -164.24399001 0 -336.22298077 0 28224
0.16150000 0.16150500 9170.82274382 0 83.82870839 0 2498.13683583 0 81.15939002 0 -670.94754083 0 28075
0.16250000 0.16249700 9067.65242981 0 -24.95730046 0 2367.16089107 0 239.22159050 0 -809.18821959 0 28590
0.16350000 0.16349900 9039.19241844 0 163.77261414 0 2321.35424767 0 -157.78780426 0 -609.78069878 0 29163
0.16450000 0.16449100 8808.51770431 0 203.27391207 0 2245.80101406 0 45.56596442 0 -438.96517458 0 28996
0.16550000 0.16550500 8670.78722061 0 103.74383981 0 2509.47203911 0 77.84145845 0 -163.34893041 0 30777
0.16650000 0.16650700 8516.45321507 0 40.53000645 0 2347.07473340 0 146.48143810 0 -559.80709269 0 29211
0.16750000 0.16749900 8592.74955888 0 37.16726645 0 2321.22115331 0 144.36080124 0 -17.67714970 0 30922
0.16850000 0.16850800 8469.55963437 0 48.12459265 0 2160.07715285 0 113.07364377 0 -147.48408230 0 30867
0.16950000 0.16949900 8549.19442846 0 -71.08104118 0 1944.22027784 0 134.04598808 0 -212.41194923 0 30852
0.17050000 0.17049200 8552.97652662 0 14.26250289 0 1861.26921587 0 169.50121736 0 -365.42388409 0 31257
0.17150000 0.17149500 8533.89966787 0 55.93179709 0 1696.26547887 0 -81.70396779 0 -380.58887768 0 32608
0.17250000 0.17250900 8507.41388956 0 62.69898000 0 1690.13204695 0 13.28126470 0 -474.68991995 0 32361
0.17350000 0.17350400 8364.34854012 0 184.35787567 0 1640.47675822 0 65.62871967 0 -689.91459673 0 32508
0.17450000 0.17449800 8068.33558477 0 237.33054142 0 1838.41025896 0 -332.22016779 0 -587.65043351 0 32791
0.17550000 0.17549800 7859.18888392 0 174.18170247 0 2119.59428399 0 -164.81407753 0 -642.46201970 0 33633
0.17650000 0.17650100 7611.58900325 0 45.66789252 0 2085.64413013 0 131.93866066 0 -461.95500761 0 33984
0.17750000 0.17750300 7756.56203856 0 40.23398240 0 2225.12702295 0 54.93303481 0 -618.32202955 0 34069
0.17850000 0.17849800 7673.12296392 0 -11.95531210 0 2050.67358615 0 143.19289820 0 -392.96554435 0 34536
