### header ###
fiducial parameters:
Omega_m = 0.31
Omega_nu = 0
Omega_de = 0.69
Omega_k = 0
H_0 = 100
w_de = -1
zeff = 0
beta = 0
fgrowth = 0
b_1 = 2
gamma = 0.55
Lx = 3500 Ly = 3500 Lz = 3500
nx = 700 ny = 700 nz = 700
xoffset = 1379.75464 yoffset = 22.6059522 zoffset = 368.141391
bins = 400 dk = 0.001
kx_ny = 0.628318531 ky_ny = 0.628318531 kz_ny = 0.628318531
############################
A(data) = 3.32305914 (not used)
A(ran) = 3.32600566 (used)
Ngal = 185881
weighted Ngal = 0
Nran = 9399747
weighted Nran = 0
SN(data) = 6678.21094
SN(ran) = 132.293149
SN(data+ran) = 6810.50409
############################
13 columns: k_central k_mean P_0(k) sigma^{lin}_{P_0(k)} P^img_1(k) sigma^{lin}_{P_1(k)} P_2(k) sigma^{lin}_{P_2(k)} P^img_3(k) sigma^{lin}_{P_3(k)} P_4(k) sigma^{lin}_{P_4(k)} N_modes
### header ###
0.00050000 0 0 0 0 0 0 0 0 0 0 0 0
0.00150000 0.00179520 14295.44374656 0 -11673.48478800 0 -14341.02856602 0 -1588.07085264 0 -60900.76423496 0 3
0.00250000 0.00253879 31508.75958627 0 -14624.29773608 0 -21889.69720898 0 5446.23244065 0 47695.91788432 0 6
0.00350000 0.00331552 42003.80469852 0 -19208.40034675 0 -37784.15881957 0 1388.36276039 0 -5050.07706806 0 7
0.00450000 0.00420575 56127.11306845 0 -18738.90997993 0 -45838.80786731 0 -13035.04012537 0 -7127.70226279 0 24
0.00550000 0.00557378 77577.37705434 0 -10345.35831824 0 -57871.75834841 0 -38581.39405621 0 -16214.99720239 0 45
0.00650000 0.00659388 77216.58041762 0 1594.01573420 0 -38300.45403751 0 -35710.21590222 0 -34907.43506711 0 40
0.00750000 0.00754703 73124.26147963 0 13095.93079661 0 -9969.51092726 0 -55233.38441836 0 -22196.70154051 0 57
0.00850000 0.00846663 61461.86788858 0 7882.58021828 0 -4160.33015767 0 -13551.33534331 0 -26692.29639953 0 75
0.00950000 0.00948925 56849.59363766 0 -3162.55498901 0 22626.59633422 0 -4714.67927234 0 -9977.71841300 0 112
0.01050000 0.01054430 71580.81051232 0 -13226.69600863 0 -5920.13710386 0 13670.01115065 0 -27537.44560699 0 105
0.01150000 0.01145670 81972.26384508 0 -2744.47232005 0 8850.64207032 0 -9852.63189382 0 -32899.92841948 0 144
0.01250000 0.01249090 85310.60321452 0 7116.95489295 0 17217.64140651 0 -30766.98033437 0 -16286.20268680 0 169
0.01350000 0.01339930 78280.22620495 0 4988.38783063 0 38578.39943303 0 -9190.48743601 0 -21631.27232009 0 180
0.01450000 0.01448870 78594.10707859 0 751.19456899 0 56623.44413188 0 3812.15530307 0 1636.80557203 0 267
0.01550000 0.01550050 77453.15564852 0 -2423.54853635 0 23036.74879737 0 18941.21341227 0 -41855.51539532 0 238
0.01650000 0.01653350 87798.24777804 0 -5017.49113142 0 48477.62544523 0 24827.86619254 0 25881.30807868 0 315
0.01750000 0.01747870 86099.07640557 0 -2776.58133521 0 2994.40135208 0 5410.46333049 0 -12321.21068978 0 297
0.01850000 0.01844180 94486.57227373 0 3986.23163918 0 42693.23350082 0 3699.08055019 0 28342.44468149 0 388
0.01950000 0.01947590 84985.29840803 0 5094.29767029 0 20838.91721011 0 -13375.42895971 0 -7805.19693718 0 399
0.02050000 0.02045430 78351.65351330 0 7003.66940732 0 39871.85482113 0 -6702.24394786 0 11683.24504132 0 462
0.02150000 0.02154770 76479.01582056 0 -26.20439465 0 41700.68228593 0 3714.54167873 0 2965.16495693 0 571
0.02250000 0.02255340 70844.24412299 0 440.36932011 0 38140.40806555 0 4420.95110356 0 -12704.96610419 0 510
0.02350000 0.02348930 77290.33687732 0 536.71300240 0 30822.76905502 0 7014.98242821 0 -1510.85393948 0 555
0.02450000 0.02439640 74278.63325800 0 -1219.33291890 0 28393.13145154 0 3052.40831212 0 -19009.97883335 0 592
0.02550000 0.02547300 71598.88916334 0 3405.36347260 0 30830.31106894 0 -1659.40943141 0 3864.86067097 0 837
0.02650000 0.02652900 70852.89525661 0 1870.21981180 0 25757.08667286 0 -542.19870841 0 -14084.48918061 0 723
0.02750000 0.02749970 66678.39054923 0 1720.64392976 0 34056.07478936 0 4355.39103840 0 -391.81982371 0 826
0.02850000 0.02848090 67926.92658969 0 2387.11395438 0 29323.46105156 0 3397.89909706 0 -3733.78490544 0 831
0.02950000 0.02946900 62912.59644940 0 3.81984150 0 27367.19573383 0 3900.86269627 0 2594.95189399 0 996
0.03050000 0.03053250 63257.53267449 0 2037.17559946 0 25835.05778740 0 5971.27861298 0 7720.49346608 0 1041
0.03150000 0.03150510 59799.63020195 0 1470.27124985 0 26699.17294164 0 2101.16071466 0 2148.86395273 0 1036
0.03250000 0.03246190 56267.19488591 0 4000.14000015 0 27861.97402969 0 -1275.34346349 0 14461.81170079 0 1059
0.03350000 0.03345080 53557.72638342 0 2067.08855763 0 28561.93946909 0 -909.76873911 0 2571.07254696 0 1302
0.03450000 0.03451200 50344.49571556 0 1688.24654347 0 31006.55018845 0 3475.08273662 0 7148.78662819 0 1339
0.03550000 0.03553350 50806.55498042 0 643.28720476 0 30619.80015087 0 542.22310905 0 3343.38586406 0 1365
0.03650000 0.03647120 50618.44828018 0 -742.02769471 0 26680.76155471 0 3784.79332020 0 6935.07035419 0 1308
0.03750000 0.03744890 49856.70487377 0 1290.69368006 0 31471.60407649 0 4545.17250938 0 7872.79778258 0 1579
0.03850000 0.03847530 49691.00239137 0 283.02072725 0 23735.16146920 0 2696.34761649 0 11565.90017761 0 1662
0.03950000 0.03950240 49905.39522837 0 3.49002258 0 23838.64233672 0 6127.57576038 0 9256.90152333 0 1683
0.04050000 0.04050350 47940.14604112 0 1211.21416273 0 25652.60759761 0 3562.85846927 0 10255.44198458 0 1822
0.04150000 0.04152450 47080.24554172 0 1936.51189596 0 18310.23521788 0 -956.93849062 0 12395.29988539 0 1887
0.04250000 0.04250150 43606.26083360 0 512.24027634 0 22358.85483989 0 3727.00818410 0 14850.22541791 0 1920
0.04350000 0.04349210 43874.22415187 0 -413.87910532 0 16863.94313583 0 3657.93220951 0 13048.90412155 0 2005
0.04450000 0.04448520 44991.88406834 0 -411.71854015 0 14888.15731148 0 5691.49207877 0 12284.16609197 0 2151
0.04550000 0.04548030 42791.39059382 0 -11.23471704 0 9527.18290177 0 3660.49427600 0 14937.84587381 0 2274
0.04650000 0.04648670 43263.54284790 0 318.72994494 0 8178.14952576 0 1011.88538942 0 11932.46423675 0 2311
0.04750000 0.04749250 43484.14675520 0 632.12169679 0 9150.35948545 0 -2352.12122801 0 10323.65284581 0 2568
0.04850000 0.04851840 40306.62974151 0 1773.28275048 0 8846.20559154 0 -1352.24982312 0 6439.34930659 0 2493
0.04950000 0.04949480 39489.65217430 0 1556.30566458 0 11917.15838496 0 -2573.32405994 0 5090.83721684 0 2644
0.05050000 0.05050630 37375.67003597 0 1231.92142743 0 11620.46886659 0 -1082.48973095 0 1881.01154643 0 2829
0.05150000 0.05149060 36864.58768059 0 718.09954641 0 15400.01605064 0 -1922.94736210 0 -1980.59940383 0 2784
0.05250000 0.05249300 35239.94915162 0 932.60773187 0 15003.39484777 0 -1400.85144815 0 -2324.19359409 0 3055
0.05350000 0.05348950 34996.27555467 0 674.63203645 0 14547.76847714 0 264.39084373 0 -5072.30382674 0 3009
0.05450000 0.05448610 35063.71003211 0 -548.09700695 0 13768.94462743 0 2661.14415738 0 -3064.25371046 0 3336
0.05550000 0.05550870 35328.12416736 0 -686.61829299 0 12880.42883991 0 1974.03341524 0 -4101.10316597 0 3349
0.05650000 0.05647670 34939.71045023 0 212.40085804 0 9979.23790698 0 2247.89725028 0 -3082.47654705 0 3324
0.05750000 0.05747970 35486.39554781 0 1424.25387371 0 10471.78687226 0 -1836.80203540 0 -3307.87185143 0 3639
0.05850000 0.05849280 32598.13695052 0 1521.00238469 0 14875.84608286 0 -3183.33989209 0 -3752.08538040 0 3846
0.05950000 0.05951020 31896.95147945 0 725.44746439 0 14875.95699483 0 403.98686676 0 -1657.77902546 0 3787
0.06050000 0.06049470 30508.66635745 0 -220.56619723 0 15426.63492331 0 1961.89964578 0 -1259.46086946 0 3930
0.06150000 0.06148310 32160.58923091 0 -347.91088411 0 12977.69863715 0 2534.24977309 0 -2424.99039196 0 4083
0.06250000 0.06249100 32864.76932516 0 -561.43638952 0 12718.49736447 0 1943.71008278 0 -1272.23792834 0 4303
0.06350000 0.06350600 32179.11152982 0 303.74906522 0 10129.39053127 0 239.11400589 0 309.47988669 0 4470
0.06450000 0.06451750 31376.55251864 0 837.75248821 0 12038.27425563 0 -1194.62173210 0 447.11942257 0 4479
0.06550000 0.06550280 31175.80185388 0 208.40248154 0 11932.46423675 0 159.90178640 0 211.11760655 0 4636
0.06650000 0.06648880 30909.83495106 0 319.87122911 0 11774.30376826 0 1247.99257181 0 -1478.57855636 0 4653
0.06750000 0.06749660 30330.43082249 0 757.24148956 0 11682.13592162 0 -759.21239526 0 388.08985418 0 5220
0.06850000 0.06852730 29675.93929057 0 95.29567509 0 10205.69796627 0 1583.29054675 0 1092.65037647 0 5029
0.06950000 0.06949320 29902.75426816 0 -158.85699565 0 10962.55015482 0 1881.55501508 0 -663.14599289 0 5040
0.07050000 0.07048030 29146.66737220 0 685.32173207 0 8516.96341013 0 -183.14893521 0 936.05376676 0 5475
0.07150000 0.07148790 29052.50311011 0 222.67463377 0 10922.76603137 0 654.42276649 0 438.58141916 0 5509
0.07250000 0.07249820 27718.34302921 0 686.38981434 0 10101.32980299 0 -1022.94109453 0 1744.61200636 0 5916
0.07350000 0.07351270 28596.21126766 0 63.94274682 0 9399.55649848 0 283.91024124 0 -670.27985077 0 5721
0.07450000 0.07449140 26982.88575957 0 -59.66664675 0 10050.49884737 0 1209.90540149 0 677.08097274 0 6028
0.07550000 0.07549160 27964.78942540 0 140.66965089 0 9063.37122779 0 735.93197287 0 1228.51642997 0 6183
0.07650000 0.07648840 27849.10824123 0 118.50056643 0 8631.71293376 0 1218.62308229 0 172.09323009 0 6330
0.07750000 0.07749960 26688.41448060 0 781.61883134 0 8486.11879142 0 161.86825562 0 1163.99893732 0 6583
0.07850000 0.07848650 26026.27002279 0 1073.67333850 0 10174.56497644 0 -1034.05003740 0 1830.13622603 0 6549
0.07950000 0.07947320 24332.08968895 0 835.03958144 0 9896.37557458 0 -638.63666588 0 2080.43126756 0 6828
0.08050000 0.08048110 23872.24866348 0 339.82983801 0 11668.49374938 0 352.94850577 0 229.72974415 0 7147
0.08150000 0.08149960 23517.88492098 0 427.41147472 0 10176.00683204 0 -112.62555941 0 1604.08654103 0 7386
0.08250000 0.08250610 22272.12167976 0 361.44768999 0 10761.22274782 0 745.99723410 0 32.21826346 0 7227
0.08350000 0.08350160 22735.06824038 0 395.73501623 0 10099.18920198 0 270.44663727 0 2188.62589379 0 7798
0.08450000 0.08449610 21686.50648089 0 164.84624200 0 9406.51067897 0 1004.49976137 0 527.53503693 0 7371
0.08550000 0.08548940 21604.76435938 0 137.18590593 0 9500.28674917 0 890.59316871 0 1395.02856975 0 8256
0.08650000 0.08650700 21434.18175032 0 -52.26637832 0 8318.77481186 0 1177.50801520 0 1528.30039228 0 8037
0.08750000 0.08749060 21467.67716510 0 -14.11266082 0 7728.72313422 0 7.92298545 0 670.08797306 0 8155
0.08850000 0.08849210 21166.10752008 0 385.27047191 0 7847.70949508 0 -283.67621699 0 1256.31096952 0 8718
0.08950000 0.08949900 21089.02370129 0 402.18011078 0 7727.23691383 0 -99.28706414 0 354.27168556 0 8571
0.09050000 0.09049190 20077.28471567 0 117.54783262 0 7365.39770459 0 59.28743873 0 790.30656590 0 8932
0.09150000 0.09150830 20499.74840743 0 -36.30414950 0 7093.58574098 0 1132.69957953 0 712.97097694 0 9285
0.09250000 0.09250820 20483.11161201 0 -114.81607081 0 6321.48315662 0 1246.29561868 0 462.67482629 0 9204
0.09350000 0.09350330 20163.79605187 0 213.42457552 0 6349.65479687 0 477.97402336 0 1718.50332875 0 9349
0.09450000 0.09448040 19954.17242955 0 470.67490665 0 5334.75482013 0 213.88264195 0 252.66855768 0 9564
0.09550000 0.09549270 19259.19802877 0 537.12337669 0 6966.55826233 0 -292.83200007 0 2372.83958391 0 10155
0.09650000 0.09649430 18469.28298212 0 393.97373416 0 5805.69813374 0 -81.05391274 0 1061.07373876 0 9913
0.09750000 0.09749140 18054.80495216 0 472.64692147 0 7003.51413056 0 0.37839282 0 1833.36376434 0 10476
0.09850000 0.09850240 17571.89423704 0 490.56142278 0 6492.14340407 0 -223.20701122 0 1356.37574839 0 10575
0.09950000 0.09950330 17341.19734052 0 -21.74085335 0 6693.78136459 0 298.72586212 0 1701.82216854 0 10882
0.10050000 0.10051200 17033.74936111 0 245.78646997 0 7401.41082108 0 -12.82175641 0 926.64843175 0 10875
0.10150000 0.10150300 16913.52078619 0 191.41298605 0 6258.60716112 0 133.53912038 0 563.99291042 0 11118
0.10250000 0.10250800 16584.66679668 0 179.34021817 0 7437.27975201 0 -294.97481932 0 1147.55069225 0 11575
0.10350000 0.10349800 16368.83210406 0 214.09226557 0 6920.64070696 0 241.29564433 0 812.93371680 0 11364
0.10450000 0.10450100 16504.36653077 0 3.97029359 0 7190.48952871 0 604.22068175 0 851.70521397 0 12093
0.10550000 0.10551000 16208.56430816 0 -32.67045155 0 6823.13799459 0 388.28505924 0 630.12860870 0 12067
0.10650000 0.10649700 16512.57401651 0 128.70890411 0 6672.50844884 0 223.02955207 0 2000.67447031 0 12054
0.10750000 0.10749900 15849.09861507 0 438.98513873 0 6869.59901861 0 -206.67780041 0 1300.02137670 0 12807
0.10850000 0.10850100 15628.49470777 0 402.73023415 0 7037.41991963 0 182.64539486 0 1818.15773333 0 12736
0.10950000 0.10950300 15102.21741258 0 122.72520335 0 7003.07048268 0 356.57421805 0 1735.67250162 0 12933
0.11050000 0.11050200 14745.85725463 0 338.65638938 0 7124.47472448 0 377.25042740 0 2412.49061300 0 13428
0.11150000 0.11150900 14775.35983851 0 -31.46128926 0 6622.29860025 0 546.74831740 0 2957.36784547 0 13453
0.11250000 0.11250000 14723.45303680 0 -11.39864493 0 6775.76749243 0 458.84392687 0 2392.44882011 0 13668
0.11350000 0.11349100 14663.78239721 0 -68.61857363 0 5910.06629703 0 426.51419688 0 3168.13386108 0 13791
0.11450000 0.11448600 14678.31186522 0 -131.15562215 0 5326.14805129 0 804.66522947 0 2568.97631074 0 14205
0.11550000 0.11549300 14752.62288477 0 74.84528251 0 5242.88643580 0 566.84556627 0 3115.50613156 0 14776
0.11650000 0.11649800 14541.89014275 0 360.63137789 0 4377.54015871 0 -154.29851370 0 2490.16226522 0 14553
0.11750000 0.11747300 14300.21296125 0 246.33770246 0 5288.74853518 0 51.97434711 0 2848.15282912 0 14568
0.11850000 0.11849100 13797.33809162 0 257.27140441 0 4500.58589765 0 -27.08559024 0 2610.82339682 0 16015
0.11950000 0.11950300 13602.90940912 0 -20.78579038 0 4602.95764548 0 380.52233050 0 2084.05808896 0 15270
0.12050000 0.12050700 13536.36222743 0 -37.04260139 0 3749.39021954 0 277.97090528 0 2252.10081393 0 15999
0.12150000 0.12150000 13588.04720521 0 -115.70558480 0 3541.15299684 0 567.68627900 0 1091.62887723 0 15670
0.12250000 0.12250700 13599.58205003 0 -5.47221912 0 2598.11288512 0 256.05802746 0 656.16630265 0 16887
0.12350000 0.12352200 13565.08842752 0 90.33081169 0 2515.58328863 0 -318.42050055 0 -326.38952555 0 16407
0.12450000 0.12449800 13466.59859862 0 218.55425410 0 2179.34256195 0 -144.59260725 0 392.33223701 0 16306
0.12550000 0.12549900 13054.56063200 0 118.02697232 0 2409.10779793 0 82.05123317 0 -755.60110153 0 17523
0.12650000 0.12650100 13042.47122732 0 92.55115841 0 2243.53840988 0 253.22977224 0 -557.76853069 0 17154
0.12750000 0.12750600 12781.82809904 0 41.97807312 0 1837.72260474 0 209.90422960 0 -927.85515398 0 18007
0.12850000 0.12850300 12724.48661082 0 123.64244534 0 1842.85782893 0 97.85119778 0 -157.86100616 0 17496
0.12950000 0.12949900 12610.46910619 0 251.76351601 0 1854.00448186 0 -97.29209054 0 -452.15593511 0 18405
0.13050000 0.13049000 12160.16651009 0 226.14506930 0 2261.78342886 0 26.21825864 0 -327.40215183 0 18100
0.13150000 0.13148800 12078.20256464 0 182.84725465 0 1923.30228040 0 -20.57417034 0 249.24914166 0 19059
0.13250000 0.13249300 11952.87203913 0 30.95309062 0 1831.41171368 0 411.12294288 0 -27.70403539 0 18957
0.13350000 0.13349100 11821.88500317 0 133.43264489 0 1938.98523288 0 -18.15495846 0 781.37038852 0 19468
0.13450000 0.13450700 11786.61499688 0 -9.76848298 0 1886.02476745 0 179.55760563 0 577.75819495 0 19953
0.13550000 0.13551000 11717.07319201 0 -9.56593554 0 1766.97185941 0 247.78732190 0 746.84571066 0 19956
0.13650000 0.13649900 11780.62575052 0 38.59270708 0 1406.64105296 0 -89.24453986 0 862.22632340 0 19723
0.13750000 0.13749600 11797.59528185 0 67.70909548 0 1976.95040004 0 -169.80400704 0 127.74064261 0 20946
0.13850000 0.13851100 11579.54234985 0 338.39796449 0 1999.18824992 0 -470.32331571 0 -128.23863735 0 20955
0.13950000 0.13949800 11204.77080497 0 190.43252424 0 2489.11969271 0 -528.96469221 0 -740.03682486 0 20506
0.14050000 0.14048300 11042.49550242 0 177.09203255 0 2872.57564480 0 -34.15523009 0 -38.27982441 0 21447
0.14150000 0.14148400 10728.41498724 0 118.63476992 0 2724.59689512 0 331.78206551 0 -560.77646330 0 21771
0.14250000 0.14249400 10650.11113679 0 161.70521503 0 2569.25359066 0 139.62929662 0 -43.83573770 0 22470
0.14350000 0.14350900 10579.47130343 0 86.14321937 0 2670.20566528 0 242.33599860 0 40.26514866 0 22519
0.14450000 0.14449900 10337.13974130 0 122.00205731 0 2796.17948022 0 236.65619664 0 -75.47315517 0 22218
0.14550000 0.14550500 10256.51783069 0 137.30679998 0 2609.34826763 0 -181.04937162 0 517.54630496 0 23559
0.14650000 0.14650700 10152.91495999 0 -50.28759788 0 2343.99138064 0 249.82921126 0 151.66768179 0 23044
0.14750000 0.14750500 10359.43304717 0 -50.40494274 0 2603.59193641 0 153.11064651 0 745.97837906 0 23649
0.14850000 0.14849900 10311.36379960 0 92.07201870 0 2465.24034568 0 -322.07615906 0 -275.02064689 0 23640
0.14950000 0.14949500 10286.73025117 0 226.35691116 0 2768.29621109 0 -362.21187346 0 149.58031852 0 24457
0.15050000 0.15050000 9892.79311797 0 305.62569575 0 3268.79756458 0 -682.24836140 0 -297.78089214 0 24591
0.15150000 0.15149900 9788.41386349 0 76.11278450 0 3686.24803532 0 -53.08513048 0 -244.68289587 0 25020
0.15250000 0.15250500 9772.50908706 0 -117.19624167 0 3360.52176334 0 481.18603400 0 -310.73873754 0 25297
0.15350000 0.15350100 9896.96340802 0 -208.71858065 0 3117.95728608 0 766.10335592 0 -68.05059344 0 25452
0.15450000 0.15450400 10176.60575668 0 -61.14122138 0 2590.51541521 0 605.23885363 0 392.09266715 0 26061
0.15550000 0.15549900 10129.77872316 0 136.13556958 0 2344.09120142 0 96.24430517 0 375.46585381 0 26128
0.15650000 0.15649500 9922.81698811 0 242.88944933 0 2481.84386751 0 -258.56241974 0 697.91024061 0 26331
0.15750000 0.15749700 9541.97855849 0 207.50631282 0 2434.06299106 0 -250.47139156 0 481.46109568 0 27345
0.15850000 0.15849900 9349.89011855 0 172.17419583 0 2825.83734086 0 -140.48664614 0 673.94549136 0 26980
0.15950000 0.15949700 9313.18934785 0 184.31351089 0 2950.65767132 0 -255.49015818 0 -100.22005562 0 27777
0.16050000 0.16050000 9098.36395416 0 47.06782340 0 3003.55158956 0 157.94751750 0 246.33437510 0 28224
0.16150000 0.16150500 8972.45668640 0 -48.19335807 0 2953.16428183 0 306.79470790 0 45.69074039 0 28075
0.16250000 0.16249700 9074.05205045 0 -78.98729001 0 2238.28118253 0 573.18529445 0 540.77459872 0 28590
0.16350000 0.16349900 9314.77538901 0 -149.93301859 0 1969.26420055 0 537.27421697 0 472.35633211 0 29163
0.16450000 0.16449100 9370.22028255 0 72.51202741 0 1812.78959401 0 -194.22682272 0 145.81929364 0 28996
0.16550000 0.16550500 9169.25888505 0 241.18695060 0 2086.19868998 0 -459.73676822 0 218.82820667 0 30777
0.16650000 0.16650700 8998.36572247 0 133.57128485 0 2055.44280084 0 -300.95630183 0 -299.86049157 0 29211
0.16750000 0.16749900 8862.21018874 0 107.92278099 0 2411.35931091 0 -212.15574258 0 -50.10758775 0 30922
0.16850000 0.16850800 8762.96615844 0 153.31250630 0 2442.07083526 0 -8.19714875 0 -1014.24559613 0 30867
0.16950000 0.16949900 8558.75504023 0 122.22942685 0 2514.75144886 0 70.39715797 0 -471.20284763 0 30852
0.17050000 0.17049200 8294.14126344 0 249.93457763 0 2624.26592753 0 -387.31679775 0 -1065.51243578 0 31257
0.17150000 0.17149500 8252.10562701 0 168.45753573 0 2583.56123473 0 -2.09400689 0 -662.95300607 0 32608
0.17250000 0.17250900 7955.08337273 0 54.16130932 0 2933.28885690 0 139.58493183 0 -689.06501104 0 32361
0.17350000 0.17350400 7903.84204283 0 59.59144844 0 2458.28616519 0 247.42463976 0 -565.17745025 0 32508
0.17450000 0.17449800 7871.85503083 0 -33.23111156 0 2433.33097206 0 476.40794635 0 -497.12186578 0 32791
0.17550000 0.17549800 7898.91755139 0 -21.27857226 0 2072.71179449 0 195.01873418 0 -577.84914276 0 33633
0.17650000 0.17650100 7792.76370540 0 115.65123794 0 2033.97024355 0 223.18926531 0 -10.10332622 0 33984
0.17750000 0.17750300 7710.81085115 0 54.13790690 0 1707.13485188 0 185.43594002 0 95.00896765 0 34069
0.17850000 0.17849800 7650.03109187 0 22.27300898 0 1776.59901836 0 221.21725049 0 628.73777260 0 34536
