### header ###
fiducial parameters:
Omega_m = 0.31
Omega_nu = 0
Omega_de = 0.69
Omega_k = 0
H_0 = 100
w_de = -1
zeff = 0
beta = 0
fgrowth = 0
b_1 = 2
gamma = 0.55
Lx = 3500 Ly = 3500 Lz = 3500
nx = 700 ny = 700 nz = 700
xoffset = 1379.75464 yoffset = 22.6059522 zoffset = 368.141391
bins = 400 dk = 0.001
kx_ny = 0.628318531 ky_ny = 0.628318531 kz_ny = 0.628318531
############################
A(data) = 3.36258862 (not used)
A(ran) = 3.35929271 (used)
Ngal = 188992
weighted Ngal = 0
Nran = 9399747
weighted Nran = 0
SN(data) = 6626.96852
SN(ran) = 133.617154
SN(data+ran) = 6760.58567
############################
13 columns: k_central k_mean P_0(k) sigma^{lin}_{P_0(k)} P^img_1(k) sigma^{lin}_{P_1(k)} P_2(k) sigma^{lin}_{P_2(k)} P^img_3(k) sigma^{lin}_{P_3(k)} P_4(k) sigma^{lin}_{P_4(k)} N_modes
### header ###
0.00050000 0 0 0 0 0 0 0 0 0 0 0 0
0.00150000 0.00179520 13523.38552700 0 -22076.25114165 0 -26679.65243501 0 27306.19415062 0 5983.65638878 0 3
0.00250000 0.00253879 32536.24807155 0 -26269.94361974 0 -8366.67769148 0 -35874.69835296 0 -9200.38078369 0 6
0.00350000 0.00331552 46228.77435201 0 -14374.96762868 0 -10826.22825313 0 -43783.94180871 0 4496.55979316 0 7
0.00450000 0.00420575 59481.31284953 0 3383.74672975 0 6711.99310997 0 -47742.16817559 0 5225.02960872 0 24
0.00550000 0.00557378 50327.30436029 0 7731.09665036 0 30707.19878282 0 -13324.85310163 0 37459.74130884 0 45
0.00650000 0.00659388 58013.94749328 0 2318.58144844 0 35912.40842259 0 52180.31063442 0 -297.91398651 0 40
0.00750000 0.00754703 62195.66147867 0 -14963.68836269 0 10462.50354041 0 31945.64183406 0 12663.04137972 0 57
0.00850000 0.00846663 89252.08187401 0 -16862.16854432 0 2942.56109755 0 48425.94046745 0 5697.69205786 0 75
0.00950000 0.00948925 100365.12848022 0 -18492.90723162 0 -24272.30813740 0 15735.19202241 0 43126.45565362 0 112
0.01050000 0.01054430 119664.03299407 0 -3505.56134583 0 -32270.94664055 0 -21903.00664532 0 -4583.17095013 0 105
0.01150000 0.01145670 107881.63265203 0 13100.70001130 0 -20914.11552542 0 -33498.52031878 0 -7258.83348431 0 144
0.01250000 0.01249090 103037.55238490 0 12135.21131696 0 13893.16603325 0 -32535.58259973 0 9811.25063800 0 169
0.01350000 0.01339930 82381.86174837 0 10919.15030116 0 28055.51541644 0 5711.09022378 0 18704.41635742 0 180
0.01450000 0.01448870 80352.39453079 0 4077.82274357 0 41463.77431911 0 400.99557094 0 4369.24394339 0 267
0.01550000 0.01550050 77157.57524985 0 -991.66170090 0 25255.09909898 0 20766.15895813 0 -6076.72262237 0 238
0.01650000 0.01653350 74728.93585410 0 2946.17682775 0 38647.94123790 0 7769.77165412 0 36033.19155736 0 315
0.01750000 0.01747870 74947.21061004 0 33.33636702 0 29587.76427483 0 20982.32638665 0 43715.28729960 0 297
0.01850000 0.01844180 74657.50854575 0 -1685.11882593 0 39532.35328255 0 10562.70141364 0 45414.34776010 0 388
0.01950000 0.01947590 74690.44940069 0 5891.44417735 0 32390.39883168 0 5000.87651839 0 42669.83107526 0 399
0.02050000 0.02045430 70367.21174224 0 4920.83135002 0 38063.32424676 0 -8724.03605715 0 46352.99575783 0 462
0.02150000 0.02154770 62420.03639293 0 2589.12901559 0 43335.52471610 0 2249.66075060 0 42855.27588824 0 571
0.02250000 0.02255340 69414.81066030 0 -608.95773196 0 53986.95570532 0 6365.18247260 0 26412.24367659 0 510
0.02350000 0.02348930 64615.09518096 0 -2714.47063230 0 39115.10245336 0 5519.73380283 0 25443.31671119 0 555
0.02450000 0.02439640 68782.27969834 0 542.47155186 0 44344.71272641 0 7440.11909843 0 20373.75241010 0 592
0.02550000 0.02547300 69029.72430226 0 2473.22600748 0 38072.19720432 0 -1507.80386032 0 21282.45417607 0 837
0.02650000 0.02652900 63541.02366849 0 3346.54685519 0 38547.89864143 0 444.38876989 0 4600.07393428 0 723
0.02750000 0.02749970 60825.12227178 0 1973.76722651 0 36216.52904291 0 5952.75631408 0 8627.06572224 0 826
0.02850000 0.02848090 58935.18231180 0 1740.56371948 0 30955.19794658 0 4045.36990130 0 3249.85380019 0 831
0.02950000 0.02946900 56613.12931872 0 -157.66580110 0 29213.76911374 0 6624.70538999 0 7602.26130661 0 996
0.03050000 0.03053250 54808.36975131 0 2025.56311626 0 23933.80480654 0 3458.41266761 0 3783.28491742 0 1041
0.03150000 0.03150510 52628.39499113 0 1385.78960270 0 18174.58987920 0 538.74158232 0 3116.73725442 0 1036
0.03250000 0.03246190 50972.36837479 0 -1911.02432538 0 14725.89310012 0 6920.00850874 0 7645.43933633 0 1059
0.03350000 0.03345080 55667.60477889 0 -4185.07461806 0 11168.50259095 0 7172.14468896 0 -319.00611574 0 1302
0.03450000 0.03451200 57476.13535326 0 -1047.10437621 0 1475.29556207 0 3268.46482867 0 -3629.63856609 0 1339
0.03550000 0.03553350 58726.55689720 0 1105.68475113 0 5772.57981966 0 -6913.33160818 0 -9752.56711495 0 1365
0.03650000 0.03647120 56277.84243498 0 3297.05793440 0 9459.54878278 0 -10085.95740402 0 -6537.20693727 0 1308
0.03750000 0.03744890 52984.42241317 0 2749.82936818 0 18878.54814951 0 -5537.10261725 0 -10740.54875670 0 1579
0.03850000 0.03847530 50936.65472062 0 1826.91977892 0 20228.56864205 0 -680.90410833 0 -12104.82143732 0 1662
0.03950000 0.03950240 53245.84192524 0 -928.57830002 0 18501.00380539 0 5508.12131962 0 -6365.11592542 0 1683
0.04050000 0.04050350 49757.99322093 0 170.90536289 0 19914.24412053 0 2907.31327364 0 -8705.95740613 0 1822
0.04150000 0.04152450 50297.35812853 0 3406.68332504 0 21030.79491731 0 -1500.02893126 0 2758.60250496 0 1887
0.04250000 0.04250150 45576.94470736 0 2536.81183959 0 19230.47182868 0 916.40792961 0 130.67648244 0 1920
0.04350000 0.04349210 44305.44988922 0 728.22137275 0 22942.47362331 0 2322.24154343 0 4773.29624821 0 2005
0.04450000 0.04448520 42828.54610359 0 197.98230200 0 21358.76161107 0 5463.70107585 0 4167.33979414 0 2151
0.04550000 0.04548030 41900.76747887 0 938.06460077 0 18627.55436257 0 2274.90431485 0 9343.40176833 0 2274
0.04650000 0.04648670 40693.15795515 0 267.36217539 0 16178.95081231 0 3737.71118916 0 9622.02372687 0 2311
0.04750000 0.04749250 41477.08375545 0 -160.39201731 0 13786.13598270 0 2331.20323056 0 8109.20664553 0 2568
0.04850000 0.04851840 40420.75815810 0 511.34965322 0 12702.96968874 0 1650.65847702 0 13984.89023201 0 2493
0.04950000 0.04949480 40783.32938634 0 401.75531794 0 13315.64740816 0 1036.48122777 0 11483.82532019 0 2644
0.05050000 0.05050630 38826.62042073 0 1185.26076187 0 13144.62115122 0 -995.34176005 0 10906.87234614 0 2829
0.05150000 0.05149060 36511.99852961 0 2485.52614490 0 14953.59537347 0 -846.78183165 0 9052.87895547 0 2784
0.05250000 0.05249300 34089.34838021 0 1869.01087134 0 17092.08905706 0 -1515.55660699 0 13480.12985890 0 3055
0.05350000 0.05348950 33318.95384019 0 193.25634298 0 21345.23035079 0 2678.81243412 0 10950.41638536 0 3009
0.05450000 0.05448610 32823.51007251 0 546.29246921 0 18115.58471144 0 2932.72320585 0 11773.41647251 0 3336
0.05550000 0.05550870 31846.48653334 0 528.25818297 0 14643.70733074 0 -62.52085537 0 11264.88509243 0 3349
0.05650000 0.05647670 31368.23412093 0 582.84129051 0 18394.63922666 0 291.48774700 0 12092.51020871 0 3324
0.05750000 0.05747970 30796.03927037 0 396.63118495 0 15511.81531588 0 598.74606693 0 10799.53174208 0 3639
0.05850000 0.05849280 30039.06507866 0 -230.89431983 0 16027.77779791 0 2063.26209469 0 9145.98955385 0 3846
0.05950000 0.05951020 31209.63000457 0 375.80746268 0 14940.72958501 0 -1302.27288968 0 5672.71468233 0 3787
0.06050000 0.06049470 30186.13435019 0 209.33636032 0 15608.75237720 0 755.73530502 0 3365.02478930 0 3930
0.06150000 0.06148310 29559.25989868 0 657.79670861 0 14175.88064346 0 -1752.49784739 0 1555.28527446 0 4083
0.06250000 0.06249100 29224.30575084 0 254.14812335 0 13742.65849066 0 178.78898569 0 -517.19360489 0 4303
0.06350000 0.06350600 29630.79811899 0 -777.71362089 0 11636.99475004 0 2471.10758887 0 -260.38359427 0 4470
0.06450000 0.06451750 29784.74393263 0 -432.49567940 0 11124.47053907 0 1932.10869077 0 -1426.17265078 0 4479
0.06550000 0.06550280 30323.55428038 0 293.02055041 0 10016.10504564 0 827.27796181 0 -1731.60203234 0 4636
0.06650000 0.06648880 28821.14074177 0 934.69842249 0 9396.26241299 0 449.76689129 0 -345.67933529 0 4653
0.06750000 0.06749660 28410.98827863 0 596.31598568 0 9176.46816307 0 562.96586558 0 1998.28986296 0 5220
0.06850000 0.06852730 27934.51045773 0 -72.84354328 0 9466.93551994 0 1521.25748222 0 3091.22750144 0 5029
0.06950000 0.06949320 27843.22990685 0 88.05900182 0 8403.95520443 0 1378.18104159 0 2700.24062662 0 5040
0.07050000 0.07048030 27622.29326364 0 357.69110158 0 9159.39881096 0 26.41279824 0 5133.82669621 0 5475
0.07150000 0.07148790 26576.83703930 0 532.85659322 0 8845.67321409 0 801.11937381 0 5976.73548188 0 5509
0.07250000 0.07249820 26732.22470855 0 245.94396497 0 9090.45593073 0 1081.98286325 0 7418.31380523 0 5916
0.07350000 0.07351270 26768.38201060 0 -534.88960962 0 7784.73367881 0 2501.85238681 0 6138.51168057 0 5721
0.07450000 0.07449140 27532.12183245 0 -763.04773117 0 6818.35768871 0 1581.16103694 0 6835.24958166 0 6028
0.07550000 0.07549160 27650.57581586 0 294.82508816 0 4710.03206082 0 -134.45968972 0 7239.19097451 0 6183
0.07650000 0.07648840 27140.93531609 0 942.58870000 0 6206.14579956 0 -1114.26601021 0 6706.24786995 0 6330
0.07750000 0.07749960 25856.79653342 0 779.38062779 0 6447.01332368 0 -1456.61798641 0 5451.03492893 0 6583
0.07850000 0.07848650 25071.76161343 0 772.86233134 0 7128.14591067 0 512.36227950 0 4923.33796053 0 6549
0.07950000 0.07947320 24280.29379920 0 212.55724391 0 7548.28045107 0 -55.71684969 0 3650.11291566 0 6828
0.08050000 0.08048110 24209.64287464 0 21.72332925 0 5918.95034578 0 1423.46639873 0 3257.20726377 0 7147
0.08150000 0.08149960 24075.10665566 0 -137.85248687 0 6161.64791740 0 363.87000740 0 2962.40324889 0 7386
0.08250000 0.08250610 23597.40880310 0 436.53287509 0 5379.13069912 0 -527.21450134 0 1700.83505201 0 7227
0.08350000 0.08350160 23383.12687806 0 331.76764695 0 5631.58852405 0 -626.22228913 0 139.95537781 0 7798
0.08450000 0.08449610 22924.72770819 0 261.15110510 0 5431.71406385 0 -598.33569265 0 115.60354579 0 7371
0.08550000 0.08548940 22333.12326297 0 542.19759929 0 5467.71608914 0 -95.25286307 0 -3103.48327407 0 8256
0.08650000 0.08650700 22100.65177494 0 386.38180985 0 5939.95707280 0 -644.15009988 0 -1771.44161178 0 8037
0.08750000 0.08749060 21198.93746305 0 530.76812084 0 5461.83775476 0 -159.46257500 0 -3211.67790030 0 8155
0.08850000 0.08849210 20653.13966122 0 342.31981173 0 6402.31579998 0 663.35783476 0 -697.37675403 0 8718
0.08950000 0.08949900 19954.17242955 0 476.43567435 0 5245.22667836 0 802.78194423 0 -1362.01007644 0 8571
0.09050000 0.09049190 19654.48828801 0 201.72779921 0 5326.73588473 0 1170.60929070 0 195.87941106 0 8932
0.09150000 0.09150830 19239.56661017 0 128.00461310 0 5448.86105433 0 705.01082489 0 558.66137204 0 9285
0.09250000 0.09250820 19282.26771842 0 96.49662990 0 4317.70315117 0 472.65357619 0 692.64746766 0 9204
0.09350000 0.09350330 18520.85704793 0 212.07921333 0 4723.67423307 0 271.24520345 0 1550.72679251 0 9349
0.09450000 0.09448040 18754.21583172 0 235.15444858 0 3714.33094599 0 -701.71119380 0 165.81450350 0 9564
0.09550000 0.09549270 18353.71270992 0 93.24912743 0 4783.10086631 0 210.23141991 0 760.61875903 0 10155
0.09650000 0.09649430 18026.63331192 0 445.82729813 0 3808.22901935 0 -385.72742923 0 -731.90143190 0 9913
0.09750000 0.09749140 17416.06291992 0 843.42563545 0 5497.03012268 0 -1432.11753235 0 -231.22594662 0 10476
0.09850000 0.09850240 16432.49557455 0 795.54826558 0 5605.75712636 0 -168.29782249 0 -1162.43507855 0 10575
0.09950000 0.09950330 15345.44736165 0 193.96063399 0 6097.37443109 0 -12.57542092 0 -365.71780081 0 10882
0.10050000 0.10051200 15573.92601879 0 -82.18754398 0 5939.50233373 0 1011.21437200 0 -688.14111434 0 10875
0.10150000 0.10150300 15662.65559437 0 -185.94724420 0 5590.87274005 0 1219.52146924 0 -191.70468453 0 11118
0.10250000 0.10250800 15740.29397301 0 -8.72042033 0 4471.17204334 0 178.16455130 0 435.25406008 0 11575
0.10350000 0.10349800 15628.82744368 0 124.42326560 0 5148.31179943 0 140.96578585 0 148.97141181 0 11364
0.10450000 0.10450100 15585.34995164 0 3.22744958 0 4033.54668536 0 469.08886549 0 1018.44250505 0 12093
0.10550000 0.10551000 15784.54784883 0 -151.38707451 0 4299.83523289 0 723.00629194 0 653.43897732 0 12067
0.10650000 0.10649700 15718.22249108 0 -90.45747316 0 3460.87491333 0 472.80219823 0 1639.54509767 0 12054
0.10750000 0.10749900 15766.46919781 0 344.73214707 0 3709.99428798 0 -314.64394798 0 1073.10990569 0 12807
0.10850000 0.10850100 15417.87287772 0 383.53469959 0 3936.27688812 0 -397.83901629 0 1499.71837775 0 12736
0.10950000 0.10950300 14657.46041495 0 454.31650027 0 4977.59609600 0 -638.24403751 0 861.95126171 0 12933
0.11050000 0.11050200 14647.81107361 0 263.30168819 0 5075.77537138 0 -496.29224424 0 730.36197376 0 13428
0.11150000 0.11150900 14045.55907932 0 139.53723969 0 5715.63761452 0 221.87052199 0 465.53635511 0 13453
0.11250000 0.11250000 14366.42740703 0 -22.27478357 0 5302.27979546 0 1.89513064 0 186.62158897 0 13668
0.11350000 0.11349100 14264.72113102 0 -250.30058713 0 4989.60786229 0 761.70125986 0 564.75154829 0 13791
0.11450000 0.11448600 14725.67127619 0 -98.37292768 0 4339.46407958 0 289.17745067 0 -122.61761874 0 14205
0.11550000 0.11549300 14597.34612749 0 62.93178422 0 4040.67832499 0 -76.15171460 0 -238.04148714 0 14776
0.11650000 0.11649800 14542.00105472 0 145.41890143 0 4474.68795278 0 94.29036900 0 -80.73947730 0 14553
0.11750000 0.11747300 14277.69783145 0 110.69702209 0 3825.69765455 0 145.73943702 0 91.65942617 0 14568
0.11850000 0.11849100 14246.42065605 0 42.43680503 0 4105.21800004 0 556.68381163 0 206.53028749 0 16015
0.11950000 0.11950300 14185.64089678 0 84.18739770 0 3609.97387390 0 556.59730029 0 734.45906191 0 15270
0.12050000 0.12050700 14121.97742629 0 112.82852831 0 3630.04894038 0 -30.83441481 0 1057.22620254 0 15999
0.12150000 0.12150000 13874.08917450 0 157.49832402 0 3679.54895236 0 5.41563183 0 1264.05262499 0 15670
0.12250000 0.12250700 13762.40082123 0 181.70153400 0 4061.77378159 0 -213.86045956 0 1336.55577944 0 16887
0.12350000 0.12352200 13488.22643267 0 205.65408293 0 4022.73276833 0 -359.04090025 0 884.37544370 0 16407
0.12450000 0.12449800 13626.31183468 0 161.44013542 0 4453.14884830 0 -122.52778005 0 1313.03135072 0 16306
0.12550000 0.12549900 13329.95505222 0 61.82055720 0 4599.68574238 0 -85.78752468 0 792.63017167 0 17523
0.12650000 0.12650100 13269.72985279 0 85.84164972 0 4480.98775264 0 467.27989127 0 1444.35112258 0 17154
0.12750000 0.12750600 13293.57592623 0 7.03515732 0 4773.40716018 0 199.09253082 0 1060.19642508 0 18007
0.12850000 0.12850300 13154.71414044 0 240.75217568 0 4850.91244446 0 60.62137698 0 980.16678438 0 17496
0.12950000 0.12949900 12687.66383695 0 340.11820914 0 4866.05192829 0 -258.79200751 0 1686.90450864 0 18405
0.13050000 0.13049000 12562.44422340 0 51.41157977 0 4908.56448619 0 164.78302218 0 1494.83825109 0 18100
0.13150000 0.13148800 12668.36515426 0 -124.55857821 0 4445.48483121 0 640.03082933 0 1410.52297189 0 19059
0.13250000 0.13249300 12770.29325421 0 -55.71474237 0 4335.69307262 0 172.96388905 0 944.05495624 0 18957
0.13350000 0.13349100 12480.92392583 0 138.80743893 0 3517.72838889 0 77.34590377 0 840.63065382 0 19468
0.13450000 0.13450700 12546.58381177 0 34.57325730 0 3448.88532943 0 382.16937324 0 689.93677912 0 19953
0.13550000 0.13551000 12631.76420433 0 -104.75369329 0 3200.48688258 0 474.23296263 0 584.21992629 0 19956
0.13650000 0.13649900 12320.65612993 0 205.41229484 0 2734.35714843 0 141.90410111 0 452.61511066 0 19723
0.13750000 0.13749600 12168.26308386 0 291.05186296 0 2704.38873428 0 -455.66408070 0 -138.73201879 0 20946
0.13850000 0.13851100 11516.76617513 0 320.13630871 0 2813.93648654 0 -579.21779647 0 137.42991227 0 20955
0.13950000 0.13949800 11497.80022834 0 241.86905921 0 3473.11959476 0 170.48167917 0 -106.14818948 0 20506
0.14050000 0.14048300 11228.39505447 0 -55.57377325 0 3289.53810287 0 243.06469024 0 -98.38978630 0 21447
0.14150000 0.14148400 11208.65272390 0 127.60533001 0 3234.91395790 0 243.20887580 0 -28.69514474 0 21771
0.14250000 0.14249400 11140.88551055 0 178.81893192 0 3487.94852508 0 -327.18920085 0 205.59197223 0 22470
0.14350000 0.14350900 11022.08770004 0 109.06617249 0 3560.42949714 0 314.12044349 0 471.70306061 0 22519
0.14450000 0.14449900 10827.27082564 0 87.76530692 0 3828.80318969 0 -21.89513190 0 465.36222331 0 22218
0.14550000 0.14550500 10778.75793019 0 161.51888292 0 3902.00508955 0 -208.90047628 0 984.35482035 0 23559
0.14650000 0.14650700 10664.01949776 0 132.82706553 0 4022.20039088 0 219.35947500 0 682.56889699 0 23044
0.14750000 0.14750500 10539.78700074 0 54.76955056 0 3968.07534977 0 -16.42916822 0 1321.49393399 0 23649
0.14850000 0.14849900 10547.91684811 0 117.59441564 0 3900.80724028 0 190.00994964 0 32.88207159 0 23640
0.14950000 0.14949500 10240.69069264 0 230.80559025 0 4232.26766108 0 -399.52487823 0 827.55413262 0 24457
0.15050000 0.15050000 10033.01912098 0 176.35890443 0 4065.01241110 0 23.43037538 0 376.78126977 0 24591
0.15150000 0.15149900 10066.11525268 0 -133.93174875 0 3939.21605531 0 394.12679267 0 417.03455085 0 25020
0.15250000 0.15250500 9998.92478156 0 -103.25516167 0 3381.60612874 0 436.11030048 0 -66.58189714 0 25297
0.15350000 0.15350100 10276.12706689 0 -28.18095685 0 3110.01598907 0 455.43005645 0 255.77187458 0 25452
0.15450000 0.15450400 10089.31803669 0 -0.25397399 0 2800.82669174 0 258.34392316 0 476.12512083 0 26061
0.15550000 0.15549900 9962.33492283 0 207.60724272 0 2662.99638727 0 100.76585343 0 422.84633805 0 26128
0.15650000 0.15649500 9996.45144465 0 92.61471096 0 2447.56097775 0 265.33359547 0 586.93394218 0 26331
0.15750000 0.15749700 9618.89600933 0 122.12960608 0 2613.39655452 0 -23.80470327 0 517.83800344 0 27345
0.15850000 0.15849900 9654.74275787 0 115.07893218 0 2532.86337347 0 162.37623244 0 1221.31824315 0 26980
0.15950000 0.15949700 9575.31869652 0 -3.85798413 0 2510.20405811 0 -287.30303839 0 357.72215693 0 27777
0.16050000 0.16050000 9464.29581507 0 172.31949051 0 2650.75170584 0 -233.66379171 0 607.96063336 0 28224
0.16150000 0.16150500 9273.69359551 0 217.46953504 0 3036.51462689 0 -480.63812887 0 -118.93423223 0 28075
0.16250000 0.16249700 9180.44990277 0 87.67435911 0 2987.42498920 0 132.89694007 0 114.11067068 0 28590
0.16350000 0.16349900 9006.27374590 0 -28.35597594 0 3323.16661202 0 266.91076368 0 329.76790414 0 29163
0.16450000 0.16449100 9120.06942658 0 68.80390753 0 2711.78656264 0 203.88281878 0 34.01636830 0 28996
0.16550000 0.16550500 8937.36413926 0 139.08471885 0 3110.55945772 0 134.28666705 0 316.72909301 0 30777
0.16650000 0.16650700 8876.42910322 0 24.84849582 0 2444.37780422 0 247.06639410 0 291.71622565 0 29211
0.16750000 0.16749900 8721.86218255 0 43.35449066 0 2587.78698076 0 329.03033955 0 772.24011520 0 30922
0.16850000 0.16850800 8615.93016050 0 56.04171085 0 1851.25386502 0 298.78353635 0 690.37155404 0 30867
0.16950000 0.16949900 8613.26827323 0 16.13469694 0 1953.12650899 0 346.30155143 0 874.44660419 0 30852
0.17050000 0.17049200 8510.61924548 0 76.51861139 0 1539.11430931 0 86.11726597 0 310.32170853 0 31257
0.17150000 0.17149500 8275.25295504 0 220.86565955 0 1576.28091028 0 -141.77322499 0 441.70248198 0 32608
0.17250000 0.17250900 8043.31384446 0 163.96781920 0 1594.09337258 0 -265.28146685 0 784.94840866 0 32361
0.17350000 0.17350400 7902.72183194 0 117.53674142 0 1569.72601288 0 96.08836294 0 80.57022564 0 32508
0.17450000 0.17449800 7854.16457170 0 -9.44166977 0 1632.97910908 0 115.48819734 0 300.49601716 0 32791
0.17550000 0.17549800 7712.26379795 0 128.85419879 0 1431.41878694 0 22.62925822 0 -119.93354908 0 33633
0.17650000 0.17650100 7773.86430580 0 156.35149426 0 1862.88853062 0 -114.26262008 0 385.20725209 0 33984
0.17750000 0.17750300 7372.40734106 0 189.26573032 0 1893.95497327 0 -201.53037591 0 176.84469886 0 34069
0.17850000 0.17849800 7366.66210104 0 110.65376642 0 1987.22084841 0 -34.69625868 0 518.62991490 0 34536
