### header ###
fiducial parameters:
Omega_m = 0.31
Omega_nu = 0
Omega_de = 0.69
Omega_k = 0
H_0 = 100
w_de = -1
zeff = 0
beta = 0
fgrowth = 0
b_1 = 2
gamma = 0.55
Lx = 3500 Ly = 3500 Lz = 3500
nx = 700 ny = 700 nz = 700
xoffset = 1379.75464 yoffset = 22.6059522 zoffset = 368.141391
bins = 400 dk = 0.001
kx_ny = 0.628318531 ky_ny = 0.628318531 kz_ny = 0.628318531
############################
A(data) = 3.3366278 (not used)
A(ran) = 3.34227759 (used)
Ngal = 187728
weighted Ngal = 0
Nran = 9399747
weighted Nran = 0
SN(data) = 6634.98601
SN(ran) = 132.940371
SN(data+ran) = 6767.92638
############################
13 columns: k_central k_mean P_0(k) sigma^{lin}_{P_0(k)} P^img_1(k) sigma^{lin}_{P_1(k)} P_2(k) sigma^{lin}_{P_2(k)} P^img_3(k) sigma^{lin}_{P_3(k)} P_4(k) sigma^{lin}_{P_4(k)} N_modes
### header ###
0.00050000 0 0 0 0 0 0 0 0 0 0 0 0
0.00150000 0.00179520 15286.77492980 0 -8980.16506828 0 9905.11543778 0 -31694.98078303 0 58966.68131113 0 3
0.00250000 0.00253879 35170.62917069 0 -18607.92294397 0 -26944.95386601 0 15424.08394802 0 9889.85395078 0 6
0.00350000 0.00331552 43830.96848377 0 -14994.63280218 0 15031.12284014 0 -59016.25896149 0 -18392.08825136 0 7
0.00450000 0.00420575 65353.99072165 0 -9792.59524474 0 -5937.93847496 0 -13545.78974483 0 -9803.14297303 0 24
0.00550000 0.00557378 81332.85634101 0 -10547.16264672 0 19912.24770508 0 5145.98264807 0 21143.81421421 0 45
0.00650000 0.00659388 96304.75218945 0 9061.50790670 0 22771.11463046 0 -34771.12425662 0 -33221.46221901 0 40
0.00750000 0.00754703 109809.39359360 0 4895.56560337 0 56647.40111729 0 8985.64411957 0 7212.71628740 0 57
0.00850000 0.00846663 91212.22911067 0 3988.44987857 0 64996.85417991 0 9519.35251672 0 14923.53822974 0 75
0.00950000 0.00948925 88938.42282432 0 11688.34699191 0 66979.07289850 0 24839.17921342 0 58895.58673870 0 112
0.01050000 0.01054430 88137.74931662 0 -234.79176644 0 87210.08160387 0 47022.79314153 0 54542.40284849 0 105
0.01150000 0.01145670 85497.04623522 0 -5907.47095694 0 29777.09100674 0 48711.42787690 0 46999.27980400 0 144
0.01250000 0.01249090 87920.02912053 0 3061.32563447 0 55570.55680559 0 29568.13285624 0 88071.09122296 0 169
0.01350000 0.01339930 88684.10167829 0 4217.00617408 0 13880.63298070 0 5706.77574816 0 62884.97936900 0 180
0.01450000 0.01448870 84162.10977053 0 1947.08180665 0 49133.55883275 0 17861.37447739 0 83957.58809881 0 267
0.01550000 0.01550050 68809.56404283 0 2388.11216210 0 1957.01951912 0 -1488.29444489 0 129.99991943 0 238
0.01650000 0.01653350 80883.77377658 0 939.04728082 0 50795.57469544 0 2371.65282583 0 65414.54865698 0 315
0.01750000 0.01747870 69238.23880488 0 5978.57662058 0 15641.24958426 0 -2839.54606029 0 16467.43284493 0 297
0.01850000 0.01844180 77629.17294409 0 -1295.07470286 0 49856.26122589 0 12025.63029111 0 52680.07996891 0 388
0.01950000 0.01947590 74194.45107317 0 592.98862660 0 26226.02247983 0 7986.69328404 0 12291.37536999 0 399
0.02050000 0.02045430 71103.77813157 0 2937.54787652 0 25926.00560238 0 1683.15568407 0 13076.85393786 0 462
0.02150000 0.02154770 65809.50618031 0 5091.56923584 0 32958.82267528 0 -2207.71384374 0 25237.68591977 0 571
0.02250000 0.02255340 63840.70781003 0 135.48007984 0 24763.75907417 0 3446.83345799 0 1437.26384773 0 510
0.02350000 0.02348930 59006.27688424 0 2661.57671406 0 22785.64409846 0 8462.89382501 0 16464.32730979 0 555
0.02450000 0.02439640 57009.08504977 0 1803.85008927 0 16901.32046955 0 1838.08861424 0 -7251.89039502 0 592
0.02550000 0.02547300 51837.81447266 0 2711.60910349 0 19890.84169497 0 -1040.60715303 0 7253.53189217 0 837
0.02650000 0.02652900 52568.50252761 0 894.17784356 0 9361.02568028 0 9178.45348732 0 560.14426507 0 723
0.02750000 0.02749970 50445.53651975 0 -2196.75574116 0 11596.84461709 0 4946.35219420 0 4284.13009801 0 826
0.02850000 0.02848090 48258.57430550 0 1787.09129068 0 4102.60047756 0 -33.80330641 0 -1139.46520967 0 831
0.02950000 0.02946900 47519.67876481 0 318.98615159 0 7456.58952590 0 2873.66258210 0 5242.45387912 0 996
0.03050000 0.03053250 50543.91543668 0 -1223.40338818 0 4188.98981059 0 2284.11000832 0 471.84502793 0 1041
0.03150000 0.03150510 48931.25540041 0 -589.56366498 0 4691.05502284 0 -23.36338455 0 404.28300172 0 1036
0.03250000 0.03246190 51591.58990041 0 1162.12452504 0 6224.67918966 0 -5868.11939017 0 10217.85391813 0 1059
0.03350000 0.03345080 50480.14105423 0 243.08354527 0 9771.08941385 0 -1165.52952250 0 -5352.72255918 0 1302
0.03450000 0.03451200 51629.85452988 0 -1060.69441983 0 9746.75532775 0 -453.61775487 0 3814.87264633 0 1339
0.03550000 0.03553350 52176.53962746 0 1683.43296400 0 19036.15405814 0 -5166.34608566 0 -8259.58109375 0 1365
0.03650000 0.03647120 51193.74866588 0 2857.04796907 0 21621.40115480 0 -7285.21944185 0 -54.30915498 0 1308
0.03750000 0.03744890 49172.04528616 0 698.82526436 0 29542.84492719 0 -1976.25165463 0 -7871.76630126 0 1579
0.03850000 0.03847530 46965.78438922 0 1885.73639633 0 27536.11466335 0 -1283.28476050 0 -4980.13598010 0 1662
0.03950000 0.03950240 48314.25211418 0 1785.70489106 0 35311.59828390 0 -65.90222859 0 -3855.83243666 0 1683
0.04050000 0.04050350 44854.68596209 0 1142.32673849 0 33111.10480938 0 2569.02067553 0 -10829.84398333 0 1822
0.04150000 0.04152450 42828.21336768 0 1165.91771439 0 32253.97710922 0 3680.51388650 0 3861.77731822 0 1887
0.04250000 0.04250150 42141.77918856 0 -124.30458980 0 27521.25245944 0 4150.37026281 0 -4368.53410678 0 1920
0.04350000 0.04349210 42678.81494479 0 311.39533640 0 28910.75761311 0 6350.45336305 0 2306.88023565 0 2005
0.04450000 0.04448520 41889.78719389 0 452.26573796 0 21704.91786782 0 3847.99096041 0 -917.81540250 0 2151
0.04550000 0.04548030 38580.61767242 0 367.45246401 0 15120.07423966 0 3558.84345597 0 1548.60837390 0 2274
0.04650000 0.04648670 40023.47148342 0 741.71048648 0 18720.72041694 0 -344.61458038 0 3971.19197611 0 2311
0.04750000 0.04749250 37553.90557093 0 -110.72652467 0 11153.08582719 0 3199.49976605 0 -3883.09459875 0 2568
0.04850000 0.04851840 39315.74220615 0 418.02388562 0 14519.70774886 0 -47.88768468 0 569.20799122 0 2493
0.04950000 0.04949480 35744.37678882 0 1461.86412256 0 13033.59826976 0 -3977.91324146 0 -5787.65275631 0 2644
0.05050000 0.05050630 36301.26578759 0 1331.93075032 0 17196.45722034 0 -3123.97980603 0 -5276.01584109 0 2829
0.05150000 0.05149060 35618.82443937 0 692.62972174 0 18785.16027120 0 -1921.02858502 0 -4568.50838776 0 2784
0.05250000 0.05249300 33676.53402980 0 631.19669096 0 19848.02967475 0 716.52903292 0 -5652.80598381 0 3055
0.05350000 0.05348950 35315.36929087 0 -9.08964627 0 21107.21326428 0 2927.62125526 0 -1260.73635710 0 3009
0.05450000 0.05448610 34679.62188179 0 -861.69838242 0 17756.67357820 0 5726.30734599 0 -642.39990900 0 3336
0.05550000 0.05550870 35467.42960103 0 912.34633329 0 20677.20755860 0 2001.68376923 0 7222.52090550 0 3349
0.05650000 0.05647670 32482.01211847 0 1466.42260451 0 13684.76244259 0 2435.46048188 0 5202.48120532 0 3324
0.05750000 0.05747970 32683.09551914 0 -65.81804640 0 18484.81065785 0 2018.65330056 0 12366.79550924 0 3639
0.05850000 0.05849280 31492.45552675 0 -296.15492267 0 10948.00959562 0 3401.80319838 0 7113.88263139 0 3846
0.05950000 0.05951020 32811.42066784 0 -454.97975385 0 14358.77448114 0 1666.71853020 0 11404.52326201 0 3787
0.06050000 0.06049470 32384.63140927 0 243.31313305 0 8343.03125959 0 -1194.66609688 0 4834.10928108 0 3930
0.06150000 0.06148310 31957.62032676 0 630.52345531 0 12820.64728836 0 -1931.25466861 0 5884.67854721 0 4083
0.06250000 0.06249100 31515.52521641 0 495.08774026 0 9826.95577288 0 -11.73093719 0 -1144.02369162 0 4303
0.06350000 0.06350600 31780.05026362 0 -342.84442535 0 11759.55247632 0 -60.94069254 0 1799.59106964 0 4470
0.06450000 0.06451750 31066.99721182 0 525.31014282 0 11025.84761580 0 -53.14491203 0 -2525.45445391 0 4479
0.06550000 0.06550280 31410.71340524 0 359.60766041 0 9866.07442452 0 65.44571492 0 -1878.01692326 0 4636
0.06650000 0.06648880 29626.47255218 0 554.68074146 0 11735.81731485 0 305.82755553 0 -3514.40102980 0 4653
0.06750000 0.06749660 30409.06740885 0 262.62401606 0 10053.57110893 0 685.57017488 0 -317.45112993 0 5220
0.06850000 0.06852730 28976.19567511 0 26.90225276 0 8877.77113805 0 1427.59232399 0 -272.11364417 0 5029
0.06950000 0.06949320 29550.83058900 0 -69.88175005 0 8140.37290895 0 2215.66623195 0 -271.75318027 0 5040
0.07050000 0.07048030 29381.24618766 0 -86.03929485 0 7462.63422823 0 1782.01152247 0 1464.08236195 0 5475
0.07150000 0.07148790 28728.64015923 0 947.73834275 0 7370.21128406 0 -542.86196199 0 610.18220011 0 5509
0.07250000 0.07249820 28075.47957094 0 1295.45180355 0 9200.60260763 0 -1678.94102923 0 2692.42133277 0 5916
0.07350000 0.07351270 26296.22975651 0 739.33475209 0 9539.36103602 0 -1137.25806148 0 3246.08279323 0 5721
0.07450000 0.07449140 25943.86242947 0 413.06944794 0 12675.90716818 0 1086.74320498 0 4708.14655734 0 6028
0.07550000 0.07549160 25683.55203709 0 -283.10058386 0 9676.08222080 0 2044.59561022 0 3647.58412276 0 6183
0.07650000 0.07648840 25431.67095440 0 605.32092848 0 12715.83547720 0 -262.42215627 0 3758.06353556 0 6330
0.07750000 0.07749960 25571.86368382 0 769.99303869 0 10460.65131052 0 -46.81084037 0 5481.99045961 0 6583
0.07850000 0.07848650 24168.49453396 0 158.90246956 0 13174.23464707 0 -248.58699720 0 3657.27782889 0 6549
0.07950000 0.07947320 24209.97561055 0 453.35711174 0 11378.79168509 0 312.05526262 0 5210.06758403 0 6828
0.08050000 0.08048110 23654.75029132 0 -17.17360935 0 11175.93369291 0 767.73708923 0 2425.16785111 0 7147
0.08150000 0.08149960 23450.67226747 0 18.35260359 0 10128.13722601 0 346.43575492 0 2246.22247954 0 7386
0.08250000 0.08250610 23575.55914511 0 281.17958855 0 10308.04753171 0 527.20895574 0 1952.66067872 0 7227
0.08350000 0.08350160 22762.46349684 0 358.65159924 0 9130.50624291 0 -408.47658329 0 92.35550969 0 7798
0.08450000 0.08449610 22386.02827241 0 505.44691820 0 10030.81197279 0 -348.28798481 0 194.84238415 0 7371
0.08550000 0.08548940 21791.87285190 0 714.52485364 0 10202.37060719 0 -715.44542298 0 -1702.27690761 0 8256
0.08650000 0.08650700 20966.24415107 0 497.62318788 0 10533.33192412 0 -96.04654912 0 -238.92656466 0 8037
0.08750000 0.08749060 20696.39532932 0 286.83498988 0 10916.59932586 0 286.67527664 0 -1460.78827646 0 8155
0.08850000 0.08849210 20361.88482936 0 344.89075118 0 10775.61912145 0 274.89309812 0 337.94988013 0 8718
0.08950000 0.08949900 19857.01354428 0 402.02150666 0 11699.32727689 0 493.08023361 0 485.63693134 0 8571
0.09050000 0.09049190 19300.56819339 0 402.09138120 0 11497.35658047 0 373.89644944 0 2070.56010228 0 8932
0.09150000 0.09150830 19462.94331671 0 -316.90100656 0 10441.70754613 0 1472.70022198 0 1755.89175366 0 9285
0.09250000 0.09250820 19684.54543174 0 -340.74597088 0 9984.35094877 0 1160.10592719 0 2679.68863868 0 9204
0.09350000 0.09350330 19698.63125186 0 262.78262017 0 8890.16000504 0 871.87233738 0 2306.27021982 0 9349
0.09450000 0.09448040 19663.36124556 0 126.15016497 0 8680.43656195 0 582.62390305 0 3237.45384200 0 9564
0.09550000 0.09549270 18793.25684498 0 224.74203288 0 7915.18833731 0 854.32384557 0 2668.97454242 0 10155
0.09650000 0.09649430 18829.96870688 0 420.20441494 0 6997.81325533 0 612.56126185 0 2235.24219457 0 9913
0.09750000 0.09749140 17918.93778955 0 177.54233515 0 6631.89248561 0 735.35966710 0 2481.51113160 0 10476
0.09850000 0.09850240 17401.20071601 0 169.47681673 0 5811.46555616 0 368.03586097 0 2531.13314675 0 10575
0.09950000 0.09950330 17413.73376856 0 204.17784462 0 5303.32236797 0 599.46255826 0 2139.83571842 0 10882
0.10050000 0.10051200 16970.75136244 0 77.91798771 0 4282.82133677 0 90.96500633 0 1605.76131177 0 10875
0.10150000 0.10150300 16899.76770198 0 166.93804175 0 4435.82439867 0 2.58241884 0 337.35871933 0 11118
0.10250000 0.10250800 16497.82272457 0 139.36199877 0 4026.45941051 0 62.93300425 0 657.39187992 0 11575
0.10350000 0.10349800 16486.50970369 0 5.04484202 0 3747.74872240 0 240.26527213 0 283.93907835 0 11364
0.10450000 0.10450100 16452.68155299 0 199.41861201 0 3851.77305857 0 -285.91220229 0 -559.19042214 0 12093
0.10550000 0.10551000 16148.00637283 0 374.01623437 0 4223.86053379 0 -293.23682875 0 -256.21441334 0 12067
0.10650000 0.10649700 15625.50008459 0 404.80872446 0 4512.22056325 0 -260.65976508 0 -0.63672676 0 12054
0.10750000 0.10749900 15280.56385951 0 392.75924809 0 5125.26429217 0 -213.04082010 0 594.72439892 0 12807
0.10850000 0.10850100 15058.40718463 0 39.84689963 0 5049.32286666 0 1077.96008612 0 1491.16706490 0 12736
0.10950000 0.10950300 14827.59937614 0 -142.32889396 0 4771.86548381 0 826.59696232 0 1694.70162010 0 12933
0.11050000 0.11050200 15357.42585436 0 -244.04071557 0 4101.23626033 0 565.02993733 0 1845.32007465 0 13428
0.11150000 0.11150900 15274.90734906 0 0.96910886 0 4139.27906586 0 256.04028155 0 2129.38781089 0 13453
0.11250000 0.11250000 15342.56365045 0 206.73658376 0 4057.88077146 0 -568.08445297 0 915.22228065 0 13668
0.11350000 0.11349100 14834.25409431 0 391.50039724 0 4955.64661724 0 -1192.18166877 0 1875.21085043 0 13791
0.11450000 0.11448600 14935.40581048 0 227.02681945 0 4839.42196442 0 -203.45026210 0 283.04401876 0 14205
0.11550000 0.11549300 14482.88497499 0 177.06541368 0 5578.89424735 0 215.99440585 0 1063.39956276 0 14776
0.11650000 0.11649800 14495.30711557 0 -80.43568942 0 4894.86685796 0 612.58233513 0 424.89155477 0 14553
0.11750000 0.11747300 14443.51122582 0 -24.37334894 0 5110.44645304 0 401.35825309 0 420.54047821 0 14568
0.11850000 0.11849100 14521.26051643 0 225.06700495 0 4853.95143242 0 -452.86466259 0 243.44400918 0 16015
0.11950000 0.11950300 14290.67453188 0 151.45583993 0 4994.12197945 0 -372.77956591 0 -559.78269205 0 15270
0.12050000 0.12050700 13758.85163821 0 488.31212804 0 5379.14179031 0 -719.08555382 0 -300.52818163 0 15999
0.12150000 0.12150000 13613.77878213 0 28.32081685 0 5399.90451100 0 -23.81102526 0 -1636.92757519 0 15670
0.12250000 0.12250700 13369.77244927 0 -42.81324025 0 5562.13544876 0 573.77756436 0 -657.29649562 0 16887
0.12350000 0.12352200 13827.72797126 0 -47.06671428 0 4466.99066209 0 564.47426836 0 -1440.90176033 0 16407
0.12450000 0.12449800 13587.49264536 0 -79.28309223 0 3665.46313224 0 497.72966337 0 -1796.20825457 0 16306
0.12550000 0.12549900 13602.90940912 0 219.09217716 0 3928.05831118 0 17.29439249 0 -1409.22530185 0 17523
0.12650000 0.12650100 13195.52974521 0 220.69152776 0 3622.18528174 0 135.89932709 0 -1229.92501198 0 17154
0.12750000 0.12750600 13241.55821254 0 -30.50467353 0 3429.85283547 0 292.04008860 0 -1293.55520887 0 18007
0.12850000 0.12850300 12914.58972651 0 13.36411594 0 3046.91816963 0 358.55843318 0 -1203.58341923 0 17496
0.12950000 0.12949900 13045.13311459 0 116.57846200 0 2832.43660305 0 376.14796242 0 -499.95566660 0 18405
0.13050000 0.13049000 12807.55967596 0 84.71045855 0 2827.85593871 0 278.98020420 0 -1360.29094091 0 18100
0.13150000 0.13148800 12491.34965097 0 312.78617250 0 2979.17313867 0 -208.04756324 0 399.45500369 0 19059
0.13250000 0.13249300 12234.36661768 0 314.57961904 0 3219.26427901 0 -105.61226284 0 -797.60790086 0 18957
0.13350000 0.13349100 12044.48532592 0 151.75308400 0 3571.77579161 0 -215.86352972 0 434.04068313 0 19468
0.13450000 0.13450700 12002.11695358 0 -44.83716187 0 3455.00767014 0 344.91515182 0 406.72528329 0 19953
0.13550000 0.13551000 11781.73487022 0 -73.23484071 0 3303.06936315 0 383.69663106 0 661.36918314 0 19956
0.13650000 0.13649900 12212.96060757 0 -69.63053444 0 2775.92695460 0 302.23955332 0 411.75846846 0 19723
0.13750000 0.13749600 12385.87236799 0 -101.29956182 0 3124.47890989 0 185.73429321 0 -281.31379204 0 20946
0.13850000 0.13851100 12032.83956913 0 270.92355873 0 2540.95994725 0 -331.17759528 0 293.43868854 0 20955
0.13950000 0.13949800 11938.23165916 0 297.27846092 0 2898.41813369 0 -296.87030488 0 189.93009302 0 20506
0.14050000 0.14048300 11578.98779001 0 77.89968724 0 2835.34249665 0 248.50159498 0 -160.30550597 0 21447
0.14150000 0.14148400 11638.99116550 0 -12.57142809 0 2886.39527620 0 475.19235117 0 -633.73102947 0 21771
0.14250000 0.14249400 11243.14634641 0 288.14818760 0 2625.91851587 0 -222.43728216 0 -158.24032510 0 22470
0.14350000 0.14350900 11044.61392104 0 333.42356266 0 2670.18348289 0 -139.17455755 0 -234.24164307 0 22519
0.14450000 0.14449900 10646.27358264 0 84.64701690 0 2923.25132366 0 75.22105226 0 -401.66658836 0 22218
0.14550000 0.14550500 10594.83261120 0 49.13877170 0 2800.77123576 0 260.14291530 0 -138.61112474 0 23559
0.14650000 0.14650700 10554.79339022 0 59.64091517 0 2406.51245784 0 66.26102881 0 -727.74999688 0 23044
0.14750000 0.14750500 10590.30740284 0 6.82544496 0 2591.35834618 0 8.98066417 0 237.46474490 0 23649
0.14850000 0.14849900 10431.12654424 0 173.04929126 0 2605.17797758 0 39.42521232 0 -586.91065067 0 23640
0.14950000 0.14949500 10216.62279526 0 210.68172251 0 2769.73806670 0 -233.35656555 0 312.45232747 0 24457
0.15050000 0.15050000 10138.27458002 0 144.40960251 0 2974.58138313 0 222.23653149 0 354.34377834 0 24591
0.15150000 0.15149900 9834.63088117 0 118.98192438 0 2973.36135147 0 116.66497334 0 467.29320070 0 25020
0.15250000 0.15250500 9819.91286282 0 203.78299801 0 3274.88663170 0 -26.29112781 0 898.68530600 0 25297
0.15350000 0.15350100 9359.04035603 0 209.68351478 0 3123.76907329 0 -77.49164210 0 694.79361427 0 25452
0.15450000 0.15450400 9538.80647617 0 64.25840229 0 3545.55620203 0 66.52699571 0 1610.24215534 0 26061
0.15550000 0.15549900 9415.22835977 0 -219.79979552 0 3095.36451790 0 724.36496357 0 1093.87595374 0 26128
0.15650000 0.15649500 9575.88434757 0 -30.35793699 0 3028.16295559 0 249.15043001 0 1542.80767789 0 26331
0.15750000 0.15749700 9592.44350461 0 156.00877627 0 2398.84844075 0 -48.41651295 0 908.49879706 0 27345
0.15850000 0.15849900 9379.57016158 0 189.82139929 0 2871.63289306 0 -221.26494264 0 1377.65975533 0 26980
0.15950000 0.15949700 9121.07872551 0 151.08761219 0 2859.33275565 0 -75.94430922 0 1443.24200289 0 27777
0.16050000 0.16050000 8972.85596949 0 72.40510827 0 2746.18036438 0 219.40383979 0 1005.36265649 0 28224
0.16150000 0.16150500 8981.07454643 0 102.67986128 0 2938.08025398 0 -20.67443476 0 747.36034220 0 28075
0.16250000 0.16249700 8536.01808649 0 277.73909926 0 2941.66271059 0 -317.63857116 0 385.78177609 0 28590
0.16350000 0.16349900 8478.64332467 0 130.83508656 0 3084.51732729 0 -119.02296181 0 775.11938992 0 29163
0.16450000 0.16449100 8291.27973463 0 5.85657345 0 2863.25903937 0 162.90084606 0 285.67928715 0 28996
0.16550000 0.16550500 8365.24692708 0 -32.89626832 0 2796.82276965 0 413.87245060 0 100.20541524 0 30777
0.16650000 0.16650700 8401.74805623 0 -0.37300694 0 2229.09767146 0 205.57200808 0 124.21031462 0 29211
0.16750000 0.16749900 8424.31864202 0 -51.13551988 0 2428.57284857 0 224.79748887 0 288.84804212 0 30922
0.16850000 0.16850800 8430.09715563 0 53.40677519 0 1949.53296118 0 126.64594147 0 58.05265577 0 30867
0.16950000 0.16949900 8252.22763017 0 161.16507373 0 2122.83291350 0 -241.96777086 0 7.30959789 0 30852
0.17050000 0.17049200 8118.84489567 0 120.47036301 0 1842.74691696 0 -142.28896565 0 25.13065587 0 31257
0.17150000 0.17149500 8093.55696663 0 45.95282537 0 2137.07401038 0 115.06784098 0 -222.69127057 0 32608
0.17250000 0.17250900 8031.23553098 0 -16.10974174 0 1893.72205814 0 114.59868335 0 -297.27846092 0 32361
0.17350000 0.17350400 8103.89396219 0 -6.19108395 0 1949.79914991 0 85.84896991 0 -418.22352716 0 32508
0.17450000 0.17449800 8027.45343282 0 116.58733496 0 2089.02694520 0 -241.25460690 0 -221.90046822 0 32791
0.17550000 0.17549800 8045.66517821 0 78.02191223 0 2046.34801934 0 -0.16811371 0 -181.46861887 0 33633
0.17650000 0.17650100 7948.45083696 0 -6.69459102 0 1999.52098583 0 211.12647951 0 -13.86299798 0 33984
0.17750000 0.17750300 7991.85069062 0 59.16942839 0 2407.47739198 0 -28.91929783 0 139.12021068 0 34069
0.17850000 0.17849800 8063.47764051 0 35.12981357 0 2232.76885765 0 162.28639375 0 423.56837497 0 34536
