### header ###
fiducial parameters:
Omega_m = 0.31
Omega_nu = 0
Omega_de = 0.69
Omega_k = 0
H_0 = 100
w_de = -1
zeff = 0
beta = 0
fgrowth = 0
b_1 = 2
gamma = 0.55
Lx = 3500 Ly = 3500 Lz = 3500
nx = 700 ny = 700 nz = 700
xoffset = 1379.75464 yoffset = 22.6059522 zoffset = 368.141391
bins = 400 dk = 0.001
kx_ny = 0.628318531 ky_ny = 0.628318531 kz_ny = 0.628318531
############################
A(data) = 3.35236835 (not used)
A(ran) = 3.35405127 (used)
Ngal = 189034
weighted Ngal = 0
Nran = 9399747
weighted Nran = 0
SN(data) = 6620.03221
SN(ran) = 133.408673
SN(data+ran) = 6753.44088
############################
13 columns: k_central k_mean P_0(k) sigma^{lin}_{P_0(k)} P^img_1(k) sigma^{lin}_{P_1(k)} P_2(k) sigma^{lin}_{P_2(k)} P^img_3(k) sigma^{lin}_{P_3(k)} P_4(k) sigma^{lin}_{P_4(k)} N_modes
### header ###
0.00050000 0 0 0 0 0 0 0 0 0 0 0 0
0.00150000 0.00179520 9081.57188198 0 -10408.84432957 0 2651.80536955 0 -14297.55107398 0 60317.58909943 0 3
0.00250000 0.00253879 22388.80107165 0 -17952.87685221 0 -23129.47120385 0 3272.65730112 0 -9161.98305985 0 6
0.00350000 0.00331552 37413.93466544 0 -22422.85104628 0 -10452.84310787 0 -28190.71710724 0 -4064.21384492 0 7
0.00450000 0.00420575 65099.78048759 0 -26661.13013611 0 -39292.67251650 0 -9830.51604710 0 -9145.54590597 0 24
0.00550000 0.00557378 92338.09651288 0 -16285.75903892 0 -38366.55757132 0 -17882.33683962 0 23083.99729637 0 45
0.00650000 0.00659388 134693.71397860 0 -8917.64399108 0 -83742.75161392 0 -18959.62479920 0 -38440.53585497 0 40
0.00750000 0.00754703 127203.82867947 0 272.05818818 0 -29145.89098842 0 -27918.53913413 0 10105.83282895 0 57
0.00850000 0.00846663 115214.24477844 0 10110.18057815 0 -12657.60669322 0 -37299.14077703 0 -28425.07409875 0 75
0.00950000 0.00948925 98444.68772864 0 13720.36518480 0 12493.56789036 0 -18907.82890945 0 -16.28487174 0 112
0.01050000 0.01054430 85672.95261882 0 14635.72166894 0 37509.09713526 0 -25748.76827515 0 -26226.13339180 0 105
0.01150000 0.01145670 77436.29702916 0 9744.80327709 0 47137.36520601 0 -2432.70986503 0 -17261.89528234 0 144
0.01250000 0.01249090 70232.89734720 0 3670.92000113 0 58775.80181165 0 1293.84357999 0 -21021.36739991 0 169
0.01350000 0.01339930 68207.53387248 0 -3134.06170405 0 56579.41208000 0 -2121.04723079 0 -15774.67668355 0 180
0.01450000 0.01448870 74177.59245380 0 -2238.85792477 0 50388.97141532 0 21977.98313669 0 1893.99933806 0 267
0.01550000 0.01550050 77101.56470526 0 -3223.57875462 0 41907.31128507 0 11731.60266001 0 -32131.64120688 0 238
0.01650000 0.01653350 84807.06287307 0 -1065.08986118 0 45883.28356707 0 1106.65633998 0 12961.50548960 0 315
0.01750000 0.01747870 84703.24926964 0 3238.13040502 0 33236.32442292 0 9098.30849817 0 2317.07304565 0 297
0.01850000 0.01844180 84260.82142337 0 -711.55241285 0 41432.27531978 0 14613.42836307 0 35050.84424365 0 388
0.01950000 0.01947590 85304.17032029 0 -3903.83513705 0 22244.50459936 0 17130.35368653 0 1036.60101270 0 399
0.02050000 0.02045430 90186.62612887 0 -1248.10348378 0 34000.61880462 0 9979.63719007 0 20778.35927477 0 462
0.02150000 0.02154770 82558.98816364 0 8671.80761073 0 26365.10608956 0 -12962.61460930 0 15154.34603823 0 571
0.02250000 0.02255340 73202.89806599 0 12033.17230504 0 37258.21426029 0 -8930.86469784 0 13988.21759110 0 510
0.02350000 0.02348930 61136.78490602 0 6003.64272568 0 52414.44580200 0 -451.19987393 0 25669.46621697 0 555
0.02450000 0.02439640 56707.51540475 0 944.67939063 0 37543.36893383 0 18795.80782027 0 6544.09457057 0 592
0.02550000 0.02547300 60006.25920109 0 -4733.80049588 0 38965.26038259 0 19880.41596984 0 18742.23733901 0 837
0.02650000 0.02652900 59677.84885945 0 1826.18775992 0 14923.87096565 0 1730.17126794 0 4778.95275866 0 723
0.02750000 0.02749970 59818.26341282 0 5961.00816461 0 27667.87808310 0 -5739.01785769 0 25736.78978244 0 826
0.02850000 0.02848090 48861.60268358 0 2086.87525299 0 17404.97172297 0 -1973.77831771 0 14058.75760369 0 831
0.02950000 0.02946900 54979.95056810 0 -4033.90160366 0 23649.75925270 0 13448.07629972 0 17231.28357876 0 996
0.03050000 0.03053250 53716.77414766 0 -907.52942645 0 15900.78359285 0 1558.69027192 0 2949.83692274 0 1041
0.03150000 0.03150510 55460.86486777 0 3265.25947275 0 16360.29188241 0 -4755.87197781 0 2719.35075896 0 1036
0.03250000 0.03246190 53232.08884102 0 1590.00072091 0 24567.11215228 0 -4240.45296443 0 10538.20095958 0 1059
0.03350000 0.03345080 50414.92481618 0 -42.79205607 0 23345.41680844 0 -3334.56836248 0 -1006.72576460 0 1302
0.03450000 0.03451200 55768.75649505 0 -1274.89981561 0 27017.26847011 0 3150.47667554 0 3528.07647564 0 1339
0.03550000 0.03553350 52932.51561145 0 -787.02689897 0 21463.68433420 0 -2022.20248358 0 -7974.64824415 0 1365
0.03650000 0.03647120 56950.52352989 0 3043.05843309 0 30468.18348858 0 1212.32328243 0 1453.46808647 0 1308
0.03750000 0.03744890 55172.60465909 0 467.91208949 0 30718.73362764 0 -1703.51912167 0 -1931.83141085 0 1579
0.03850000 0.03847530 51272.60707618 0 2669.02999841 0 31847.48474107 0 -3019.76691950 0 -4186.92684795 0 1662
0.03950000 0.03950240 50490.23404345 0 2403.28491953 0 33751.06687329 0 3592.41650914 0 -1432.30608270 0 1683
0.04050000 0.04050350 46765.14463642 0 425.34185737 0 31813.54567840 0 4788.51337043 0 -2751.08267343 0 1822
0.04150000 0.04152450 45526.81249716 0 495.02008395 0 28757.14453538 0 6186.49219857 0 5595.86377868 0 1887
0.04250000 0.04250150 46663.88200829 0 643.21400286 0 23522.32139976 0 5376.70172698 0 777.30435572 0 1920
0.04350000 0.04349210 42711.31215185 0 1319.15369143 0 21887.36805762 0 1182.86506333 0 3526.31297532 0 2005
0.04450000 0.04448520 41541.07996184 0 2185.54254104 0 18530.17365336 0 2020.20606813 0 3976.58229783 0 2151
0.04550000 0.04548030 39367.53809590 0 -399.02688349 0 20570.84297987 0 870.88965733 0 3582.93353574 0 2274
0.04650000 0.04648670 39088.59449265 0 836.27181342 0 16310.27058418 0 1450.97256716 0 -1044.41697919 0 2311
0.04750000 0.04749250 38536.80744448 0 769.44513356 0 16200.91138227 0 -396.40381541 0 -919.04430712 0 2568
0.04850000 0.04851840 36775.74719304 0 790.61157382 0 15713.34236442 0 -2274.41630219 0 -3374.13066200 0 2493
0.04950000 0.04949480 36829.76132218 0 -236.07279968 0 16001.15892523 0 1508.50260573 0 -4532.81691598 0 2644
0.05050000 0.05050630 37880.20858514 0 -1076.35962640 0 13098.37085994 0 4513.46277731 0 -4754.56321657 0 2829
0.05150000 0.05149060 39183.75696247 0 -709.01918347 0 13776.81937727 0 970.24570871 0 -4109.22192213 0 2784
0.05250000 0.05249300 37451.42291112 0 583.23170064 0 8520.03567169 0 334.14338134 0 -4192.87172952 0 3055
0.05350000 0.05348950 38262.41123198 0 674.72742075 0 10755.25568386 0 542.19981753 0 -3831.16561464 0 3009
0.05450000 0.05448610 36270.32134811 0 495.69775609 0 8927.63715953 0 362.27287504 0 -1827.90689545 0 3336
0.05550000 0.05550870 36042.39725082 0 1124.25917866 0 12638.19709856 0 543.52632469 0 -423.07703495 0 3349
0.05650000 0.05647670 35122.38246397 0 353.74596283 0 8660.03985076 0 534.62453002 0 -2295.43412040 0 3324
0.05750000 0.05747970 33648.14056561 0 522.78245903 0 11679.69585830 0 1094.96289104 0 708.46462362 0 3639
0.05850000 0.05849280 33723.22796895 0 987.04998121 0 10618.14630718 0 -1318.72113475 0 888.44813122 0 3846
0.05950000 0.05951020 33624.73814005 0 195.15515590 0 12597.60331773 0 1974.89852860 0 3787.33320430 0 3787
0.06050000 0.06049470 32419.12503178 0 807.33820794 0 12684.44738983 0 -344.84084080 0 1815.35166050 0 3930
0.06150000 0.06148310 32240.22402500 0 691.16790198 0 14333.81928800 0 -1753.45169033 0 6515.63455920 0 4083
0.06250000 0.06249100 31319.10011845 0 120.87630082 0 15517.36091435 0 2334.96314633 0 4321.01941906 0 4303
0.06350000 0.06350600 31922.90488031 0 -163.95007329 0 12304.90663027 0 2664.75988758 0 8250.98541612 0 4470
0.06450000 0.06451750 31303.68335469 0 499.27910358 0 13261.96601493 0 -134.65378567 0 3574.12712537 0 4479
0.06550000 0.06550280 31155.83769937 0 449.44968305 0 14738.31524071 0 370.83195172 0 5549.84640254 0 4636
0.06650000 0.06648880 29450.67708055 0 1170.68692908 0 12396.96356494 0 -198.01890295 0 5196.88015086 0 4653
0.06750000 0.06749660 28546.63361730 0 533.18489265 0 12831.40574940 0 31.93954168 0 4483.60527512 0 5220
0.06850000 0.06852730 28040.87503647 0 454.13571376 0 12244.90325478 0 1561.85126305 0 2288.91249660 0 5029
0.06950000 0.06949320 27659.11603751 0 382.66182239 0 11664.83365438 0 444.13034500 0 2278.20949154 0 5040
0.07050000 0.07048030 26569.96049719 0 433.00365622 0 11039.21250813 0 -453.14416076 0 3430.03029462 0 5475
0.07150000 0.07148790 26584.04631732 0 326.90748445 0 11134.11988041 0 1003.75332381 0 1571.24550687 0 5509
0.07250000 0.07249820 25704.07075144 0 -0.75259539 0 11248.69194489 0 808.54825753 0 2000.26409602 0 5916
0.07350000 0.07351270 26200.73455079 0 170.59702762 0 9544.75135773 0 -103.60275978 0 -289.49909538 0 5721
0.07450000 0.07449140 25664.80791425 0 396.37054182 0 11903.84894862 0 354.96266713 0 3675.66703343 0 6028
0.07550000 0.07549160 26035.80845217 0 -298.52178410 0 10962.49469884 0 -129.33666585 0 2772.69941628 0 6183
0.07650000 0.07648840 26097.91915508 0 -230.17450115 0 10106.30975042 0 1285.19244638 0 925.11784657 0 6330
0.07750000 0.07749960 26382.63018074 0 414.25176954 0 10633.20815264 0 -154.18316526 0 1942.68969266 0 6583
0.07850000 0.07848650 25355.47443136 0 699.79352585 0 10251.46024488 0 -476.44787466 0 184.93350879 0 6549
0.07950000 0.07947320 25465.16636918 0 293.16140862 0 10998.43017695 0 1095.66274556 0 4358.43002636 0 6828
0.08050000 0.08048110 23692.01671307 0 268.29938154 0 10886.68636769 0 707.48416181 0 1649.22771261 0 7147
0.08150000 0.08149960 24165.05626291 0 564.41548502 0 9972.18390572 0 1257.94137547 0 3650.31255721 0 7386
0.08250000 0.08250610 23052.05464916 0 240.58358948 0 9301.68777661 0 1181.43429892 0 2536.81183959 0 7227
0.08350000 0.08350160 23179.93614997 0 -139.43630979 0 8905.90950471 0 720.76254280 0 4678.30014635 0 7798
0.08450000 0.08449610 22711.11125497 0 468.60972578 0 7970.95487557 0 -316.28988161 0 2675.91763171 0 7371
0.08550000 0.08548940 22484.62901328 0 692.10732636 0 8893.38754336 0 -888.01335630 0 1640.33257266 0 8256
0.08650000 0.08650700 21303.97109815 0 716.59114363 0 9247.96201859 0 -1219.21091573 0 2201.99078612 0 8037
0.08750000 0.08749060 20824.49865407 0 433.97302683 0 9826.55648979 0 -252.29922082 0 -215.97444169 0 8155
0.08850000 0.08849210 20395.60206809 0 57.86909646 0 9169.29215864 0 698.41599919 0 -210.47209889 0 8718
0.08950000 0.08949900 19915.02050432 0 403.60311135 0 9364.02030346 0 -559.06952809 0 -2870.78996209 0 8571
0.09050000 0.09049190 19820.52350632 0 373.81326546 0 9576.42781622 0 -389.95539350 0 -1631.64816545 0 8932
0.09150000 0.09150830 18782.94203181 0 50.01874726 0 8779.91350738 0 897.87343039 0 -3404.04362017 0 9285
0.09250000 0.09250820 19156.71536897 0 -7.29926090 0 8763.63163026 0 927.56789198 0 -1445.60442784 0 9204
0.09350000 0.09350330 19538.91801581 0 -417.72553242 0 6670.85586049 0 1664.44483482 0 -2986.16059275 0 9349
0.09450000 0.09448040 19233.79918776 0 66.32014489 0 6526.78121214 0 1178.41749335 0 -764.09252192 0 9564
0.09550000 0.09549270 19399.83440608 0 405.26235441 0 5784.09248209 0 -100.77794283 0 -710.57749664 0 10155
0.09650000 0.09649430 18584.40960644 0 138.60336090 0 6238.29917951 0 222.77778190 0 -558.54047800 0 9913
0.09750000 0.09749140 18325.98471755 0 383.09770643 0 5821.64727496 0 -25.60424998 0 645.41560545 0 10476
0.09850000 0.09850240 18177.47359041 0 199.81345862 0 6092.74940196 0 525.34230729 0 298.93659487 0 10575
0.09950000 0.09950330 17860.26535769 0 244.79269872 0 6082.85605428 0 22.69624905 0 535.27447416 0 10882
0.10050000 0.10051200 17415.17562416 0 349.46476080 0 6440.51388227 0 -244.08397124 0 624.28798439 0 10875
0.10150000 0.10150300 16635.13174279 0 494.04073126 0 6175.14590409 0 131.30978979 0 430.17318276 0 11118
0.10250000 0.10250800 16659.42146411 0 275.52640547 0 6498.44320393 0 -144.61589877 0 712.20568435 0 11575
0.10350000 0.10349800 16042.86182576 0 130.39032956 0 5939.19178021 0 1149.35855735 0 777.72138473 0 11364
0.10450000 0.10450100 16022.78675928 0 185.29951829 0 6098.17299727 0 358.13253122 0 1637.17158153 0 12093
0.10550000 0.10551000 15533.11041402 0 180.24636896 0 5503.91775598 0 135.74626857 0 1186.81352944 0 12067
0.10650000 0.10649700 15602.43039494 0 316.78011252 0 6141.45084776 0 -188.55034812 0 2095.20474190 0 12054
0.10750000 0.10749900 14849.78177004 0 495.66670074 0 6758.14358048 0 -514.09916094 0 1437.14184457 0 12807
0.10850000 0.10850100 14700.27243517 0 57.04380050 0 6325.10997803 0 -96.56395346 0 1319.99662240 0 12736
0.10950000 0.10950300 14661.89689373 0 -173.36649950 0 7306.02652732 0 326.21539376 0 473.02734953 0 12933
0.11050000 0.11050200 14942.06052865 0 -115.43163224 0 6364.89410148 0 473.56749082 0 388.94165810 0 13428
0.11150000 0.11150900 15084.36058549 0 24.33830076 0 5927.86766813 0 222.35742554 0 1102.62912637 0 13453
0.11250000 0.11250000 14866.19674152 0 57.66346567 0 5863.10616915 0 696.38076455 0 594.76987283 0 13668
0.11350000 0.11349100 14916.10712779 0 32.61521739 0 5370.24665036 0 629.93784011 0 1696.83112991 0 13791
0.11450000 0.11448600 14839.24513294 0 101.57295983 0 4445.48483121 0 500.58010098 0 1220.50858577 0 14205
0.11550000 0.11549300 14921.20907838 0 157.97857285 0 5156.54146756 0 252.50108060 0 2311.62726795 0 14776
0.11650000 0.11649800 14129.40852825 0 230.60594871 0 4217.66055470 0 -205.73061219 0 996.88454554 0 14553
0.11750000 0.11747300 14370.75297384 0 292.13325466 0 5015.16198006 0 170.90647201 0 2688.77232898 0 14568
0.11850000 0.11849100 13860.66882619 0 -1.76224701 0 4431.74283819 0 87.95496639 0 1996.65945701 0 16015
0.11950000 0.11950300 13858.89423468 0 -55.37213529 0 4497.59127447 0 505.14080117 0 1924.76631839 0 15270
0.12050000 0.12050700 14138.72513369 0 -111.91350457 0 4190.42057499 0 657.15896478 0 1977.63805425 0 15999
0.12150000 0.12150000 14042.12080827 0 9.74860756 0 3722.63825250 0 -113.61267594 0 1844.24422855 0 15670
0.12250000 0.12250700 14112.32808495 0 211.34719433 0 3916.42364558 0 -163.84914340 0 1888.37610121 0 16887
0.12350000 0.12352200 13867.32354436 0 208.05532707 0 4532.00725860 0 -831.27633831 0 795.00701517 0 16407
0.12450000 0.12449800 13489.11372843 0 335.70502187 0 4981.18964381 0 -560.63560510 0 1027.77796552 0 16306
0.12550000 0.12549900 13340.04804144 0 237.95053933 0 5477.68707520 0 -277.05588153 0 552.08761961 0 17523
0.12650000 0.12650100 13028.49631917 0 85.82057645 0 5160.52320727 0 55.89741438 0 217.28985765 0 17154
0.12750000 0.12750600 13045.90949838 0 75.66880388 0 5524.38101435 0 722.15670626 0 -7.35391832 0 18007
0.12850000 0.12850300 12812.10706671 0 307.46572532 0 5546.54122585 0 -92.99868820 0 615.44497306 0 17496
0.12950000 0.12949900 12389.42155101 0 302.69429239 0 5101.65113386 0 67.57699933 0 419.25168112 0 18405
0.13050000 0.13049000 12171.70135492 0 97.81415318 0 5573.12682494 0 425.81212412 0 1015.87045648 0 18100
0.13150000 0.13148800 11908.50725134 0 -108.26516624 0 4761.75031219 0 375.41483430 0 1229.81410001 0 19059
0.13250000 0.13249300 12377.22123437 0 -122.74849487 0 4570.48262082 0 518.68537088 0 616.79144437 0 18957
0.13350000 0.13349100 12183.34711171 0 19.14285137 0 4103.68741486 0 125.89506744 0 742.87173480 0 19468
0.13450000 0.13450700 12264.97832125 0 28.59964954 0 3728.36131013 0 377.11067832 0 617.09867052 0 19953
0.13550000 0.13551000 12247.23240614 0 -18.49812009 0 3746.53978193 0 211.58787330 0 566.48953885 0 19956
0.13650000 0.13649900 12126.11653546 0 166.17829476 0 3253.26988885 0 -279.35619577 0 338.28483428 0 19723
0.13750000 0.13749600 11770.20002539 0 438.08675178 0 3668.97904167 0 -323.98606317 0 -442.87703974 0 20946
0.13850000 0.13851100 11378.79168509 0 333.90713884 0 3959.28003059 0 -502.05633930 0 -145.08727464 0 20955
0.13950000 0.13949800 11202.10891770 0 151.66657267 0 4074.14046619 0 126.27327726 0 -138.15860391 0 20506
0.14050000 0.14048300 10976.90216367 0 -74.04682724 0 3949.29795334 0 660.68929277 0 -59.68672182 0 21447
0.14150000 0.14148400 11058.54446441 0 -84.46013023 0 3756.83241270 0 216.96488558 0 -122.46899670 0 21771
0.14250000 0.14249400 11108.38830349 0 61.58098734 0 3344.69462530 0 265.28479421 0 199.05260251 0 22470
0.14350000 0.14350900 11123.47233134 0 63.84691888 0 3552.25528499 0 110.77166584 0 571.08462174 0 22519
0.14450000 0.14449900 11003.36575959 0 113.83339076 0 3508.06795634 0 -293.59840178 0 128.28632950 0 22218
0.14550000 0.14550500 10868.08643041 0 278.86485575 0 3923.77710916 0 -312.79615457 0 -91.96155038 0 23559
0.14650000 0.14650700 10366.70887237 0 355.19336403 0 4007.70419647 0 -403.95359317 0 -295.72791159 0 23044
0.14750000 0.14750500 10290.37925497 0 62.24368636 0 4293.47997704 0 125.14752077 0 284.27070514 0 23649
0.14850000 0.14849900 10171.06015820 0 -40.65755521 0 4024.56281583 0 421.95793318 0 -439.44653252 0 23640
0.14950000 0.14949500 10219.66178323 0 120.18864661 0 3991.22267780 0 388.12534601 0 65.83978515 0 24457
0.15050000 0.15050000 9899.33692417 0 38.42068261 0 3466.73106532 0 261.83765019 0 91.08157481 0 24591
0.15150000 0.15149900 9838.49061771 0 102.03490818 0 3264.84909847 0 331.85748565 0 986.57971446 0 25020
0.15250000 0.15250500 9769.01536002 0 77.68773446 0 3139.30784021 0 177.01883065 0 97.33944995 0 25297
0.15350000 0.15350100 9657.78174583 0 119.61412261 0 3378.14567529 0 -111.85693946 0 517.89567766 0 25452
0.15450000 0.15450400 9358.74089371 0 172.68993648 0 3127.99481932 0 -167.36061635 0 116.95001710 0 26061
0.15550000 0.15549900 9473.54587332 0 -19.44896841 0 3000.33514245 0 33.02747718 0 50.99621445 0 26128
0.15650000 0.15649500 9301.65450302 0 110.78918993 0 3242.31178627 0 111.65064320 0 -245.42046047 0 26331
0.15750000 0.15749700 9473.53478213 0 30.93856115 0 3160.20365526 0 -96.93950139 0 -380.45800156 0 27345
0.15850000 0.15849900 9305.19259485 0 23.17716335 0 3062.09092706 0 180.41939164 0 194.46417433 0 26980
0.15950000 0.15949700 9123.20823532 0 45.06564053 0 3092.62499225 0 30.04949080 0 -257.14385565 0 27777
0.16050000 0.16050000 9256.30259870 0 64.62585364 0 2924.77081764 0 133.03336180 0 300.74335085 0 28224
0.16150000 0.16150500 9261.83710598 0 47.46311366 0 3150.16612202 0 27.20914618 0 -185.68327371 0 28075
0.16250000 0.16249700 9126.59105039 0 116.76923059 0 2964.66585306 0 -75.38919481 0 -153.04077197 0 28590
0.16350000 0.16349900 9072.12218218 0 95.68941258 0 3354.96507367 0 -228.85797607 0 -31.37200513 0 29163
0.16450000 0.16449100 8917.96563579 0 131.10127529 0 3017.04957625 0 -201.45939225 0 -472.08792514 0 28996
0.16550000 0.16550500 8773.24769801 0 148.43792524 0 3708.80752991 0 -58.30952789 0 -627.82607621 0 30777
0.16650000 0.16650700 8672.61726810 0 105.97938146 0 3253.71353673 0 28.22953630 0 -926.05727095 0 29211
0.16750000 0.16749900 8471.53386743 0 85.08656104 0 3561.38334007 0 244.57863862 0 -519.11349108 0 30922
0.16850000 0.16850800 8373.62078077 0 42.75589876 0 3189.08513211 0 172.16975935 0 -624.30794854 0 30867
0.16950000 0.16949900 8365.69057495 0 -29.26623048 0 2695.61559749 0 573.77645524 0 -437.97029421 0 30852
0.17050000 0.17049200 8412.08505179 0 -9.57012802 0 2591.24743421 0 260.60319997 0 -225.15351629 0 31257
0.17150000 0.17149500 8321.28142237 0 112.71872547 0 2076.51607504 0 288.09384073 0 -121.33436725 0 32608
0.17250000 0.17250900 8153.56034212 0 140.76725343 0 2338.55669414 0 28.72420368 0 517.49528545 0 32361
0.17350000 0.17350400 8005.98087553 0 60.80227441 0 2165.51183935 0 192.72063817 0 265.76615215 0 32508
0.17450000 0.17449800 8041.36179379 0 -17.00912690 0 2132.90372032 0 463.10738297 0 798.29999155 0 32791
0.17550000 0.17549800 7981.34732711 0 49.28317908 0 1966.56903969 0 -96.76769875 0 228.90677734 0 33633
0.17650000 0.17650100 7873.58525756 0 168.53295587 0 2239.22393427 0 -202.32561473 0 904.36067148 0 33984
0.17750000 0.17750300 7773.05464842 0 127.54987402 0 2114.27050945 0 -35.78563604 0 905.02281594 0 34069
0.17850000 0.17849800 7706.61837870 0 14.85865473 0 2174.11860818 0 223.21477506 0 1158.69734518 0 34536
