### header ###
fiducial parameters:
Omega_m = 0.31
Omega_nu = 0
Omega_de = 0.69
Omega_k = 0
H_0 = 100
w_de = -1
zeff = 0
beta = 0
fgrowth = 0
b_1 = 2
gamma = 0.55
Lx = 3500 Ly = 3500 Lz = 3500
nx = 700 ny = 700 nz = 700
xoffset = 1379.75464 yoffset = 22.6059522 zoffset = 368.141391
bins = 400 dk = 0.001
kx_ny = 0.628318531 ky_ny = 0.628318531 kz_ny = 0.628318531
############################
A(data) = 3.33310957 (not used)
A(ran) = 3.3342003 (used)
Ngal = 187343
weighted Ngal = 0
Nran = 9399747
weighted Nran = 0
SN(data) = 6672.04549
SN(ran) = 132.619093
SN(data+ran) = 6804.66458
############################
13 columns: k_central k_mean P_0(k) sigma^{lin}_{P_0(k)} P^img_1(k) sigma^{lin}_{P_1(k)} P_2(k) sigma^{lin}_{P_2(k)} P^img_3(k) sigma^{lin}_{P_3(k)} P_4(k) sigma^{lin}_{P_4(k)} N_modes
### header ###
0.00050000 0 0 0 0 0 0 0 0 0 0 0 0
0.00150000 0.00179520 20917.66470844 0 -20255.63116260 0 -14022.60030164 0 -5398.64011455 0 -20299.10865464 0 3
0.00250000 0.00253879 46992.62508583 0 -25501.43458320 0 -39006.96328311 0 14847.56353065 0 74877.55789321 0 6
0.00350000 0.00331552 59871.94480605 0 -24788.93609125 0 -23517.10853719 0 -59591.33752326 0 -67228.62482983 0 7
0.00450000 0.00420575 69256.87201576 0 -10721.69372189 0 -48429.26782654 0 -15254.61045865 0 10322.44390535 0 24
0.00550000 0.00557378 82585.71794828 0 -5677.79445054 0 -54346.64322235 0 -21900.01202214 0 2754.95350117 0 45
0.00650000 0.00659388 89236.44328631 0 -5415.06617723 0 -70145.94236313 0 -15751.93972980 0 12789.14828903 0 40
0.00750000 0.00754703 82379.97624489 0 -1816.13913548 0 -50540.03351775 0 -5269.72713242 0 5125.98521997 0 57
0.00850000 0.00846663 85304.94670408 0 -9678.00099787 0 -72717.10363966 0 7326.25687056 0 10557.76583100 0 75
0.00950000 0.00948925 101860.33274081 0 -16357.96273106 0 -75199.53534061 0 4842.15039887 0 -6519.35011018 0 112
0.01050000 0.01054430 104621.59713304 0 9491.02559971 0 -77991.74417233 0 -43431.79630561 0 -6884.98250878 0 105
0.01150000 0.01145670 90963.45356312 0 16196.47490349 0 -37300.13898475 0 -41007.03882879 0 11674.92664361 0 144
0.01250000 0.01249090 73176.27919332 0 9153.72011813 0 -16966.98035548 0 -18085.08391983 0 7581.55404191 0 169
0.01350000 0.01339930 73701.55828079 0 1688.72346494 0 15948.14300382 0 -6601.92407146 0 21109.76423958 0 180
0.01450000 0.01448870 73247.37376576 0 -3308.87005915 0 4422.61478310 0 19809.98686922 0 14539.00643155 0 267
0.01550000 0.01550050 77627.17652864 0 -3009.24137360 0 24341.62811833 0 2749.57427065 0 12905.60585698 0 238
0.01650000 0.01653350 81414.93119843 0 1926.07507963 0 10280.84082559 0 3512.41570555 0 47303.28951235 0 315
0.01750000 0.01747870 87079.20547989 0 2.61140014 0 39227.12354253 0 11758.33244466 0 47361.85103224 0 297
0.01850000 0.01844180 85904.53681110 0 -2791.96482538 0 29375.81150115 0 254.50304165 0 60704.45004898 0 388
0.01950000 0.01947590 85825.78931277 0 2087.90673431 0 42400.86954927 0 7212.46118987 0 30465.29977738 0 399
0.02050000 0.02045430 93407.73154657 0 3472.54285252 0 41495.71696632 0 -9160.77411938 0 51518.05526465 0 462
0.02150000 0.02154770 84587.56808547 0 2095.22692429 0 55609.37599491 0 2157.93655184 0 36812.68087888 0 571
0.02250000 0.02255340 85112.40352506 0 5481.18080224 0 74961.85099001 0 -2297.14216473 0 35767.33556651 0 510
0.02350000 0.02348930 77432.85875811 0 7211.06369905 0 62793.80973009 0 -5302.51271060 0 7003.66940732 0 555
0.02450000 0.02439640 76071.41433271 0 4786.99387644 0 69337.50501757 0 9327.10880002 0 10438.40236944 0 592
0.02550000 0.02547300 65003.06525020 0 1704.51732940 0 61492.47959215 0 7302.22224677 0 11343.85441470 0 837
0.02650000 0.02652900 67811.02358159 0 1664.86630031 0 63516.84485914 0 8738.39915720 0 1192.05966560 0 723
0.02750000 0.02749970 65473.22108884 0 805.58579882 0 48469.86160737 0 11818.22490818 0 6184.77306304 0 826
0.02850000 0.02848090 61496.13968715 0 844.90076464 0 44003.10386041 0 2417.54819880 0 -8277.02754655 0 831
0.02950000 0.02946900 60543.40586929 0 3047.37290871 0 41446.58296384 0 2538.06514484 0 -437.85272752 0 996
0.03050000 0.03053250 55475.83798365 0 1750.30179040 0 36446.00590777 0 3346.32503125 0 3077.88479151 0 1041
0.03150000 0.03150510 54850.51629971 0 535.97432868 0 32189.20451904 0 6486.75308235 0 -5712.25479946 0 1036
0.03250000 0.03246190 53992.27947986 0 322.10610529 0 32955.16258028 0 3812.80968369 0 -431.93557395 0 1059
0.03350000 0.03345080 53387.47651027 0 393.81845740 0 27663.88525220 0 3734.53910683 0 745.34950819 0 1302
0.03450000 0.03451200 53447.14714985 0 -327.93342017 0 26694.62555089 0 3519.38097723 0 4432.70777233 0 1339
0.03550000 0.03553350 52697.38223615 0 1636.19555620 0 26435.53519018 0 -315.74419472 0 -2651.63900159 0 1365
0.03650000 0.03647120 50081.85617182 0 2567.05753367 0 26446.84821107 0 -4755.48378591 0 -9596.93543937 0 1308
0.03750000 0.03744890 48914.72951696 0 1341.76864201 0 30069.01131042 0 -1341.11426139 0 -7188.44874848 0 1579
0.03850000 0.03847530 45466.92003364 0 476.98690684 0 27486.31518905 0 1149.90202600 0 -7668.22065487 0 1662
0.03950000 0.03950240 46901.34453495 0 -310.66442652 0 26386.51209967 0 5021.31759437 0 -7229.18671487 0 1683
0.04050000 0.04050350 47080.13462975 0 -575.44568038 0 22656.76438992 0 2426.54315953 0 -13792.67978890 0 1822
0.04150000 0.04152450 48357.28595834 0 684.58527659 0 18711.40381150 0 3316.00169879 0 -9290.89604198 0 1887
0.04250000 0.04250150 45635.50622725 0 469.03008214 0 19026.06106892 0 -705.55762090 0 -9534.46981816 0 1920
0.04350000 0.04349210 44580.28974959 0 2240.72124586 0 21140.48685513 0 -1527.96765637 0 -6090.35370342 0 2005
0.04450000 0.04448520 42806.47462167 0 803.52172707 0 20438.41408831 0 -223.69835125 0 -10402.85508322 0 2151
0.04550000 0.04548030 42136.23359008 0 1929.53553308 0 22911.52918382 0 1472.42294206 0 -4088.76975496 0 2274
0.04650000 0.04648670 39415.45206672 0 1294.87506131 0 21633.49055948 0 1535.52076150 0 -5393.89308225 0 2311
0.04750000 0.04749250 37859.02439897 0 744.68070902 0 21929.62551800 0 1184.72838442 0 -3620.94306769 0 2568
0.04850000 0.04851840 37899.50726783 0 -184.42775021 0 21748.72809577 0 3644.64495556 0 1584.98749989 0 2493
0.04950000 0.04949480 37127.00540039 0 -142.16252600 0 17417.83751143 0 4216.26306388 0 2073.66563742 0 2644
0.05050000 0.05050630 38438.76126346 0 -16.43305013 0 17833.97922093 0 2365.34193477 0 5377.69993471 0 2829
0.05150000 0.05149060 37409.38727469 0 640.26041711 0 16887.56738533 0 1413.08503839 0 6157.25580341 0 2784
0.05250000 0.05249300 35498.04130460 0 1567.51886469 0 16160.31760144 0 -773.17843046 0 3722.51624934 0 3055
0.05350000 0.05348950 35081.01229935 0 946.14453775 0 16165.75228794 0 -1392.61068882 0 3198.04681925 0 3009
0.05450000 0.05448610 33737.09196513 0 1018.56118086 0 20555.31530414 0 -1079.91546414 0 2967.93775616 0 3336
0.05550000 0.05550870 31962.27862948 0 985.30422681 0 17163.62727737 0 2426.17715003 0 1292.69009551 0 3349
0.05650000 0.05647670 31646.40134039 0 -628.99508837 0 17340.97551658 0 1502.38026502 0 3369.19507936 0 3324
0.05750000 0.05747970 32107.35148556 0 -92.67671076 0 14971.67402450 0 1576.33636627 0 423.93105711 0 3639
0.05850000 0.05849280 32043.24436720 0 109.18329553 0 12647.40279203 0 3272.30238282 0 3065.64011008 0 3846
0.05950000 0.05951020 30919.92794029 0 -28.86417459 0 11510.44419287 0 2089.75896420 0 1705.20498361 0 3787
0.06050000 0.06049470 31867.67071951 0 562.04751447 0 10588.07807226 0 -536.80062286 0 2835.87487410 0 3930
0.06150000 0.06148310 30658.84116412 0 689.88243226 0 11058.96592989 0 644.04029703 0 3105.05822403 0 4083
0.06250000 0.06249100 29384.24081083 0 795.23993031 0 10774.11071867 0 496.45195748 0 3458.27957324 0 4303
0.06350000 0.06350600 28570.14695484 0 372.82947629 0 11101.06811351 0 262.10162068 0 4933.39767616 0 4470
0.06450000 0.06451750 28756.70088750 0 -208.97589642 0 10825.03040386 0 1418.38663053 0 4284.59592828 0 4479
0.06550000 0.06550280 29723.29870154 0 -869.27921554 0 9303.93928959 0 2455.33590681 0 5753.50296091 0 4636
0.06650000 0.06648880 30306.91748496 0 -536.62870930 0 8030.71424472 0 1799.74634639 0 6000.27100181 0 4653
0.06750000 0.06749660 30261.99813732 0 -89.89060208 0 7071.70280940 0 305.50147434 0 5110.11371714 0 5220
0.06850000 0.06852730 31208.52088488 0 551.35560061 0 8148.00365245 0 -206.86191428 0 5552.00918595 0 5029
0.06950000 0.06949320 29030.76436409 0 846.32598345 0 8246.06092467 0 -1122.12966884 0 1493.82895217 0 5040
0.07050000 0.07048030 28311.72206594 0 1716.42927492 0 11056.59241374 0 -2450.45578015 0 4229.51704424 0 5475
0.07150000 0.07148790 26282.92032017 0 1215.68391510 0 9402.67312483 0 -143.85282442 0 1890.58324940 0 5509
0.07250000 0.07249820 25633.75256279 0 24.21563212 0 13034.48556552 0 1309.63744445 0 4717.74044270 0 5916
0.07350000 0.07351270 25084.18375401 0 -559.25586020 0 8345.73751164 0 3428.16697353 0 2215.63295836 0 5721
0.07450000 0.07449140 26505.40973095 0 -217.79783447 0 8919.92877765 0 1799.70198161 0 4873.77140137 0 6028
0.07550000 0.07549160 26341.26001612 0 -309.30686401 0 5269.32784933 0 1233.39655663 0 6237.01260067 0 6183
0.07650000 0.07648840 26165.24272055 0 81.55068745 0 6239.23084006 0 922.64894613 0 6586.07475102 0 6330
0.07750000 0.07749960 26431.98600716 0 263.28948788 0 4616.53327055 0 303.80008473 0 6239.96285905 0 6583
0.07850000 0.07848650 25470.60105568 0 566.49841181 0 6725.10290477 0 -743.97863625 0 5184.59110464 0 6549
0.07950000 0.07947320 24304.80534446 0 1392.45541206 0 7872.22104033 0 -1794.17856553 0 6508.21454844 0 6828
0.08050000 0.08048110 23729.39404678 0 719.83420962 0 8488.78067869 0 -27.39337096 0 6705.17202385 0 7147
0.08150000 0.08149960 22524.77914624 0 41.71343716 0 8702.16421677 0 785.96547142 0 5621.05188695 0 7386
0.08250000 0.08250610 23081.11358516 0 355.87769088 0 8048.77071336 0 791.49332398 0 5758.46072594 0 7227
0.08350000 0.08350160 22148.45483378 0 111.54749507 0 7599.38868660 0 992.55343314 0 5947.54345151 0 7798
0.08450000 0.08449610 22361.96037504 0 91.65155142 0 8110.22703565 0 -10.31151908 0 6739.84310551 0 7371
0.08550000 0.08548940 22412.86896903 0 -406.21841559 0 6436.47668658 0 956.37505781 0 5526.73234810 0 8256
0.08650000 0.08650700 22503.15131219 0 78.72709053 0 6848.19300850 0 186.72362798 0 4936.61412328 0 8037
0.08750000 0.08749060 22611.95595425 0 188.32519682 0 6603.90939571 0 -934.58085581 0 3216.76875970 0 8155
0.08850000 0.08849210 21537.10805800 0 1059.09728747 0 8715.87293620 0 -2140.78956136 0 2832.14823193 0 8718
0.08950000 0.08949900 21184.18617111 0 908.38123038 0 9179.57369821 0 -1271.06226146 0 2048.16697564 0 8571
0.09050000 0.09049190 19737.22861724 0 172.16754111 0 9758.64509088 0 679.41899706 0 1391.36847476 0 8932
0.09150000 0.09150830 19886.62704013 0 401.27285087 0 10310.01067357 0 554.99905881 0 1683.02258971 0 9285
0.09250000 0.09250820 19042.58695237 0 612.41707629 0 10689.44052117 0 -205.08510453 0 1480.00932077 0 9204
0.09350000 0.09350330 18342.84333691 0 739.22051276 0 10794.81798337 0 -244.72171506 0 3170.06372935 0 9349
0.09450000 0.09448040 17904.51923352 0 186.18015933 0 10649.93367764 0 853.14928781 0 2073.93182615 0 9564
0.09550000 0.09549270 17594.74210275 0 -105.72417302 0 10498.41683613 0 1194.06717225 0 2729.17755946 0 10155
0.09650000 0.09649430 18009.55286862 0 -158.03846532 0 9223.97175960 0 1210.82597084 0 3452.17941492 0 9913
0.09750000 0.09749140 17678.48063971 0 24.21430118 0 8219.27568404 0 774.82214585 0 2429.91488340 0 10476
0.09850000 0.09850240 17728.83467386 0 287.01577639 0 8336.67600374 0 -67.13945161 0 2990.48615956 0 10575
0.09950000 0.09950330 17065.69200832 0 414.18854971 0 6963.07562649 0 301.62842837 0 2087.37435685 0 10882
0.10050000 0.10051200 16906.53333211 0 130.88499695 0 8121.44023576 0 307.82286186 0 2619.68526319 0 10875
0.10150000 0.10150300 16265.79488442 0 88.37576640 0 5864.68111911 0 704.02259925 0 1648.52896720 0 11118
0.10250000 0.10250800 16411.42230035 0 35.01623971 0 6918.64429151 0 1064.47651799 0 2403.06309559 0 11575
0.10350000 0.10349800 16108.52171169 0 -22.93226972 0 4623.21017111 0 640.30367278 0 734.55333709 0 11364
0.10450000 0.10450100 16034.43251608 0 130.98592684 0 5400.37034127 0 386.08456577 0 2182.30391153 0 12093
0.10550000 0.10551000 15717.00245942 0 372.04421955 0 4565.01466072 0 -371.16246939 0 1139.22120334 0 12067
0.10650000 0.10649700 15225.66243461 0 180.49592090 0 4613.26136745 0 -48.35473498 0 1650.56974744 0 12054
0.10750000 0.10749900 15024.13538606 0 213.10403992 0 4323.33747922 0 118.54160386 0 341.70979590 0 12807
0.10850000 0.10850100 15081.47687428 0 -46.66665481 0 4360.27116506 0 325.56988610 0 643.09199969 0 12736
0.10950000 0.10950300 14809.18798921 0 80.06025240 0 4499.98697301 0 177.51571628 0 473.43661469 0 12933
0.11050000 0.11050200 14918.76901505 0 113.24444820 0 4409.77117704 0 54.89854118 0 480.88768080 0 13428
0.11150000 0.11150900 14461.92261276 0 132.70728061 0 4086.29641804 0 11.79149512 0 414.62221552 0 13453
0.11250000 0.11250000 14773.58524700 0 -76.82805579 0 4159.95305698 0 166.42008285 0 804.27703758 0 13668
0.11350000 0.11349100 14605.22087733 0 160.69480698 0 4226.88843056 0 127.79055300 0 685.72988812 0 13791
0.11450000 0.11448600 14577.60379693 0 316.40523006 0 3904.14569056 0 -637.49316347 0 -637.52310970 0 14205
0.11550000 0.11549300 13764.17541274 0 518.29496075 0 5118.47647964 0 -947.55644712 0 143.87833417 0 14776
0.11650000 0.11649800 13526.71288608 0 191.44071404 0 4558.65940487 0 24.70930130 0 -1039.38712137 0 14553
0.11750000 0.11747300 13842.36835123 0 -277.19341237 0 4824.69285487 0 951.32856320 0 -468.68181856 0 14568
0.11850000 0.11849100 13508.07967521 0 -133.09879986 0 3626.15593025 0 1216.40484290 0 -846.94043576 0 16015
0.11950000 0.11950300 13722.47251222 0 81.36568628 0 3086.34737478 0 172.73541039 0 -913.72385995 0 15270
0.12050000 0.12050700 13509.07788294 0 185.14645978 0 2651.30626568 0 48.04617788 0 -237.62778550 0 15999
0.12150000 0.12150000 13136.41366547 0 183.84546237 0 3498.27442944 0 95.68885802 0 -662.90975040 0 15670
0.12250000 0.12250700 13201.29716762 0 27.71534841 0 2210.64191973 0 386.18438654 0 184.76603172 0 16887
0.12350000 0.12352200 13077.96305756 0 133.16645616 0 2570.58453430 0 117.16962280 0 65.95979190 0 16407
0.12450000 0.12449800 12864.23569237 0 90.65434190 0 3005.73655536 0 -35.28730856 0 869.28143377 0 16306
0.12550000 0.12549900 12773.28787739 0 146.94394101 0 3203.49259695 0 152.02370921 0 843.54763862 0 17523
0.12650000 0.12650100 12792.69747205 0 221.27159736 0 3429.95265624 0 -512.47651883 0 1504.82032834 0 17154
0.12750000 0.12750600 12442.77020833 0 149.51155310 0 4152.13376313 0 -277.05920889 0 1304.32476111 0 18007
0.12850000 0.12850300 12694.65129103 0 190.20626382 0 4696.88899244 0 -94.16858766 0 1509.80027577 0 17496
0.12950000 0.12949900 12529.50336847 0 -120.05222489 0 4404.00375462 0 191.47398764 0 1683.99861504 0 18405
0.13050000 0.13049000 12506.98823866 0 88.63286035 0 4957.82049184 0 6.15593595 0 1629.44101725 0 18100
0.13150000 0.13148800 12462.84527481 0 91.59465358 0 4567.79855116 0 101.71703448 0 2020.73844559 0 19059
0.13250000 0.13249300 12307.01395769 0 131.03472811 0 5349.39520010 0 161.69966943 0 1742.20521663 0 18957
0.13350000 0.13349100 12316.44147509 0 165.45736695 0 4486.26716239 0 154.83865500 0 1922.83645013 0 19468
0.13450000 0.13450700 11910.50366679 0 134.60054792 0 4851.78864902 0 186.20899644 0 1995.09559824 0 19953
0.13550000 0.13551000 11899.30155787 0 123.60140791 0 4763.70236285 0 -59.72487553 0 1761.04916024 0 19956
0.13650000 0.13649900 11755.89238133 0 86.25424225 0 4211.16111329 0 -27.98264625 0 1254.90238751 0 19723
0.13750000 0.13749600 11547.15605476 0 43.47638292 0 4473.16845879 0 480.28210145 0 1094.15545190 0 20946
0.13850000 0.13851100 11435.91134937 0 64.37341800 0 4136.36208107 0 270.17268470 0 1699.23791965 0 20955
0.13950000 0.13949800 11558.46907565 0 14.20560505 0 3503.66475116 0 828.23180475 0 1610.81889758 0 20506
0.14050000 0.14048300 11313.79727097 0 70.22746266 0 3377.87948657 0 345.59836955 0 2176.12611483 0 21447
0.14150000 0.14148400 11221.85124827 0 142.71486761 0 3053.56179660 0 28.41963941 0 2143.47363102 0 21771
0.14250000 0.14249400 11082.55690580 0 210.49317216 0 3834.63715929 0 -69.16159863 0 2921.87601524 0 22470
0.14350000 0.14350900 10835.58922335 0 68.97593200 0 3193.78779962 0 237.78084401 0 2794.69325983 0 22519
0.14450000 0.14449900 10868.08643041 0 14.24453515 0 3178.33776227 0 497.54333126 0 3000.09113612 0 22218
0.14550000 0.14550500 10679.72463264 0 118.11459278 0 3240.12682047 0 -45.69196042 0 2997.41815765 0 23559
0.14650000 0.14650700 10718.54382196 0 185.96388099 0 3004.00632864 0 2.23161537 0 2421.45230013 0 23044
0.14750000 0.14750500 10440.90897995 0 140.00750644 0 3372.57789442 0 -107.63973365 0 2477.79558063 0 23649
0.14850000 0.14849900 10147.61336785 0 122.28821019 0 3398.27619775 0 -333.55000230 0 2013.92845066 0 23640
0.14950000 0.14949500 10039.94002788 0 153.37018052 0 3235.26887621 0 -10.37611421 0 1390.89155329 0 24457
0.15050000 0.15050000 9802.08930932 0 228.97665188 0 3193.36633414 0 -241.80694851 0 745.91626836 0 24591
0.15150000 0.15149900 9705.71789904 0 117.66872666 0 3364.10421996 0 -116.45313148 0 900.45102456 0 25020
0.15250000 0.15250500 9433.15173404 0 -83.16789488 0 2823.78546943 0 567.44005443 0 484.54223020 0 25297
0.15350000 0.15350100 9677.85681231 0 -62.51708437 0 2792.69684438 0 327.66279496 0 468.56647011 0 25452
0.15450000 0.15450400 9734.63264949 0 -10.66413041 0 1776.36610323 0 328.89280870 0 219.58018982 0 26061
0.15550000 0.15549900 9505.14469343 0 123.89532463 0 2437.68981246 0 -47.97264325 0 356.89586276 0 26128
0.15650000 0.15649500 9446.87154466 0 133.23189422 0 1684.93027559 0 -63.76440038 0 698.10100920 0 26331
0.15750000 0.15749700 9243.99137009 0 78.28033712 0 2361.83711653 0 122.67418385 0 327.48533581 0 27345
0.15850000 0.15849900 9411.72354153 0 64.62984647 0 2033.34913652 0 69.17302257 0 762.90687296 0 26980
0.15950000 0.15949700 9227.58748980 0 66.06793107 0 2055.53153041 0 -55.01377872 0 575.98360344 0 27777
0.16050000 0.16050000 9095.44696936 0 106.96405793 0 2541.09304161 0 -171.32350102 0 793.03500035 0 28224
0.16150000 0.16150500 8963.76118799 0 213.49555918 0 2521.04015753 0 -205.60860903 0 728.56076337 0 28075
0.16250000 0.16249700 8868.74290374 0 35.93192893 0 2750.81648470 0 181.41316288 0 906.24395672 0 28590
0.16350000 0.16349900 8969.35115126 0 35.90076267 0 3038.79941346 0 -37.19166708 0 846.88941626 0 29163
0.16450000 0.16449100 8833.86108934 0 142.79139687 0 2918.44883538 0 -76.73766253 0 1047.43378476 0 28996
0.16550000 0.16550500 8639.27713008 0 88.98278761 0 3180.98855834 0 18.48902531 0 905.01616122 0 30777
0.16650000 0.16650700 8680.84693624 0 68.21363403 0 3071.19679975 0 21.38693325 0 889.99424408 0 29211
0.16750000 0.16749900 8678.25159615 0 124.61957979 0 3053.79471174 0 51.10912283 0 683.28649743 0 30922
0.16850000 0.16850800 8249.07773024 0 203.82403544 0 3286.82075962 0 -177.89503521 0 618.38746761 0 30867
0.16950000 0.16949900 8081.58956513 0 176.87686333 0 3073.06012084 0 -77.39914152 0 613.76354760 0 30852
0.17050000 0.17049200 7902.02308653 0 36.83807972 0 3084.26222976 0 257.69508813 0 286.59209266 0 31257
0.17150000 0.17149500 7919.69136327 0 -6.42683844 0 2846.76642950 0 366.04388200 0 261.42505767 0 32608
0.17250000 0.17250900 7945.00147471 0 -66.58988280 0 2115.84545942 0 316.11131334 0 476.48447561 0 32361
0.17350000 0.17350400 7968.01570838 0 -11.11604123 0 1897.04941722 0 448.12206678 0 361.21144749 0 32508
0.17450000 0.17449800 7900.08212707 0 10.18988192 0 1672.54140860 0 118.08242831 0 574.36761604 0 32791
0.17550000 0.17549800 7923.32927587 0 56.96305658 0 1482.34956333 0 -24.09362895 0 280.70599444 0 33633
0.17650000 0.17650100 7866.37597954 0 82.45007261 0 1780.74712602 0 -103.74284160 0 413.27241685 0 33984
0.17750000 0.17750300 7747.61144262 0 143.92269896 0 1673.47306914 0 -194.14807522 0 23.11105982 0 34069
0.17850000 0.17849800 7746.35813737 0 -21.63615245 0 1844.25531975 0 -128.38282292 0 225.44521477 0 34536
