### header ###
fiducial parameters:
Omega_m = 0.31
Omega_nu = 0
Omega_de = 0.69
Omega_k = 0
H_0 = 100
w_de = -1
zeff = 0
beta = 0
fgrowth = 0
b_1 = 2
gamma = 0.55
Lx = 3500 Ly = 3500 Lz = 3500
nx = 700 ny = 700 nz = 700
xoffset = 1379.75464 yoffset = 22.6059522 zoffset = 368.141391
bins = 400 dk = 0.001
kx_ny = 0.628318531 ky_ny = 0.628318531 kz_ny = 0.628318531
############################
A(data) = 3.36985506 (not used)
A(ran) = 3.37274834 (used)
Ngal = 189566
weighted Ngal = 0
Nran = 9399747
weighted Nran = 0
SN(data) = 6623.7497
SN(ran) = 134.152356
SN(data+ran) = 6757.90205
############################
13 columns: k_central k_mean P_0(k) sigma^{lin}_{P_0(k)} P^img_1(k) sigma^{lin}_{P_1(k)} P_2(k) sigma^{lin}_{P_2(k)} P^img_3(k) sigma^{lin}_{P_3(k)} P_4(k) sigma^{lin}_{P_4(k)} N_modes
### header ###
0.00050000 0 0 0 0 0 0 0 0 0 0 0 0
0.00150000 0.00179520 31589.83623596 0 -33686.29428311 0 -8591.86226312 0 -21449.48760211 0 116406.54845038 0 3
0.00250000 0.00253879 61620.13926903 0 -33105.55921090 0 -33828.92707587 0 -1334.06026013 0 -24436.79058814 0 6
0.00350000 0.00331552 93639.09391491 0 -33894.03240195 0 -33820.60867815 0 -48462.98506526 0 40447.48794275 0 7
0.00450000 0.00420575 108423.21579901 0 -8701.92021044 0 -24221.28863144 0 -49524.52352517 0 -5174.55357141 0 24
0.00550000 0.00557378 107608.34555923 0 16176.84348489 0 16025.22682261 0 -52957.35989262 0 6830.45818458 0 45
0.00650000 0.00659388 84890.35776215 0 22964.21236933 0 29717.19854322 0 -5300.18355924 0 -34509.37200864 0 40
0.00750000 0.00754703 65000.84701081 0 19480.24558395 0 62204.42352426 0 4407.38656969 0 12791.92108826 0 57
0.00850000 0.00846663 57323.29865932 0 -1180.04789931 0 71152.91213405 0 17447.78374319 0 1309.07179340 0 75
0.00950000 0.00948925 67713.75378435 0 -11722.84061442 0 47111.63362909 0 41717.76272923 0 2289.56687722 0 112
0.01050000 0.01054430 74701.20786173 0 -2982.14557945 0 23112.72349646 0 3575.52461618 0 -22444.70070427 0 105
0.01150000 0.01145670 80054.70680470 0 2566.15914671 0 26601.01584865 0 -12714.72635750 0 -337.65818165 0 144
0.01250000 0.01249090 73607.17219476 0 2919.44704311 0 27149.03188986 0 -6357.24117559 0 -7258.23455967 0 169
0.01350000 0.01339930 77652.57536965 0 2994.85609116 0 30352.94595229 0 -4567.04434976 0 -8987.17470475 0 180
0.01450000 0.01448870 75119.45689865 0 1976.02983069 0 20798.87798912 0 2403.46237868 0 -10349.61733787 0 267
0.01550000 0.01550050 73070.58008640 0 -1651.62341115 0 40863.96238815 0 12134.21310923 0 -32051.89550082 0 238
0.01650000 0.01653350 80314.12990132 0 -5285.76500321 0 52.87628324 0 20761.16791950 0 8727.27468666 0 315
0.01750000 0.01747870 73822.56323949 0 -2498.92431081 0 6799.22537397 0 9988.35487087 0 -5242.59806468 0 297
0.01850000 0.01844180 84424.19475442 0 -2812.46135734 0 -12195.88016427 0 2800.23885831 0 4714.11362130 0 388
0.01950000 0.01947590 80780.29290905 0 3637.73513987 0 -4969.27769829 0 -3896.82550058 0 -6163.67760644 0 399
0.02050000 0.02045430 76975.67961990 0 4327.85159638 0 -4336.55818598 0 -12110.92159564 0 2046.22601617 0 462
0.02150000 0.02154770 70732.22303381 0 3192.22394085 0 40.59610998 0 -5676.31932134 0 -4877.13203404 0 571
0.02250000 0.02255340 72869.71850967 0 804.05743188 0 -874.05286670 0 3286.25510858 0 -9193.22696165 0 510
0.02350000 0.02348930 64702.38290094 0 177.30387441 0 7288.56898333 0 -4003.98864549 0 -8475.10523285 0 555
0.02450000 0.02439640 69622.65969111 0 1548.27563799 0 6724.71471287 0 1249.63406896 0 -5132.81739729 0 592
0.02550000 0.02547300 68701.75760850 0 -712.28443185 0 7450.64464433 0 3906.50811551 0 -867.71868412 0 837
0.02650000 0.02652900 64629.51373699 0 1851.30932101 0 6696.18815432 0 -949.38316725 0 -1254.02618295 0 723
0.02750000 0.02749970 68922.91607564 0 482.39719271 0 12114.35986670 0 1014.08033729 0 6094.12471038 0 826
0.02850000 0.02848090 64416.78457952 0 241.55406922 0 11892.31410379 0 677.18966647 0 2939.83266310 0 831
0.02950000 0.02946900 65953.69174064 0 1970.88351531 0 15254.72137062 0 1409.71331451 0 4980.64617516 0 996
0.03050000 0.03053250 63437.54280096 0 136.89864393 0 14279.13968705 0 -1891.24872122 0 5594.05591358 0 1041
0.03150000 0.03150510 62081.97670995 0 1205.85711460 0 14323.83721075 0 -1229.49245530 0 -4639.34786267 0 1036
0.03250000 0.03246190 62675.02301077 0 3472.96431800 0 18038.72271659 0 -4292.43740452 0 -452.47425246 0 1059
0.03350000 0.03345080 56271.96410059 0 3300.57384384 0 14214.25618490 0 -2683.59274000 0 -11954.31389473 0 1302
0.03450000 0.03451200 52026.03208488 0 2469.83210122 0 21982.53052744 0 -737.60452537 0 -6809.60673432 0 1339
0.03550000 0.03553350 50216.28147883 0 1132.17829328 0 13832.82992185 0 3294.67332706 0 -16499.26458018 0 1365
0.03650000 0.03647120 47466.88466734 0 122.90155338 0 14389.27527275 0 5628.94881918 0 -3029.29425768 0 1308
0.03750000 0.03744890 45786.23559377 0 1034.29958933 0 8061.28158351 0 4446.84904844 0 -6586.36312214 0 1579
0.03850000 0.03847530 44582.17525308 0 1033.59862568 0 8148.68021547 0 2750.27301605 0 -1882.43121964 0 1662
0.03950000 0.03950240 43695.10132116 0 999.42442965 0 7748.66510633 0 -875.55128741 0 -3765.21735759 0 1683
0.04050000 0.04050350 41400.99814439 0 1747.11861687 0 8123.64738395 0 -2929.90604183 0 -1259.31668390 0 1822
0.04150000 0.04152450 39741.75508093 0 1173.35990755 0 11932.68606068 0 -1508.90188882 0 1392.45541206 0 1887
0.04250000 0.04250150 39670.54959652 0 198.27178224 0 13023.06163266 0 -120.61676681 0 505.41253549 0 1920
0.04350000 0.04349210 39522.26029333 0 -127.81939011 0 13576.40144841 0 561.82679965 0 530.62615352 0 2005
0.04450000 0.04448520 41371.38464853 0 139.32761606 0 14196.17753388 0 250.23403995 0 586.67108082 0 2151
0.04550000 0.04548030 39910.78492242 0 268.71086494 0 15590.56281421 0 6.92862637 0 2554.05865084 0 2274
0.04650000 0.04648670 40662.43533960 0 1247.69310949 0 17431.59059564 0 -2568.58811884 0 -530.00171913 0 2311
0.04750000 0.04749250 39542.44627177 0 -88.26918000 0 15846.43672780 0 2499.77833298 0 -450.21164828 0 2568
0.04850000 0.04851840 37752.65982024 0 503.13994924 0 17392.88231829 0 1291.33696948 0 1994.10848171 0 2493
0.04950000 0.04949480 38675.55831830 0 974.99495925 0 14729.66410709 0 722.08350436 0 446.24432713 0 2644
0.05050000 0.05050630 37254.22142938 0 71.23964529 0 16609.84381375 0 2166.76514461 0 3604.04008354 0 2829
0.05150000 0.05149060 37069.33117626 0 908.74058516 0 14561.63247332 0 232.92179063 0 1341.51354448 0 2784
0.05250000 0.05249300 35910.19018320 0 888.45589506 0 16321.36178113 0 902.15685065 0 2786.05321741 0 3055
0.05350000 0.05348950 34515.02851908 0 355.93203774 0 16665.52162243 0 -2740.46839795 0 1209.17338249 0 3009
0.05450000 0.05448610 34628.60237583 0 339.70894397 0 16433.38287030 0 1159.47372897 0 5374.46130520 0 3336
0.05550000 0.05550870 35685.59344500 0 -444.32333182 0 17583.31816990 0 1349.64339184 0 2003.20326321 0 3349
0.05650000 0.05647670 36050.05017672 0 -425.58919106 0 16257.92013458 0 2259.79810461 0 4672.22217042 0 3324
0.05750000 0.05747970 36364.81834611 0 -120.68996871 0 16493.49715776 0 2355.21567196 0 4300.20124239 0 3639
0.05850000 0.05849280 36385.33706046 0 391.76214949 0 13469.70413377 0 1801.31020516 0 7827.80079656 0 3846
0.05950000 0.05951020 35958.54780189 0 368.38967016 0 14874.84787514 0 2319.65729454 0 9975.57781199 0 3787
0.06050000 0.06049470 35733.39650384 0 413.32010899 0 14544.66294199 0 209.03578888 0 10602.90700258 0 3930
0.06150000 0.06148310 34685.83295208 0 790.72248579 0 14073.28707169 0 869.54318602 0 7990.96339486 0 4083
0.06250000 0.06249100 34151.34817115 0 81.50510263 0 14613.42836307 0 305.32068783 0 8623.50544802 0 4303
0.06350000 0.06350600 33169.55541729 0 997.69974852 0 12026.07393899 0 526.91282078 0 9601.91538680 0 4470
0.06450000 0.06451750 33033.24460680 0 -65.91919812 0 13312.32004907 0 1634.25459673 0 5772.92364676 0 4479
0.06550000 0.06550280 32751.75002825 0 91.20834719 0 11292.83490874 0 1598.62967213 0 9153.43174700 0 4636
0.06650000 0.06648880 31537.92943424 0 641.93740609 0 9285.57226745 0 2042.61028597 0 6852.77367284 0 4653
0.06750000 0.06749660 31164.93248087 0 444.84905456 0 9395.29747885 0 451.91303789 0 7565.05034085 0 5220
0.06850000 0.06852730 30188.90714943 0 789.23626540 0 8758.42985889 0 173.89222223 0 7351.89971790 0 5029
0.06950000 0.06949320 29200.57058937 0 724.57680543 0 10189.72664266 0 -371.59169872 0 5687.45488308 0 5040
0.07050000 0.07048030 27875.83802588 0 889.53285028 0 10415.26613261 0 -1818.05791256 0 5017.81277613 0 5475
0.07150000 0.07148790 27499.40280145 0 653.95360886 0 12214.62428711 0 -1222.79337234 0 2637.36463112 0 5509
0.07250000 0.07249820 26537.01964226 0 205.89143455 0 11948.21373641 0 -460.22921737 0 1330.20052359 0 5916
0.07350000 0.07351270 26998.41343530 0 141.79540738 0 12802.45772536 0 -281.35482946 0 49.24524719 0 5721
0.07450000 0.07449140 27052.53847641 0 184.30463793 0 13054.56063200 0 -577.57075372 0 -238.33540386 0 6028
0.07550000 0.07549160 26249.53581736 0 255.61327047 0 12278.17684562 0 1460.36681098 0 -416.23820291 0 6183
0.07650000 0.07648840 26788.34616510 0 103.48541492 0 12226.71369178 0 885.17068252 0 978.07054816 0 6330
0.07750000 0.07749960 26286.13676729 0 0.05718433 0 11014.53459492 0 1260.84726907 0 311.75690942 0 6583
0.07850000 0.07848650 25840.71429785 0 567.97021364 0 11598.28647270 0 432.97925558 0 492.62216717 0 6549
0.07950000 0.07947320 25069.43246207 0 817.16722667 0 11033.58927127 0 -1163.05618558 0 784.05667642 0 6828
0.08050000 0.08048110 24268.31530650 0 433.64805476 0 11843.40192525 0 -48.71597527 0 -903.02972785 0 7147
0.08150000 0.08149960 24138.54830220 0 -58.66832811 0 10276.75926512 0 241.75038340 0 115.03013091 0 7386
0.08250000 0.08250610 23777.41892957 0 87.10460432 0 10817.88767302 0 896.38499176 0 -2231.81501471 0 7227
0.08350000 0.08350160 23345.19498450 0 506.98526722 0 9017.83077312 0 171.63849101 0 -2847.54281329 0 7798
0.08450000 0.08449610 23043.62533947 0 336.62115474 0 10010.45962639 0 314.67056686 0 -1304.52440266 0 7371
0.08550000 0.08548940 22395.34487785 0 240.56251621 0 8803.80394561 0 132.05068175 0 -4082.82487340 0 8256
0.08650000 0.08650700 22097.10259191 0 198.12094197 0 9709.83273311 0 823.75096118 0 -1810.69335778 0 8037
0.08750000 0.08749060 21648.68549930 0 549.12405179 0 7859.98745010 0 58.56007803 0 -4027.87908372 0 8155
0.08850000 0.08849210 20483.77708382 0 559.17933094 0 8649.70285521 0 215.98996937 0 -1649.50499253 0 8718
0.08950000 0.08949900 20522.70718511 0 375.49912740 0 9016.13381998 0 68.96173526 0 -1474.90737017 0 8571
0.09050000 0.09049190 19530.37779416 0 265.91144683 0 8227.64953774 0 513.81078982 0 -2207.99112366 0 8932
0.09150000 0.09150830 19697.07848429 0 121.53179056 0 8073.89227444 0 646.05002192 0 -1463.81617323 0 9285
0.09250000 0.09250820 19184.11062543 0 83.67021519 0 7160.74293850 0 656.68980715 0 -1839.61919942 0 9204
0.09350000 0.09350330 19068.98400111 0 111.78041020 0 8399.89582634 0 221.13073916 0 -848.44218383 0 9349
0.09450000 0.09448040 18872.11525528 0 290.67587138 0 6379.39029589 0 48.77575682 0 -1270.89589351 0 9564
0.09550000 0.09549270 18711.62563544 0 480.61705560 0 8034.15251578 0 -212.02042998 0 -1284.72661610 0 10155
0.09650000 0.09649430 17965.63172870 0 369.60970182 0 6927.10687478 0 -236.60074066 0 -2136.37526497 0 9913
0.09750000 0.09749140 17598.73493365 0 113.73467911 0 8220.76190443 0 500.14199870 0 -1130.86953204 0 10476
0.09850000 0.09850240 17516.32734033 0 259.45858845 0 7684.95727106 0 59.17508490 0 -1656.38153464 0 10575
0.09950000 0.09950330 17168.17466812 0 14.61021192 0 6718.08217710 0 960.80931835 0 -1257.37572443 0 10882
0.10050000 0.10051200 17084.87977904 0 -132.46660163 0 6615.86570602 0 1008.40608093 0 -447.19817007 0 10875
0.10150000 0.10150300 17023.54545992 0 307.08086079 0 5405.16173835 0 217.79672535 0 -925.17219344 0 11118
0.10250000 0.10250800 17035.19121671 0 138.46693918 0 5414.33415823 0 839.89974394 0 -211.73205886 0 11575
0.10350000 0.10349800 15892.13245923 0 93.13999005 0 5724.41075131 0 134.72809669 0 -306.42980752 0 11364
0.10450000 0.10450100 16159.43030568 0 468.82045852 0 4157.19134894 0 56.57031730 0 224.05548779 0 12093
0.10550000 0.10551000 15710.56956519 0 322.51537046 0 5262.87277270 0 -68.43068876 0 -464.86644681 0 12067
0.10650000 0.10649700 14927.08741277 0 250.37046167 0 4622.87743520 0 5.83027623 0 443.59907666 0 12054
0.10750000 0.10749900 15152.46053475 0 155.41206988 0 4960.41583193 0 679.59867445 0 -144.23879807 0 12807
0.10850000 0.10850100 14726.11492406 0 102.90079793 0 4266.58382444 0 83.87551324 0 167.38501698 0 12736
0.10950000 0.10950300 14643.26368286 0 -106.10559928 0 3855.28896801 0 561.07038002 0 -185.69103755 0 12933
0.11050000 0.11050200 14531.79715353 0 37.22893350 0 3991.14503942 0 89.12763864 0 259.95103759 0 13428
0.11150000 0.11150900 14678.53368916 0 19.40216356 0 3172.84761978 0 324.93103315 0 222.46833751 0 13453
0.11250000 0.11250000 14658.68044662 0 -163.06499577 0 3170.50737723 0 1128.41837751 0 233.28003629 0 13668
0.11350000 0.11349100 14699.38513942 0 38.38230707 0 2596.98158303 0 -170.25874611 0 520.42890704 0 13791
0.11450000 0.11448600 14866.08582955 0 177.82626979 0 2999.22602275 0 -253.98064628 0 -0.19945299 0 14205
0.11550000 0.11549300 14532.46262535 0 75.62277542 0 2797.90970695 0 -511.42285512 0 450.86048330 0 14776
0.11650000 0.11649800 14580.70933207 0 120.87408258 0 3357.54932256 0 -180.57910487 0 106.82319973 0 14553
0.11750000 0.11747300 14668.66252387 0 34.74783274 0 2740.57930992 0 395.44553599 0 -222.78221838 0 14568
0.11850000 0.11849100 14244.64606454 0 151.82406767 0 3131.36654319 0 469.41716492 0 -340.48643687 0 16015
0.11950000 0.11950300 14159.35476001 0 249.57965933 0 2781.99383933 0 -98.73416797 0 -374.25136774 0 15270
0.12050000 0.12050700 13822.62602066 0 124.65839898 0 2751.54850370 0 383.97945659 0 106.18723049 0 15999
0.12150000 0.12150000 13669.56750278 0 164.71203852 0 2536.93384275 0 8.03866663 0 -397.83679805 0 15670
0.12250000 0.12250700 13295.79416562 0 199.71807433 0 2582.99558368 0 -14.71480190 0 380.14855716 0 16887
0.12350000 0.12352200 13348.25552719 0 90.06872671 0 2703.09106424 0 -6.54563625 0 -44.30511715 0 16407
0.12450000 0.12449800 12910.26415970 0 179.85152235 0 2779.89760310 0 -140.56539364 0 90.00406503 0 16306
0.12550000 0.12549900 12881.09431173 0 350.89441609 0 3131.02271609 0 -293.85682666 0 -536.39690329 0 17523
0.12650000 0.12650100 12536.15808664 0 163.01841274 0 3448.74114387 0 -570.53449838 0 50.78481623 0 17154
0.12750000 0.12750600 12481.36757371 0 4.69548041 0 3760.71433163 0 112.10649139 0 161.29705898 0 18007
0.12850000 0.12850300 12543.03462874 0 -56.49689357 0 3943.73017247 0 203.54675551 0 77.52425022 0 17496
0.12950000 0.12949900 12826.96927062 0 -168.91671128 0 3792.73461722 0 430.50480955 0 294.08974180 0 18405
0.13050000 0.13049000 12995.44455226 0 -62.82098316 0 3294.40713833 0 526.76087138 0 385.25827159 0 18100
0.13150000 0.13148800 12980.58234835 0 92.72983759 0 3431.72724775 0 -36.50955847 0 1459.51278881 0 19059
0.13250000 0.13249300 12852.03537572 0 150.13376925 0 3207.81816376 0 61.97982679 0 629.57515797 0 18957
0.13350000 0.13349100 12676.12899212 0 190.98375673 0 3556.78049334 0 -69.76884167 0 823.78756213 0 19468
0.13450000 0.13450700 12436.44822607 0 157.02472991 0 3527.12263270 0 -106.18445770 0 512.59186728 0 19953
0.13550000 0.13551000 12137.87320423 0 271.31507799 0 3596.97499108 0 -448.35609103 0 339.91524023 0 19956
0.13650000 0.13649900 11897.19423045 0 205.22152625 0 3714.88550584 0 119.04958068 0 174.87933876 0 19723
0.13750000 0.13749600 11611.70682100 0 144.33640061 0 3772.84810109 0 68.86468729 0 -315.29721948 0 20946
0.13850000 0.13851100 11467.96490855 0 162.67791300 0 3362.51817879 0 211.73316798 0 173.89333135 0 20955
0.13950000 0.13949800 11330.76680230 0 33.11798135 0 3805.25657857 0 491.10489143 0 421.34348087 0 20506
0.14050000 0.14048300 11142.54919009 0 5.45834403 0 2781.09545237 0 443.63789585 0 183.21548239 0 21447
0.14150000 0.14148400 11285.18198285 0 104.07679754 0 3212.29900733 0 124.25578853 0 728.16148028 0 21771
0.14250000 0.14249400 10870.92577683 0 274.70787513 0 2958.27732362 0 -384.50407020 0 383.42156938 0 22470
0.14350000 0.14350900 10778.96866293 0 187.48337497 0 3447.87603051 0 -103.46844539 0 795.05027084 0 22519
0.14450000 0.14449900 10631.81066182 0 45.17189419 0 3092.25898276 0 23.84507523 0 362.75866947 0 22218
0.14550000 0.14550500 10515.41964105 0 16.10608165 0 3352.54719274 0 298.98317789 0 570.45020528 0 23559
0.14650000 0.14650700 10542.42670562 0 38.10303073 0 2935.08563080 0 180.99280652 0 -88.23967742 0 23044
0.14750000 0.14750500 10469.26917055 0 70.46281786 0 3121.37337474 0 100.36390845 0 688.16662409 0 23649
0.14850000 0.14849900 10292.58640316 0 33.38649923 0 2464.33086753 0 302.64327289 0 160.46965569 0 23640
0.14950000 0.14949500 10365.67739105 0 80.14754012 0 2670.17239169 0 97.51546725 0 650.95787657 0 24457
0.15050000 0.15050000 10266.21153682 0 98.26944682 0 2272.98553778 0 224.65108507 0 353.61952318 0 24591
0.15150000 0.15149900 9989.24216663 0 113.61822154 0 2407.05592649 0 189.21803818 0 1371.85905933 0 25020
0.15250000 0.15250500 9800.35908260 0 158.98565353 0 2131.73914465 0 214.27748856 0 795.62146748 0 25297
0.15350000 0.15350100 9735.97468432 0 118.57265921 0 2190.03447581 0 155.17582738 0 1232.83090558 0 25452
0.15450000 0.15450400 9513.77364466 0 157.16226076 0 2345.72160737 0 -61.62246842 0 1026.06881207 0 26061
0.15550000 0.15549900 9233.42145940 0 187.79503761 0 2161.15299895 0 -106.03561383 0 990.25977361 0 26128
0.15650000 0.15649500 9261.58200845 0 1.75616903 0 2070.78192622 0 49.41216970 0 952.61625116 0 26331
0.15750000 0.15749700 9129.84077110 0 30.56356778 0 1889.67377125 0 103.17619235 0 611.68838465 0 27345
0.15850000 0.15849900 9195.24555950 0 18.98934921 0 1784.95068967 0 177.86508898 0 421.32351671 0 26980
0.15950000 0.15949700 8928.62427606 0 159.47921180 0 1751.45527488 0 -228.85686695 0 -21.12129908 0 27777
0.16050000 0.16050000 8892.12314690 0 135.44680625 0 1645.64525600 0 -222.64468754 0 314.11378877 0 28224
0.16150000 0.16150500 8792.54638070 0 -69.60569016 0 1693.74777716 0 292.36395156 0 -549.00537598 0 28075
0.16250000 0.16249700 8760.99192539 0 58.27958166 0 1763.95505384 0 -130.27609023 0 -314.96115622 0 28590
0.16350000 0.16349900 8762.36723381 0 54.54306832 0 1603.01069493 0 -5.75551047 0 -281.99700977 0 29163
0.16450000 0.16449100 8834.07182208 0 10.24426206 0 1954.61272938 0 93.01998330 0 125.15417548 0 28996
0.16550000 0.16550500 8829.00314507 0 82.88717668 0 1826.18775992 0 -71.05453322 0 -273.97807437 0 30777
0.16650000 0.16650700 8747.89322179 0 102.21758019 0 1975.58618281 0 -178.67030988 0 -348.57857417 0 29211
0.16750000 0.16749900 8633.56516365 0 120.00453274 0 2139.85790081 0 -36.52164787 0 205.48993322 0 30922
0.16850000 0.16850800 8515.97629360 0 70.84069494 0 2503.88207585 0 10.95037202 0 -1.03172754 0 30867
0.16950000 0.16949900 8388.64935264 0 121.19129081 0 2403.99475613 0 31.08618498 0 525.64731521 0 30852
0.17050000 0.17049200 8376.23830325 0 30.37845571 0 2102.94639737 0 399.75335689 0 148.89931903 0 31257
0.17150000 0.17149500 8371.87946285 0 -2.54422076 0 2209.87662715 0 220.81574916 0 640.54989735 0 32608
0.17250000 0.17250900 8378.92237291 0 25.31366062 0 1661.98258910 0 429.74062608 0 550.61138130 0 32361
0.17350000 0.17350400 8143.61153846 0 128.81648872 0 1617.34052138 0 16.56226258 0 616.77924405 0 32508
0.17450000 0.17449800 8076.97562719 0 30.49835154 0 1119.02413370 0 48.17472486 0 613.96318915 0 32791
0.17550000 0.17549800 7960.03004657 0 49.46429833 0 1600.93664110 0 98.77575996 0 342.58821870 0 33633
0.17650000 0.17650100 8018.63593125 0 118.74235453 0 896.36946408 0 -68.84638682 0 184.77934116 0 33984
0.17750000 0.17750300 7741.63328747 0 190.77746047 0 1468.24156081 0 -389.12244461 0 -6.98904012 0 34069
0.17850000 0.17849800 7574.69968220 0 238.78016086 0 1498.65362284 0 -604.24619150 0 -376.39640523 0 34536
0.17950000 0.17950400 7427.06475962 0 40.65300782 0 2029.47830878 0 61.28385418 0 -104.54340419 0 35343
