### header ###
fiducial parameters:
Omega_m = 0.31
Omega_nu = 0
Omega_de = 0.69
Omega_k = 0
H_0 = 100
w_de = -1
zeff = 0
beta = 0
fgrowth = 0
b_1 = 2
gamma = 0.55
Lx = 3500 Ly = 3500 Lz = 3500
nx = 700 ny = 700 nz = 700
xoffset = 1379.75464 yoffset = 22.6059522 zoffset = 368.141391
bins = 400 dk = 0.001
kx_ny = 0.628318531 ky_ny = 0.628318531 kz_ny = 0.628318531
############################
A(data) = 3.3315059 (not used)
A(ran) = 3.328157 (used)
Ngal = 187266
weighted Ngal = 0
Nran = 9399747
weighted Nran = 0
SN(data) = 6674.50825
SN(ran) = 132.378719
SN(data+ran) = 6806.88697
############################
13 columns: k_central k_mean P_0(k) sigma^{lin}_{P_0(k)} P^img_1(k) sigma^{lin}_{P_1(k)} P_2(k) sigma^{lin}_{P_2(k)} P^img_3(k) sigma^{lin}_{P_3(k)} P_4(k) sigma^{lin}_{P_4(k)} N_modes
### header ###
0.00050000 0 0 0 0 0 0 0 0 0 0 0 0
0.00150000 0.00179520 10225.65102958 0 -13097.03991631 0 -17088.31805010 0 8478.07767363 0 -41145.56787867 0 3
0.00250000 0.00253879 29900.64694074 0 -23971.51487616 0 -20518.04888239 0 -14052.99018128 0 16167.52687945 0 6
0.00350000 0.00331552 39393.38058479 0 -17937.90373633 0 -32062.43213792 0 -13658.14356992 0 -3160.12601688 0 7
0.00450000 0.00420575 53755.92607289 0 -4290.91791054 0 -22030.99905810 0 -33026.25715272 0 -10700.37644136 0 24
0.00550000 0.00557378 49685.34588092 0 2986.06077198 0 -9147.45359185 0 -26178.21942098 0 -4101.18080435 0 45
0.00650000 0.00659388 51020.94781743 0 4116.60865930 0 6756.24698580 0 1021.19534013 0 8991.48918036 0 40
0.00750000 0.00754703 40975.76165339 0 1980.67704221 0 1788.79933501 0 -8636.31578049 0 -6100.39123666 0 57
0.00850000 0.00846663 55490.25653968 0 -5354.61915386 0 -13656.70171432 0 24887.42592015 0 4702.84496520 0 75
0.00950000 0.00948925 58747.40834747 0 -14173.21875619 0 -15412.99275107 0 12521.85044257 0 -98.11184091 0 112
0.01050000 0.01054430 66013.47329219 0 -1223.20374663 0 -25127.88306998 0 -4508.72683621 0 -9939.22086839 0 105
0.01150000 0.01145670 76253.97543448 0 -529.57470805 0 -19293.24800340 0 -15289.54772903 0 -4042.80783481 0 144
0.01250000 0.01249090 63513.73932400 0 -236.54972115 0 -23756.23474340 0 -4482.54052022 0 -6345.21831809 0 169
0.01350000 0.01339930 77566.17494543 0 -4590.09185702 0 -22854.63134348 0 786.26493374 0 6145.85405295 0 180
0.01450000 0.01448870 75335.06976732 0 323.78642163 0 -20132.51887647 0 -14016.83287922 0 -23966.52383754 0 267
0.01550000 0.01550050 70648.26267291 0 4655.04190635 0 -15468.00508793 0 -10055.72280114 0 -28906.43204631 0 238
0.01650000 0.01653350 62254.99938234 0 4865.66373640 0 -4127.47803231 0 -15901.55997664 0 -9592.67641975 0 315
0.01750000 0.01747870 61066.68854131 0 -887.84144275 0 -4679.96382589 0 2739.66983177 0 -14692.73042125 0 297
0.01850000 0.01844180 64225.79416807 0 -5123.62279502 0 -3892.33356581 0 11142.43827812 0 -15497.17493590 0 388
0.01950000 0.01947590 68098.84014239 0 -1220.39767380 0 -11986.25654194 0 625.24959116 0 -12872.11044220 0 399
0.02050000 0.02045430 70488.77126079 0 925.11895569 0 -6567.19753382 0 -1970.30677306 0 9522.09204237 0 462
0.02150000 0.02154770 68991.57058475 0 -191.59377256 0 -9421.20651493 0 -1865.58369148 0 3235.03596107 0 571
0.02250000 0.02255340 70919.33152632 0 1926.46327153 0 -273.47231579 0 -1564.33569117 0 9669.76023854 0 510
0.02350000 0.02348930 69354.69637284 0 1765.16399431 0 5351.10324443 0 -3701.96426139 0 14293.33641914 0 555
0.02450000 0.02439640 64810.41115921 0 2963.02435591 0 7225.44898150 0 -1128.56256307 0 2386.34866179 0 592
0.02550000 0.02547300 66446.36270908 0 2205.18505084 0 13963.81695781 0 -3194.33126827 0 17576.88527567 0 837
0.02650000 0.02652900 58291.11650502 0 1531.35047144 0 18179.35909389 0 1628.18771200 0 818.50482503 0 723
0.02750000 0.02749970 59113.52875873 0 2558.56167680 0 19814.64517194 0 -3694.55534183 0 9551.15097837 0 826
0.02850000 0.02848090 59489.85307118 0 -711.86185725 0 18462.18461607 0 4691.84249782 0 5954.81927671 0 831
0.02950000 0.02946900 57622.87188889 0 -1414.57125878 0 18042.16098764 0 7713.07345532 0 11919.93118419 0 996
0.03050000 0.03053250 60863.94146110 0 -573.88847633 0 14995.07645006 0 6049.53809865 0 13680.32596382 0 1041
0.03150000 0.03150510 60300.28683219 0 28.34754663 0 4260.66112527 0 746.90227577 0 4851.08990361 0 1036
0.03250000 0.03246190 59348.55122206 0 2246.86576897 0 18709.85104393 0 553.57605824 0 21292.65807726 0 1059
0.03350000 0.03345080 56168.48323307 0 3555.22772577 0 13426.55937764 0 -7579.91254476 0 1992.82190287 0 1302
0.03450000 0.03451200 51998.85865235 0 3076.37638873 0 23832.32035446 0 -3646.13117596 0 16986.38995014 0 1339
0.03550000 0.03553350 49191.23305688 0 1057.77854415 0 25855.35467782 0 -1363.61830000 0 5129.44567342 0 1365
0.03650000 0.03647120 51281.03638586 0 429.69182481 0 25008.87452673 0 3006.97876942 0 10936.70766593 0 1308
0.03750000 0.03744890 49779.95379089 0 -371.45194963 0 26236.55911693 0 3914.02794704 0 2103.27913328 0 1579
0.03850000 0.03847530 49033.84897218 0 1238.35432166 0 21952.02973583 0 2106.69522194 0 7503.50528899 0 1662
0.03950000 0.03950240 47170.30606094 0 927.07877019 0 21967.55741156 0 2045.41635880 0 10457.05776271 0 1683
0.04050000 0.04050350 47982.40350149 0 -411.57324547 0 18932.45136668 0 3823.60141832 0 5696.39438782 0 1822
0.04150000 0.04152450 47806.60802986 0 -620.00123676 0 16471.98023568 0 5617.69125427 0 9157.39130432 0 1887
0.04250000 0.04250150 47569.03459123 0 683.87987647 0 12638.75165841 0 276.43810186 0 4766.40861491 0 1920
0.04350000 0.04349210 44467.82501254 0 2435.67121462 0 14195.95570994 0 567.58091263 0 9112.31667992 0 2005
0.04450000 0.04448520 44851.58042695 0 1259.27231911 0 13666.68379157 0 513.11759001 0 8801.60788861 0 2151
0.04550000 0.04548030 41204.12939856 0 181.76364471 0 14872.62963575 0 2254.00849980 0 7520.39718194 0 2274
0.04650000 0.04648670 41513.68470538 0 566.42964639 0 10689.05232927 0 728.19253564 0 7112.04149270 0 2311
0.04750000 0.04749250 41052.18000036 0 304.42230088 0 14201.39039644 0 616.71824247 0 5476.50031712 0 2568
0.04850000 0.04851840 40551.19063421 0 326.95295836 0 10448.77263859 0 -171.91355270 0 2954.76141419 0 2493
0.04950000 0.04949480 39971.78650564 0 305.33288815 0 12547.80384343 0 48.13335469 0 4632.98151562 0 2644
0.05050000 0.05050630 39945.27854493 0 -84.07049648 0 10349.92789139 0 263.99599712 0 3750.31078889 0 2829
0.05150000 0.05149060 40177.97185691 0 38.66080703 0 14201.05766053 0 3369.91600716 0 4168.90365291 0 2784
0.05250000 0.05249300 40077.92926043 0 772.05711045 0 9027.00319299 0 424.11184362 0 4088.53683983 0 3055
0.05350000 0.05348950 37518.08100478 0 846.11635983 0 10847.39025691 0 407.99966182 0 3737.71118916 0 3009
0.05450000 0.05448610 38671.56548740 0 790.12688851 0 11715.40951247 0 -738.82122967 0 8067.41501543 0 3336
0.05550000 0.05550870 36458.98260820 0 1245.55250848 0 11820.88679545 0 -189.23134761 0 4704.38664157 0 3349
0.05650000 0.05647670 35530.98215954 0 716.27060804 0 15410.66359971 0 -337.10694916 0 7508.74033395 0 3324
0.05750000 0.05747970 34885.80723306 0 425.70897598 0 14589.24955372 0 -1016.66680442 0 2998.72691889 0 3639
0.05850000 0.05849280 34916.08620073 0 993.59489653 0 18425.91640205 0 -1784.56249777 0 4623.07707675 0 3846
0.05950000 0.05951020 34522.79235695 0 337.28995391 0 18328.53569285 0 -779.69007219 0 4454.94562221 0 3787
0.06050000 0.06049470 33515.71167405 0 290.90435004 0 20853.11394220 0 1229.68100565 0 4327.87377877 0 3930
0.06150000 0.06148310 34051.08375074 0 771.21085212 0 21399.46630387 0 -941.49067151 0 5575.64452664 0 4083
0.06250000 0.06249100 32991.98535415 0 361.49427301 0 21616.29920421 0 1274.61144449 0 4562.57459739 0 4303
0.06350000 0.06350600 33188.85409998 0 150.65727375 0 21527.12598074 0 1999.08842914 0 7352.46536895 0 4470
0.06450000 0.06451750 33302.09522082 0 -382.35015976 0 19436.76809191 0 3034.90640334 0 5771.16014645 0 4479
0.06550000 0.06550280 32817.63173813 0 -493.31647610 0 19215.72053673 0 1545.22555883 0 7051.02881829 0 4636
0.06650000 0.06648880 33762.15807024 0 602.21539334 0 15456.69206704 0 1466.65551965 0 4229.81650655 0 4653
0.06750000 0.06749660 32041.91342357 0 958.90939631 0 16203.90600544 0 -678.11799965 0 3244.48566087 0 5220
0.06850000 0.06852730 30625.90030919 0 1280.70051161 0 14467.57912320 0 -1137.55752380 0 2347.35201332 0 5029
0.06950000 0.06949320 29428.49468666 0 355.31203983 0 16606.29463073 0 1297.32621584 0 814.96673320 0 5040
0.07050000 0.07048030 28646.45438984 0 132.44109188 0 12773.39878936 0 1618.34982031 0 -1451.62694778 0 5475
0.07150000 0.07148790 28643.79250257 0 -229.34155226 0 10816.77855333 0 2209.56607363 0 -2687.00882866 0 5509
0.07250000 0.07249820 27836.90792459 0 717.54055009 0 9476.22994299 0 178.92540741 0 -1726.84390885 0 5916
0.07350000 0.07351270 27102.44886268 0 221.82282984 0 8509.98704725 0 1169.87727170 0 -2207.28128706 0 5721
0.07450000 0.07449140 27544.43306106 0 -204.45956102 0 7295.37897825 0 1013.70323660 0 -1905.25690296 0 6028
0.07550000 0.07549160 26685.97441727 0 415.77791824 0 7659.12587337 0 -779.57028726 0 -4181.07069597 0 6183
0.07650000 0.07648840 26668.22850215 0 712.78575395 0 6613.14836277 0 -479.39369657 0 -3638.30079091 0 6330
0.07750000 0.07749960 26110.11947172 0 -452.94230097 0 6660.30813220 0 270.03959034 0 -4284.58483708 0 6583
0.07850000 0.07848650 26925.21153544 0 -136.82322379 0 7416.47266653 0 327.50308173 0 -3427.98951438 0 6549
0.07950000 0.07947320 25873.65515278 0 821.51608500 0 6643.54933361 0 -60.36749949 0 -4972.17250069 0 6828
0.08050000 0.08048110 25373.88581830 0 961.70326882 0 7616.58004187 0 -1163.57747184 0 -4781.25972762 0 7147
0.08150000 0.08149960 24144.53754856 0 452.08938793 0 8426.71434056 0 -612.21188915 0 -5030.52328784 0 7386
0.08250000 0.08250610 23789.61924621 0 809.05290699 0 9086.65165018 0 120.77315269 0 -3262.49776471 0 7227
0.08350000 0.08350160 22596.76101443 0 129.25791835 0 7727.38109939 0 531.77631064 0 -4893.65791749 0 7798
0.08450000 0.08449610 22578.01689159 0 321.91200934 0 8725.58882473 0 887.07947752 0 -2901.33511849 0 7371
0.08550000 0.08548940 22257.25947585 0 -99.25844885 0 6788.05653865 0 966.62443291 0 -5455.32722215 0 8256
0.08650000 0.08650700 22073.25651847 0 99.32266688 0 7183.72389858 0 196.14781803 0 -2765.81178298 0 8037
0.08750000 0.08749060 22138.91640441 0 119.90914845 0 6260.11556391 0 114.62086574 0 -4463.61893822 0 8155
0.08850000 0.08849210 21929.84734193 0 125.04769999 0 6491.69975619 0 424.91262804 0 -2700.12971465 0 8718
0.08950000 0.08949900 21737.30416291 0 244.95019372 0 5914.70241735 0 484.29156915 0 -2811.09714012 0 8571
0.09050000 0.09049190 21256.94442309 0 180.30071583 0 5908.66880621 0 1094.47487837 0 -1466.92170837 0 8932
0.09150000 0.09150830 20847.45743176 0 435.20858617 0 4444.30916433 0 759.69486233 0 -1500.69440308 0 9285
0.09250000 0.09250820 20137.50991510 0 665.28992126 0 6053.06509928 0 -40.34722352 0 -18.91015806 0 9204
0.09350000 0.09350330 19021.29185423 0 934.14940825 0 5825.54028508 0 -223.94901230 0 1726.13407225 0 9349
0.09450000 0.09448040 18633.87634483 0 260.69303867 0 6223.53679637 0 660.74031228 0 1577.41221237 0 9564
0.09550000 0.09549270 17651.19629522 0 52.71268809 0 6146.71916631 0 1096.06424689 0 2430.72454078 0 10155
0.09650000 0.09649430 18375.00780806 0 -41.21133868 0 4577.62535165 0 1378.00358244 0 2877.15630914 0 9913
0.09750000 0.09749140 18035.28444554 0 -121.00495871 0 3900.89596986 0 1278.02753315 0 3334.09144101 0 10476
0.09850000 0.09850240 17926.36889150 0 83.11909361 0 3881.02054493 0 8.88180833 0 3692.20400808 0 10575
0.09950000 0.09950330 17603.94779622 0 651.09873477 0 3668.95685928 0 -615.63352341 0 3916.17963925 0 10882
0.10050000 0.10051200 16609.40016587 0 730.88880561 0 4347.91557166 0 -857.54140180 0 2654.42289203 0 10875
0.10150000 0.10150300 15914.98032494 0 336.01113891 0 4758.10130839 0 -663.54749422 0 2230.30661192 0 11118
0.10250000 0.10250800 15545.08890672 0 365.75772912 0 6120.45521194 0 -85.61317107 0 2348.03966753 0 11575
0.10350000 0.10349800 15312.06285884 0 74.87445236 0 5008.48507950 0 184.46878764 0 806.69270028 0 11364
0.10450000 0.10450100 15254.05589880 0 -97.87770574 0 5636.45755951 0 669.26833361 0 1812.57886126 0 12093
0.10550000 0.10551000 15515.69723481 0 -13.77515570 0 4459.67047211 0 -23.42915535 0 284.62895080 0 12067
0.10650000 0.10649700 15394.47045216 0 -11.59240814 0 4998.12590155 0 -40.24529542 0 1169.36707665 0 12054
0.10750000 0.10749900 15256.16322622 0 165.22334270 0 4466.59137900 0 -359.76404629 0 83.72234381 0 12807
0.10850000 0.10850100 15573.26054697 0 58.24808266 0 4835.16294479 0 36.78761477 0 43.85980560 0 12736
0.10950000 0.10950300 15288.43860934 0 -14.83968878 0 4497.73546003 0 303.28656231 0 -630.67207735 0 12933
0.11050000 0.11050200 15135.60191539 0 144.61478965 0 3862.68679637 0 103.92828641 0 -933.17005556 0 13428
0.11150000 0.11150900 15050.08878692 0 19.59237759 0 3933.16026178 0 533.67512356 0 57.58549456 0 13453
0.11250000 0.11250000 14757.61392340 0 81.59516315 0 2862.19428446 0 573.26404194 0 -1070.97152292 0 13668
0.11350000 0.11349100 14830.03943947 0 101.06287568 0 3648.11650021 0 213.81054917 0 215.79365518 0 13791
0.11450000 0.11448600 14700.16152320 0 -43.22206177 0 2185.62017942 0 300.35404984 0 -711.70103489 0 14205
0.11550000 0.11549300 14667.44249221 0 79.79162361 0 3008.40953383 0 432.34594824 0 721.88608105 0 14776
0.11650000 0.11649800 14544.44111805 0 27.68484761 0 2467.65822662 0 -90.82869552 0 159.57126873 0 14553
0.11750000 0.11747300 14494.53073178 0 205.55980776 0 2456.75558002 0 171.54421584 0 791.15615159 0 14568
0.11850000 0.11849100 14383.72967427 0 156.92601826 0 3115.96087063 0 -365.62685300 0 583.13520723 0 16015
0.11950000 0.11950300 14193.95929449 0 304.27256972 0 3304.15630045 0 -578.62441743 0 569.82798913 0 15270
0.12050000 0.12050700 13903.92449429 0 250.76752652 0 3969.25101665 0 -135.21721847 0 1055.04567322 0 15999
0.12150000 0.12150000 13745.54220187 0 160.88224821 0 4616.73291209 0 -426.19809777 0 840.19920626 0 15670
0.12250000 0.12250700 13484.01177783 0 188.36845249 0 4416.08206810 0 84.55451632 0 829.68475155 0 16887
0.12350000 0.12352200 13607.78953577 0 30.38566498 0 5125.67466645 0 114.62419310 0 529.68672914 0 16407
0.12450000 0.12449800 13388.40566014 0 115.00462116 0 4609.07998620 0 309.97566319 0 1007.55316789 0 16306
0.12550000 0.12549900 13066.42821273 0 217.80338007 0 4481.63104207 0 -139.57938623 0 602.74111607 0 17523
0.12650000 0.12650100 13110.57117659 0 116.70268341 0 4670.68049405 0 65.63160338 0 90.51814201 0 17154
0.12750000 0.12750600 12930.22831421 0 -74.36780648 0 4313.03375726 0 514.98645670 0 -194.41426395 0 18007
0.12850000 0.12850300 12655.38845383 0 28.69436836 0 3795.16358935 0 92.21398602 0 -315.43364121 0 17496
0.12950000 0.12949900 12765.19130362 0 210.44326178 0 3319.81707054 0 17.61537173 0 -141.05673367 0 18405
0.13050000 0.13049000 12653.83568626 0 -1.91573808 0 3082.46545585 0 905.93451233 0 -147.29442283 0 18100
0.13150000 0.13148800 12569.87532536 0 8.68922079 0 3044.58901827 0 394.36303517 0 1015.20498466 0 19059
0.13250000 0.13249300 12431.12445154 0 127.58758409 0 2590.07176733 0 124.95564306 0 77.02270629 0 18957
0.13350000 0.13349100 12416.81680747 0 167.12548297 0 2875.39280883 0 -124.25800677 0 1281.76526652 0 19468
0.13450000 0.13450700 12031.95227337 0 128.33180341 0 2766.41070761 0 -277.90879457 0 401.51131160 0 19953
0.13550000 0.13551000 12134.32402120 0 27.38383253 0 3448.61914070 0 79.90763753 0 1295.32980039 0 19956
0.13650000 0.13649900 12197.87657972 0 55.97483093 0 2919.53577268 0 108.85921075 0 453.67986557 0 19723
0.13750000 0.13749600 11797.70619382 0 200.38021878 0 3690.20759263 0 165.20892414 0 1040.57609768 0 20946
0.13850000 0.13851100 11787.94594051 0 216.61329464 0 3004.81598602 0 -12.38088133 0 677.64218730 0 20955
0.13950000 0.13949800 11456.31915176 0 83.32250616 0 3495.75672773 0 41.12316366 0 959.13454761 0 20506
0.14050000 0.14048300 11250.79927231 0 131.62367066 0 2923.76151872 0 156.41471408 0 1196.44068840 0 21447
0.14150000 0.14148400 11102.62088108 0 154.21532973 0 2799.52902170 0 264.46848211 0 475.95653464 0 21771
0.14250000 0.14249400 10845.23856470 0 232.21084491 0 2970.04508358 0 -47.40566126 0 738.69811738 0 22470
0.14350000 0.14350900 10585.73782970 0 223.87359216 0 2925.08137115 0 -152.50728540 0 468.20267885 0 22519
0.14450000 0.14449900 10347.21054813 0 162.31966734 0 2799.09646502 0 -160.10142795 0 -30.23504653 0 22218
0.14550000 0.14550500 10121.14977193 0 187.37135388 0 3110.91437602 0 -219.51807912 0 271.15425563 0 23559
0.14650000 0.14650700 9836.32783430 0 139.96425077 0 2858.53418947 0 45.35711718 0 -506.91982916 0 23044
0.14750000 0.14750500 9989.44180817 0 -59.01237704 0 3100.91011637 0 229.70645264 0 48.63212582 0 23649
0.14850000 0.14849900 9746.14531192 0 35.36051046 0 2580.04532529 0 41.59376315 0 -784.38719409 0 23640
0.14950000 0.14949500 9939.71997226 0 40.42064725 0 2403.56219945 0 427.50574989 0 49.53661293 0 24457
0.15050000 0.15050000 9743.51669824 0 -58.07539272 0 2201.15894634 0 257.12943709 0 -278.02192478 0 24591
0.15150000 0.15149900 9973.12665746 0 -28.34311015 0 1758.80873846 0 293.65385776 0 90.77789784 0 25020
0.15250000 0.15250500 9806.07104903 0 51.06741993 0 1762.59083662 0 326.29857774 0 -92.96596917 0 25297
0.15350000 0.15350100 9836.61620542 0 131.77340182 0 1716.52909569 0 -266.54475418 0 66.91274754 0 25452
0.15450000 0.15450400 9630.73031647 0 133.46702760 0 1701.23433510 0 -261.76888477 0 82.57218669 0 26061
0.15550000 0.15549900 9545.40573835 0 150.65838287 0 2257.81278036 0 -116.77255795 0 -301.98223755 0 26128
0.15650000 0.15649500 9305.96897863 0 130.92714349 0 2163.08286722 0 -183.86209917 0 -258.37165115 0 26331
0.15750000 0.15749700 9329.18285385 0 152.71358166 0 2403.02982200 0 -95.77137653 0 25.88374814 0 27345
0.15850000 0.15849900 9023.82001947 0 133.61343140 0 2544.75313660 0 268.49236836 0 255.13634900 0 26980
0.15950000 0.15949700 9020.96958185 0 17.32733334 0 2433.85225832 0 290.94316923 0 291.39458094 0 27777
0.16050000 0.16050000 8974.65274340 0 47.22975488 0 2092.33212189 0 330.19491523 0 844.41607934 0 28224
0.16150000 0.16150500 9013.63830067 0 -4.43798718 0 2240.93197860 0 325.84716602 0 961.72545122 0 28075
0.16250000 0.16249700 8842.06857508 0 88.42867141 0 1867.66883651 0 -96.32649094 0 702.11602249 0 28590
0.16350000 0.16349900 8858.11753706 0 183.21215503 0 2214.01364361 0 -250.59450385 0 937.71744630 0 29163
0.16450000 0.16449100 8418.48467243 0 129.67383824 0 2085.47776217 0 -135.56880942 0 397.05708691 0 28996
0.16550000 0.16550500 8494.32627716 0 76.27626874 0 2469.66573326 0 -189.71048732 0 739.82720123 0 30777
0.16650000 0.16650700 8431.22845772 0 -12.12323282 0 2173.83023706 0 179.01857346 0 -166.98351565 0 29211
0.16750000 0.16749900 8438.74828925 0 -15.00051114 0 2127.08084193 0 353.62506878 0 299.46453584 0 30922
0.16850000 0.16850800 8488.86940826 0 -35.68659165 0 1722.64034521 0 225.88553529 0 461.11651312 0 30867
0.16950000 0.16949900 8478.27731518 0 -65.39602636 0 1506.61710225 0 423.03045192 0 606.85151366 0 30852
0.17050000 0.17049200 8705.68012620 0 -4.02975350 0 1512.88362853 0 115.15213408 0 506.05693404 0 31257
0.17150000 0.17149500 8601.28978053 0 76.00841633 0 1021.72328111 0 94.28925988 0 402.22447557 0 32608
0.17250000 0.17250900 8422.45532094 0 116.56515257 0 1354.78970723 0 -66.90076905 0 939.68946112 0 32361
0.17350000 0.17350400 8345.92606199 0 124.39442849 0 1310.41382824 0 -143.80402315 0 789.28617579 0 32508
0.17450000 0.17449800 8235.14718687 0 102.59656639 0 1538.87030298 0 102.12740876 0 980.77569110 0 32791
0.17550000 0.17549800 8136.14716291 0 87.45320064 0 1461.56466025 0 44.78281501 0 405.66385574 0 33633
0.17650000 0.17650100 8109.25101031 0 -35.52632386 0 1162.88981763 0 59.10443398 0 1123.40515649 0 33984
0.17750000 0.17750300 8022.89495088 0 49.20376611 0 1751.28890693 0 126.74687137 0 891.53259309 0 34069
0.17850000 0.17849800 8212.06640602 0 33.46835226 0 1125.06883603 0 -129.27899163 0 873.36188513 0 34536
