### header ###
fiducial parameters:
Omega_m = 0.31
Omega_nu = 0
Omega_de = 0.69
Omega_k = 0
H_0 = 100
w_de = -1
zeff = 0
beta = 0
fgrowth = 0
b_1 = 2
gamma = 0.55
Lx = 3500 Ly = 3500 Lz = 3500
nx = 700 ny = 700 nz = 700
xoffset = 1379.75464 yoffset = 22.6059522 zoffset = 368.141391
bins = 400 dk = 0.001
kx_ny = 0.628318531 ky_ny = 0.628318531 kz_ny = 0.628318531
############################
A(data) = 3.38265584 (not used)
A(ran) = 3.38411131 (used)
Ngal = 189857
weighted Ngal = 0
Nran = 9399747
weighted Nran = 0
SN(data) = 6622.33035
SN(ran) = 134.604323
SN(data+ran) = 6756.93467
############################
13 columns: k_central k_mean P_0(k) sigma^{lin}_{P_0(k)} P^img_1(k) sigma^{lin}_{P_1(k)} P_2(k) sigma^{lin}_{P_2(k)} P^img_3(k) sigma^{lin}_{P_3(k)} P_4(k) sigma^{lin}_{P_4(k)} N_modes
### header ###
0.00050000 0 0 0 0 0 0 0 0 0 0 0 0
0.00150000 0.00179520 3969.00701032 0 -8364.25981055 0 -6356.33169744 0 4680.95094242 0 30446.55565454 0 3
0.00250000 0.00253879 11258.89584608 0 -11032.46906038 0 -9285.79409138 0 -18504.44207645 0 -19194.75817450 0 6
0.00350000 0.00331552 24200.76991708 0 -14332.82108028 0 -31950.96560859 0 7898.99518977 0 6776.45514664 0 7
0.00450000 0.00420575 35130.14630183 0 -11818.77946803 0 -27405.68218724 0 -14365.42919931 0 -15542.42701945 0 24
0.00550000 0.00557378 48917.39140423 0 -3673.50425002 0 -22405.54877904 0 -30778.62609117 0 -9888.27900081 0 45
0.00650000 0.00659388 59252.72328043 0 -1957.72935572 0 6051.12413981 0 -31232.69969423 0 -33399.69775397 0 40
0.00750000 0.00754703 47959.88837169 0 6773.36070269 0 9100.52673756 0 -19118.11800359 0 -19312.99033397 0 57
0.00850000 0.00846663 48097.53012581 0 7245.70150712 0 31533.04930758 0 -10850.99489591 0 -10667.74613994 0 75
0.00950000 0.00948925 40288.44017851 0 1812.83395879 0 29010.35656171 0 6744.80087055 0 1533.86817315 0 112
0.01050000 0.01054430 41171.18854362 0 1429.11181798 0 23436.14279947 0 26108.67761612 0 1094.79319572 0 105
0.01150000 0.01145670 44002.10565268 0 -3570.64448953 0 13341.82263296 0 11072.12008947 0 4665.92237056 0 144
0.01250000 0.01249090 45044.67816582 0 -2016.14669005 0 6373.25686398 0 15075.59853990 0 7908.40052478 0 169
0.01350000 0.01339930 47791.30217807 0 1305.28969525 0 14481.66494332 0 -3708.43042921 0 22305.72800651 0 180
0.01450000 0.01448870 43909.82689407 0 1839.23100753 0 8942.69900499 0 -4540.82476018 0 7663.58453454 0 267
0.01550000 0.01550050 45478.34396649 0 -2142.91907117 0 3376.88127884 0 8047.59504648 0 -389.39750630 0 238
0.01650000 0.01653350 44376.65537362 0 -2705.68640432 0 4459.70374570 0 6198.79233598 0 1237.31174915 0 315
0.01750000 0.01747870 54405.75930209 0 -4944.96579458 0 -4761.71703860 0 8068.70159427 0 6356.66443334 0 297
0.01850000 0.01844180 55219.07677430 0 -3196.68260202 0 1738.23456812 0 -2695.50468552 0 8988.01763572 0 388
0.01950000 0.01947590 60055.94776342 0 -4453.03793633 0 -4857.10133235 0 -2542.56817080 0 -9078.21124930 0 399
0.02050000 0.02045430 62650.06781764 0 305.75324451 0 -6470.28265488 0 -11232.49879734 0 -16913.18805028 0 462
0.02150000 0.02154770 63189.43272523 0 3222.79127964 0 12143.19697876 0 -19656.37379149 0 -17785.73251420 0 571
0.02250000 0.02255340 63995.65183140 0 2841.75320848 0 12405.83652250 0 -15268.91810271 0 -28595.98944372 0 510
0.02350000 0.02348930 65958.23913138 0 -380.33932575 0 29081.45113415 0 2660.58959753 0 -27771.69168653 0 555
0.02450000 0.02439640 61562.13230899 0 339.19209419 0 23464.97991154 0 -6112.64700929 0 -43559.23415854 0 592
0.02550000 0.02547300 65334.13747911 0 1293.49975289 0 30436.35175334 0 543.40986712 0 -16493.60806973 0 837
0.02650000 0.02652900 62204.31261229 0 -1568.11778933 0 28606.96972870 0 9985.24933573 0 -26447.18094698 0 723
0.02750000 0.02749970 66406.32348809 0 1890.93816770 0 27778.45731667 0 2967.57174666 0 -3563.04701962 0 826
0.02850000 0.02848090 61175.38227140 0 1607.68008884 0 25781.93095402 0 3069.13383712 0 -16885.12732200 0 831
0.02950000 0.02946900 60971.63698346 0 -432.21507211 0 24024.75262151 0 3626.78812848 0 2350.60173402 0 996
0.03050000 0.03053250 61048.49897832 0 -738.64598876 0 20669.88736862 0 7269.79158689 0 -1653.33145548 0 1041
0.03150000 0.03150510 62526.06823576 0 -265.00862340 0 19174.90493197 0 493.29540283 0 -5395.42366743 0 1036
0.03250000 0.03246190 62919.47299151 0 2402.81908926 0 17906.95929684 0 -6573.87443438 0 -4688.27113241 0 1059
0.03350000 0.03345080 56568.98635487 0 4430.60044491 0 21528.90057226 0 -2444.51089859 0 -3955.37592927 0 1302
0.03450000 0.03451200 52993.40628270 0 1644.24776518 0 26014.40244206 0 924.10411117 0 1127.79727048 0 1339
0.03550000 0.03553350 53024.68345809 0 -292.62792204 0 20988.42654497 0 7457.24390652 0 65.09212756 0 1365
0.03650000 0.03647120 52060.08205951 0 -1364.87160525 0 20464.36748917 0 8820.48510582 0 7115.56849333 0 1308
0.03750000 0.03744890 52601.99794240 0 1177.85184231 0 19333.17631242 0 904.14328402 0 2547.37065908 0 1579
0.03850000 0.03847530 52075.27699933 0 1889.79577442 0 16988.38636559 0 -218.18158989 0 8704.70410087 0 1662
0.03950000 0.03950240 49139.65899107 0 1703.61894244 0 20815.73660849 0 -4058.98989116 0 5568.40197504 0 1683
0.04050000 0.04050350 47169.41876519 0 1673.40652196 0 23824.00195675 0 -2956.36963775 0 3040.95110567 0 1822
0.04150000 0.04152450 45561.86067951 0 841.32385363 0 21707.02519524 0 -1707.06830469 0 -1327.64954829 0 1887
0.04250000 0.04250150 44575.74235885 0 1596.84398942 0 27017.93394193 0 577.86023396 0 -6785.93812003 0 1920
0.04350000 0.04349210 43018.20557141 0 982.91296475 0 25464.38998539 0 4469.60818457 0 1780.88022039 0 2005
0.04450000 0.04448520 42728.05985924 0 -673.46967901 0 23346.30410419 0 1519.29434036 0 -6942.80091847 0 2151
0.04550000 0.04548030 42494.81198742 0 -104.62403720 0 20734.21631092 0 1991.60187120 0 -3589.34424758 0 2274
0.04650000 0.04648670 43037.28243016 0 599.89289670 0 16950.89811991 0 1777.58613489 0 -6053.53092955 0 2311
0.04750000 0.04749250 41272.56208373 0 1090.90129472 0 16568.47364913 0 -1814.53091193 0 -6996.87050359 0 2568
0.04850000 0.04851840 40286.99832291 0 1452.98007381 0 16687.26036845 0 -169.33484941 0 -9702.26853679 0 2493
0.04950000 0.04949480 38575.95936970 0 1288.49762307 0 18193.11217811 0 -979.57895095 0 -11200.77797407 0 2644
0.05050000 0.05050630 36171.38787133 0 978.30789978 0 16859.28483312 0 1160.10592719 0 -9358.72980252 0 2829
0.05150000 0.05149060 35782.30868239 0 -706.73772426 0 14900.35762812 0 2687.13083183 0 -10106.88649266 0 2784
0.05250000 0.05249300 37094.06454545 0 -268.16739629 0 14499.52177041 0 2319.41328821 0 -9006.63975539 0 3055
0.05350000 0.05348950 35810.03667476 0 787.63026008 0 12780.49715541 0 981.95579445 0 -9743.94925492 0 3009
0.05450000 0.05448610 35171.29464251 0 959.28760613 0 12421.25328625 0 -801.50091098 0 -4717.26352123 0 3336
0.05550000 0.05550870 35569.35770098 0 -555.93848319 0 13210.17012518 0 1241.57076878 0 -3852.41634800 0 3349
0.05650000 0.05647670 34980.41514303 0 -265.27813949 0 11145.10016539 0 2767.87474561 0 -4236.51558951 0 3324
0.05750000 0.05747970 35260.24604203 0 636.79663630 0 12719.71739613 0 -256.94643234 0 -2782.65931114 0 3639
0.05850000 0.05849280 34292.53910830 0 763.05216764 0 10953.42209973 0 -740.60469414 0 -3536.58342370 0 3846
0.05950000 0.05951020 35076.68673254 0 -184.29909233 0 15273.79822937 0 -672.39383291 0 -698.55796651 0 3787
0.06050000 0.06049470 34244.62513748 0 100.05268946 0 13947.29107436 0 -714.36292216 0 -3787.13356276 0 3930
0.06150000 0.06148310 34028.56862093 0 931.46866594 0 14774.25071882 0 -1103.75488286 0 -2199.93891468 0 4083
0.06250000 0.06249100 34602.64897497 0 -172.68993648 0 15651.00983758 0 416.75727093 0 -4590.02530984 0 4303
0.06350000 0.06350600 33888.26497954 0 191.79119587 0 15840.22565751 0 567.01304334 0 -4094.84773089 0 4470
0.06450000 0.06451750 33984.98021693 0 1100.36874043 0 16359.29367469 0 -1723.03962830 0 -7202.27947107 0 4479
0.06550000 0.06550280 32656.92029435 0 547.08548979 0 16677.38920316 0 755.05652376 0 -2917.61699561 0 4636
0.06650000 0.06648880 31587.28526066 0 622.41024474 0 16534.75641041 0 472.62473908 0 -5613.94242971 0 4653
0.06750000 0.06749660 31577.19227144 0 821.47393845 0 17155.53070360 0 825.50447942 0 -2116.40001927 0 5220
0.06850000 0.06852730 29687.14139949 0 731.69402651 0 16314.48523902 0 1414.88181229 0 -4460.46903829 0 5029
0.06950000 0.06949320 29275.21434483 0 460.26470920 0 16521.33606210 0 1724.60348707 0 862.20525012 0 5040
0.07050000 0.07048030 28779.32692928 0 445.16182631 0 15258.71420152 0 2298.12928126 0 661.51447782 0 5475
0.07150000 0.07148790 27309.96515758 0 100.73845817 0 13208.83918155 0 1328.76975918 0 -1289.25182446 0 5509
0.07250000 0.07249820 27373.62862806 0 654.51371431 0 13474.25152452 0 -441.17232277 0 2131.72805345 0 5916
0.07350000 0.07351270 26012.73876251 0 1141.00688605 0 13426.78120158 0 -335.37339508 0 -831.82091608 0 5721
0.07450000 0.07449140 25611.45925693 0 816.51062781 0 13965.14790145 0 -400.32677177 0 -353.52192065 0 6028
0.07550000 0.07549160 24326.32226654 0 28.83655751 0 12829.07659804 0 1230.23556550 0 -756.02811262 0 6183
0.07650000 0.07648840 24587.51995467 0 -136.03796705 0 12290.59898620 0 1350.26449887 0 -1625.99165500 0 6330
0.07750000 0.07749960 23917.72257096 0 288.71494776 0 11271.42889863 0 1240.38401070 0 461.48584998 0 6583
0.07850000 0.07848650 23786.73553501 0 358.91002412 0 9838.36861454 0 556.54960814 0 -2081.65129923 0 6549
0.07950000 0.07947320 23179.82523800 0 436.97985032 0 10191.88942607 0 366.84355730 0 -8.72402497 0 6828
0.08050000 0.08048110 21873.83679735 0 644.56491065 0 9992.64716409 0 -10.83950442 0 -1543.59515287 0 7147
0.08150000 0.08149960 21986.52335834 0 195.42245375 0 10427.21135172 0 587.00381672 0 500.93058281 0 7386
0.08250000 0.08250610 21580.91828594 0 -57.25342412 0 8704.61537130 0 844.90298288 0 -577.08495929 0 7227
0.08350000 0.08350160 21918.31249711 0 -277.11355575 0 8454.16505301 0 2533.92812838 0 853.37998471 0 7798
0.08450000 0.08449610 21854.75993859 0 103.73186131 0 6895.88515538 0 560.37385285 0 2632.24049813 0 7371
0.08550000 0.08548940 21772.01960936 0 205.19379826 0 7297.80795039 0 493.33200378 0 2837.88238075 0 8256
0.08650000 0.08650700 21680.07358666 0 379.98108009 0 6866.87058416 0 305.78651810 0 3092.93554577 0 8037
0.08750000 0.08749060 20922.43392313 0 352.37398176 0 7521.18465692 0 -156.51453485 0 3696.52957489 0 8155
0.08850000 0.08849210 20120.76220771 0 614.74955501 0 7859.58816701 0 -396.33726823 0 3281.87408578 0 8718
0.08950000 0.08949900 20189.97127667 0 422.84079245 0 8821.00639207 0 237.12313603 0 3879.65632770 0 8571
0.09050000 0.09049190 19399.27984623 0 227.81096708 0 8334.28030520 0 474.93281716 0 3592.18359400 0 8932
0.09150000 0.09150830 19143.62775657 0 185.59565325 0 8019.01303194 0 602.64462266 0 3864.21738155 0 9285
0.09250000 0.09250820 18590.73158870 0 -79.44347094 0 7478.18408635 0 1275.52092264 0 3696.32993334 0 9204
0.09350000 0.09350330 18992.12200626 0 -124.77263831 0 6488.88259216 0 1227.14112155 0 3822.84721693 0 9349
0.09450000 0.09448040 18860.13676257 0 -100.66858363 0 5144.42988049 0 978.33008217 0 3683.00940581 0 9564
0.09550000 0.09549270 18683.67581913 0 689.54415075 0 5814.82618883 0 -1069.24795091 0 3909.11454679 0 10155
0.09650000 0.09649430 18112.36826433 0 229.25947740 0 4748.28559909 0 -4.63927022 0 2027.23788700 0 9913
0.09750000 0.09749140 17261.22981052 0 474.90619829 0 6106.95722525 0 -250.81521867 0 2327.74277711 0 10476
0.09850000 0.09850240 17338.20271734 0 263.93277730 0 5335.17628561 0 -723.52646908 0 2150.51654108 0 10575
0.09950000 0.09950330 17142.66491514 0 -72.36983826 0 7428.38461206 0 546.40781765 0 1739.83170048 0 10882
0.10050000 0.10051200 17014.78341433 0 332.38099014 0 6675.09269773 0 -652.87443540 0 776.01444952 0 10875
0.10150000 0.10150300 16498.48819639 0 366.22577763 0 6840.41807944 0 -793.74150960 0 1577.57858032 0 11118
0.10250000 0.10250800 16329.90200278 0 396.81308058 0 7948.83902885 0 -212.83008736 0 1900.21040835 0 11575
0.10350000 0.10349800 16297.84844360 0 13.71204679 0 8089.45322376 0 -64.12242421 0 605.58489897 0 11364
0.10450000 0.10450100 16095.43409929 0 26.89038518 0 7934.64229676 0 923.18797830 0 518.99481528 0 12093
0.10550000 0.10551000 15951.35945093 0 142.57511853 0 7686.79840975 0 -37.31433572 0 512.77043555 0 12067
0.10650000 0.10649700 16255.48007125 0 -237.56567479 0 7250.08252992 0 503.69450909 0 1405.88685157 0 12054
0.10750000 0.10749900 16222.87195223 0 -238.95429265 0 6508.30327802 0 1092.79012556 0 688.43503105 0 12807
0.10850000 0.10850100 16222.09556844 0 385.03201118 0 6406.49718123 0 103.61207639 0 674.10409548 0 12736
0.10950000 0.10950300 15687.38896357 0 536.93371722 0 6072.03104606 0 -255.32046287 0 357.75764876 0 12933
0.11050000 0.11050200 15067.39105416 0 321.36299510 0 6449.39793103 0 299.82610886 0 1412.99630881 0 13428
0.11150000 0.11150900 14600.45166264 0 79.00403772 0 6128.31887057 0 713.79061640 0 1276.44149198 0 13453
0.11250000 0.11250000 14665.88972463 0 72.84376511 0 5977.48968328 0 465.76372464 0 1405.33229172 0 13668
0.11350000 0.11349100 14490.20516497 0 126.03925300 0 5513.53382373 0 6.55724873 0 1039.27731852 0 13791
0.11450000 0.11448600 14295.11101066 0 194.26675103 0 5765.08217052 0 -128.69781291 0 1780.70276123 0 14205
0.11550000 0.11549300 14083.38006091 0 85.72197571 0 5680.33433464 0 84.70602207 0 1312.95371234 0 14776
0.11650000 0.11649800 14191.07558328 0 122.63425554 0 5333.76770360 0 160.40865410 0 723.86918707 0 14553
0.11750000 0.11747300 13878.74747722 0 229.53897556 0 5771.08250807 0 58.59357345 0 1348.97792002 0 14568
0.11850000 0.11849100 13466.59859862 0 262.81922112 0 5772.39126931 0 -487.32390239 0 777.11247802 0 16015
0.11950000 0.11950300 13314.42737649 0 177.07428664 0 6228.88275330 0 -124.91460563 0 811.45636937 0 15270
0.12050000 0.12050700 13447.29991593 0 7.12075917 0 5942.85187521 0 544.53562361 0 472.51271799 0 15999
0.12150000 0.12150000 13398.49864936 0 -216.59998520 0 5658.20739673 0 86.66738934 0 -244.26808511 0 15670
0.12250000 0.12250700 13324.29854178 0 158.48544055 0 5260.54362135 0 499.26135767 0 574.00049742 0 16887
0.12350000 0.12352200 13344.70634416 0 9.93675862 0 5151.41733457 0 341.17852756 0 -20.61676054 0 16407
0.12450000 0.12449800 13154.38140453 0 39.14083403 0 4401.85206242 0 222.42508184 0 373.69902614 0 16306
0.12550000 0.12549900 13027.27628750 0 220.62498057 0 4709.78805449 0 394.67358868 0 -245.10325224 0 17523
0.12650000 0.12650100 12937.43759222 0 42.95043836 0 3555.53827928 0 197.39335945 0 -159.64447063 0 17154
0.12750000 0.12750600 12442.32656046 0 60.03864550 0 3964.83672026 0 163.89350818 0 22.18294846 0 18007
0.12850000 0.12850300 12616.01470466 0 134.70036870 0 3252.48241387 0 505.90609376 0 -211.47917957 0 17496
0.12950000 0.12949900 12260.65275444 0 55.14631852 0 3252.59332584 0 -116.49971450 0 -689.69720927 0 18405
0.13050000 0.13049000 12271.07847957 0 238.74466903 0 3171.94923283 0 -47.68305210 0 -805.76991269 0 18100
0.13150000 0.13148800 12044.04167804 0 103.80794692 0 3413.00530730 0 -311.40975495 0 -311.96764216 0 19059
0.13250000 0.13249300 11783.28763779 0 195.25386756 0 3204.85681417 0 -118.92979576 0 -1268.89947806 0 18957
0.13350000 0.13349100 11774.41468023 0 34.88791456 0 3353.70067722 0 175.95518487 0 -677.83184677 0 19468
0.13450000 0.13450700 11572.55489578 0 123.23207105 0 3467.75145544 0 136.43503190 0 -659.82085205 0 19953
0.13550000 0.13551000 11657.06981652 0 173.06149158 0 3503.99748706 0 118.11459278 0 -348.53642762 0 19956
0.13650000 0.13649900 11404.30143807 0 68.10327662 0 3644.34549325 0 129.50857941 0 376.50953544 0 19723
0.13750000 0.13749600 11349.62183712 0 81.08064252 0 3931.70731498 0 142.97772898 0 119.69952482 0 20946
0.13850000 0.13851100 11380.34445266 0 7.31455566 0 3798.89023152 0 128.76879657 0 989.42571560 0 20955
0.13950000 0.13949800 11362.26580164 0 45.90413502 0 3831.07688507 0 37.73879582 0 606.11505819 0 20506
0.14050000 0.14048300 11339.19611198 0 141.73107844 0 3953.34624022 0 -372.78178415 0 266.39502302 0 21447
0.14150000 0.14148400 11142.21645418 0 214.65791662 0 4347.97102764 0 -494.90029903 0 20.87374357 0 21771
0.14250000 0.14249400 11027.85512245 0 109.84078168 0 4452.97138915 0 94.31088771 0 195.38585280 0 22470
0.14350000 0.14350900 10903.48953107 0 7.49071714 0 4343.63436964 0 273.02423144 0 -252.67853975 0 22519
0.14450000 0.14449900 10859.64602953 0 37.39818517 0 4025.84939467 0 376.68366723 0 -144.99078123 0 22218
0.14550000 0.14550500 10785.39046597 0 73.17295183 0 3693.32421897 0 595.52961982 0 472.08792514 0 23559
0.14650000 0.14650700 10511.75954606 0 182.44353508 0 3569.94574412 0 139.85222968 0 86.72839092 0 23044
0.14750000 0.14750500 10609.06261688 0 131.91426002 0 3294.28513517 0 269.60370630 0 1102.85871414 0 23649
0.14850000 0.14849900 10173.62222470 0 9.42786123 0 3187.44363496 0 470.34993458 0 858.17914563 0 23640
0.14950000 0.14949500 10214.39346468 0 99.81323052 0 3013.93294991 0 -139.90324919 0 1472.23439171 0 24457
0.15050000 0.15050000 10159.84695809 0 38.75242031 0 2875.95845987 0 232.62121919 0 1171.50767766 0 24591
0.15150000 0.15149900 10080.89981821 0 10.55660126 0 3402.10266070 0 -95.72989545 0 1303.19345902 0 25020
0.15250000 0.15250500 10137.83093214 0 199.25002582 0 2817.18620724 0 77.76881111 0 1051.19813700 0 25297
0.15350000 0.15350100 9912.11398305 0 202.51305596 0 3352.76901668 0 -300.97626599 0 720.41649746 0 25452
0.15450000 0.15450400 9589.78161734 0 161.40908007 0 3321.40311171 0 -200.96472486 0 1120.11107100 0 26061
0.15550000 0.15549900 9341.23898493 0 169.89051837 0 3549.29393540 0 146.59900478 0 654.63349924 0 26128
0.15650000 0.15649500 9417.95679422 0 -34.45369420 0 3191.20355073 0 379.01060035 0 784.95173602 0 26331
0.15750000 0.15749700 9294.20121867 0 -66.63957136 0 2983.09942239 0 147.41198952 0 265.85709997 0 27345
0.15850000 0.15849900 9372.84889623 0 119.89251165 0 3084.78351601 0 -52.12341279 0 309.97455407 0 26980
0.15950000 0.15949700 9281.29106542 0 165.63149875 0 2910.05279929 0 -418.01612178 0 -456.43713713 0 27777
0.16050000 0.16050000 8986.27631780 0 141.40277901 0 2924.84845602 0 -285.24451223 0 -295.33084674 0 28224
0.16150000 0.16150500 9062.99412709 0 -25.60691187 0 2951.36750792 0 111.34785352 0 -586.25848829 0 28075
0.16250000 0.16249700 8882.47380556 0 22.45457187 0 3032.74361993 0 14.73554244 0 -1065.13755332 0 28590
0.16350000 0.16349900 9146.66611687 0 56.77372985 0 3073.28194478 0 86.04450772 0 -999.16267740 0 29163
0.16450000 0.16449100 8986.05449386 0 21.30508022 0 2794.93726616 0 168.10150831 0 -856.92473125 0 28996
0.16550000 0.16550500 8727.24141307 0 170.90647201 0 2914.07890378 0 -68.74922793 0 -720.36658707 0 30777
0.16650000 0.16650700 8779.48095070 0 260.71743930 0 2977.24327040 0 -33.84234742 0 -560.51803841 0 29211
0.16750000 0.16749900 8486.66226007 0 71.98353187 0 3127.46244187 0 332.61390528 0 247.02424755 0 30922
0.16850000 0.16850800 8344.29565604 0 71.41022790 0 2831.03911223 0 384.25230003 0 185.60785357 0 30867
0.16950000 0.16949900 8311.82063138 0 65.64668741 0 3099.57917274 0 -44.00354751 0 437.92260206 0 30852
0.17050000 0.17049200 8217.71182527 0 73.86570800 0 2956.14781381 0 -62.26431599 0 250.44588181 0 31257
0.17150000 0.17149500 8088.18882731 0 38.67677835 0 2822.55434657 0 158.46991288 0 251.69031411 0 32608
0.17250000 0.17250900 8184.39386964 0 45.84679353 0 3033.09853823 0 -190.11309777 0 175.23758442 0 32361
0.17350000 0.17350400 8131.69959294 0 -5.65560097 0 2626.91672360 0 309.13273222 0 15.68761079 0 32508
0.17450000 0.17449800 8175.46545610 0 -44.56564937 0 2673.61066275 0 277.93208609 0 409.04999817 0 32791
0.17550000 0.17549800 8061.59213703 0 107.63862453 0 2332.12379991 0 26.98543673 0 -125.69431677 0 33633
0.17650000 0.17650100 8120.09820093 0 133.24409454 0 2453.04002904 0 36.53950470 0 474.73317562 0 33984
0.17750000 0.17750300 7806.73861355 0 40.90156155 0 2421.19720260 0 244.44887162 0 420.79003014 0 34069
0.17850000 0.17849800 7916.95183763 0 3.43075122 0 2135.09977732 0 234.17287765 0 863.35540725 0 34536
