### header ###
fiducial parameters:
Omega_m = 0.31
Omega_nu = 0
Omega_de = 0.69
Omega_k = 0
H_0 = 100
w_de = -1
zeff = 0
beta = 0
fgrowth = 0
b_1 = 2
gamma = 0.55
Lx = 3500 Ly = 3500 Lz = 3500
nx = 700 ny = 700 nz = 700
xoffset = 1379.75464 yoffset = 22.6059522 zoffset = 368.141391
bins = 400 dk = 0.001
kx_ny = 0.628318531 ky_ny = 0.628318531 kz_ny = 0.628318531
############################
A(data) = 3.27403623 (not used)
A(ran) = 3.27118569 (used)
Ngal = 183488
weighted Ngal = 0
Nran = 9399747
weighted Nran = 0
SN(data) = 6713.28906
SN(ran) = 130.112663
SN(data+ran) = 6843.40172
############################
13 columns: k_central k_mean P_0(k) sigma^{lin}_{P_0(k)} P^img_1(k) sigma^{lin}_{P_1(k)} P_2(k) sigma^{lin}_{P_2(k)} P^img_3(k) sigma^{lin}_{P_3(k)} P_4(k) sigma^{lin}_{P_4(k)} N_modes
### header ###
0.00050000 0 0 0 0 0 0 0 0 0 0 0 0
0.00150000 0.00179520 65744.95541407 0 -20785.12490491 0 -55619.91263201 0 80483.04883084 0 -105534.73537779 0 3
0.00250000 0.00253879 111266.88778457 0 -23000.70240729 0 -5458.75440201 0 -44705.84209905 0 135443.47889230 0 6
0.00350000 0.00331552 103995.27724138 0 -8041.35070260 0 -38008.20099793 0 -42063.80807401 0 -54775.09616046 0 7
0.00450000 0.00420575 106459.63029130 0 -3416.64321990 0 -28238.85290199 0 -15453.14288402 0 19228.25358929 0 24
0.00550000 0.00557378 103911.31688048 0 -5283.04765995 0 -35867.59998692 0 -16947.68167279 0 -15817.93235165 0 45
0.00650000 0.00659388 127045.22456311 0 7755.49728365 0 -2150.63854425 0 -40922.74573198 0 -38625.86975597 0 40
0.00750000 0.00754703 103960.67270690 0 9511.88814117 0 -18008.00010104 0 -27317.17443559 0 -12026.96123474 0 57
0.00850000 0.00846663 82246.88188151 0 16865.38499144 0 30314.01585100 0 -33928.52602446 0 -21955.35709492 0 75
0.00950000 0.00948925 70629.18581416 0 9310.56073417 0 13426.11572976 0 2049.47573688 0 -14445.17490537 0 112
0.01050000 0.01054430 59308.40108911 0 3086.69120189 0 45110.22713978 0 10324.91724227 0 465.10268931 0 105
0.01150000 0.01145670 54009.80357103 0 1919.83073575 0 4689.39134330 0 29780.08562992 0 -5960.69761110 0 144
0.01250000 0.01249090 63482.01850072 0 -6728.96264130 0 15858.96978036 0 17582.76361005 0 17352.17762549 0 169
0.01350000 0.01339930 56073.20985128 0 -4735.49744901 0 -23075.01342684 0 17049.16612487 0 15078.37133914 0 180
0.01450000 0.01448870 78152.56652808 0 -11914.60740966 0 -29338.54507941 0 9014.99142670 0 18320.32820710 0 267
0.01550000 0.01550050 74597.17243436 0 -8939.79311139 0 -35818.24416050 0 1998.02367424 0 -18364.80390687 0 238
0.01650000 0.01653350 92374.03199100 0 2008.30521381 0 -33580.04061635 0 -26144.28035832 0 -1416.46785345 0 315
0.01750000 0.01747870 86285.51942627 0 2777.13589506 0 -36875.90070148 0 -10259.36826830 0 -18124.56858097 0 297
0.01850000 0.01844180 79326.34790111 0 -60.39722389 0 -15537.32506886 0 -11239.37533945 0 -10180.84259391 0 388
0.01950000 0.01947590 84214.46022013 0 750.97829065 0 -21931.73284542 0 -5587.96684645 0 -29046.29203982 0 399
0.02050000 0.02045430 79567.69234670 0 5027.28465833 0 -10878.95580342 0 -10003.92691139 0 -28323.47873471 0 462
0.02150000 0.02154770 71399.46944221 0 5453.58590423 0 -4970.33136200 0 -13305.55441894 0 -15089.12980018 0 571
0.02250000 0.02255340 68760.87368823 0 -2475.59952363 0 -14151.36909821 0 3320.93728143 0 -5228.86716286 0 510
0.02350000 0.02348930 74844.72795024 0 -5735.61286023 0 -4635.61012930 0 15224.22057901 0 -20036.91275878 0 555
0.02450000 0.02439640 74282.18244103 0 -511.08124625 0 -16977.40608061 0 2249.22819392 0 -22687.93065335 0 592
0.02550000 0.02547300 70742.53784697 0 6128.42978254 0 -13633.63202466 0 -12793.36294387 0 -4600.59522053 0 837
0.02650000 0.02652900 67484.60965540 0 958.90495983 0 -3899.83121495 0 -4806.99130454 0 -9720.21409345 0 723
0.02750000 0.02749970 65168.10226079 0 -1184.82820519 0 -8258.02832618 0 3797.10454881 0 -8428.67748242 0 826
0.02850000 0.02848090 64932.74706155 0 3726.60890101 0 -514.77017836 0 -4786.20640146 0 -15046.09595602 0 831
0.02950000 0.02946900 59923.18613595 0 4521.19334158 0 1911.71197959 0 -12098.49945506 0 -11019.99146382 0 996
0.03050000 0.03053250 57330.06428945 0 2589.63921065 0 11457.53918342 0 -4287.19126837 0 -11618.36153917 0 1041
0.03150000 0.03150510 53825.80061366 0 2145.88042075 0 14365.65102325 0 -2287.91428887 0 -15221.44777977 0 1036
0.03250000 0.03246190 52237.54121068 0 2104.29952340 0 17756.11901835 0 -5671.33937391 0 -11733.48816349 0 1059
0.03350000 0.03345080 50058.45374626 0 3505.78316977 0 28746.16425040 0 -3065.60683649 0 -13808.87293645 0 1302
0.03450000 0.03451200 46874.39292636 0 475.63156257 0 20957.03845761 0 5616.02757473 0 -4448.79000790 0 1339
0.03550000 0.03553350 46810.50763194 0 242.03875452 0 25629.31608401 0 6088.09109924 0 -6166.15094336 0 1365
0.03650000 0.03647120 46476.77351577 0 134.01604185 0 23272.21490858 0 2714.22662597 0 -1702.53200514 0 1308
0.03750000 0.03744890 46246.63117910 0 774.74894395 0 23875.57602256 0 1601.45792735 0 628.91634087 0 1579
0.03850000 0.03847530 43760.98303103 0 1998.24549818 0 22194.70512506 0 -1931.76486367 0 -1080.95692753 0 1662
0.03950000 0.03950240 41589.21575660 0 2020.81608397 0 22578.68236341 0 -4496.33796922 0 -4890.33055841 0 1683
0.04050000 0.04050350 39836.80663878 0 1678.60829333 0 26350.24388565 0 -1642.99445992 0 -6740.87458683 0 1822
0.04150000 0.04152450 38299.78856569 0 663.51200239 0 25866.77861068 0 4234.66335962 0 -2406.19081313 0 1887
0.04250000 0.04250150 38495.54819183 0 -990.90306303 0 21854.98176253 0 5008.06361402 0 -6863.24376276 0 1920
0.04350000 0.04349210 37906.49472191 0 -756.68803883 0 16503.36832305 0 6258.59606993 0 -3837.90906239 0 2005
0.04450000 0.04448520 39526.25312423 0 108.18253683 0 14520.15139674 0 4119.37036734 0 140.36242474 0 2151
0.04550000 0.04548030 37232.37177140 0 -198.31171055 0 10360.91926756 0 3821.49409090 0 2871.20033638 0 2274
0.04650000 0.04648670 38751.75484133 0 601.93811341 0 10783.30532094 0 -922.18422498 0 2255.76090892 0 2311
0.04750000 0.04749250 36809.79716767 0 679.80497071 0 10409.12160950 0 -669.67094406 0 922.83749648 0 2568
0.04850000 0.04851840 36063.35961305 0 722.87541582 0 9185.10820549 0 -1638.15869806 0 1875.93177823 0 2493
0.04950000 0.04949480 35335.88800522 0 593.08733825 0 10578.76146682 0 823.26294852 0 44.20940012 0 2644
0.05050000 0.05050630 35702.34115239 0 -311.00492627 0 8898.77786507 0 2069.92790405 0 460.26470920 0 2829
0.05150000 0.05149060 34680.84191346 0 366.00395369 0 8976.63806765 0 -15.38748300 0 -2002.41578823 0 2784
0.05250000 0.05249300 34863.73575113 0 882.05072882 0 11921.92759964 0 -1795.33205001 0 -2074.65275395 0 3055
0.05350000 0.05348950 33772.14014749 0 597.45616073 0 9638.07268885 0 -1421.90253996 0 -4873.69376299 0 3009
0.05450000 0.05448610 33146.81846355 0 398.10076854 0 11958.86128548 0 -936.56396182 0 -3431.11723192 0 3336
0.05550000 0.05550870 32798.44396741 0 42.46486576 0 11311.02447174 0 906.26613912 0 -6990.29342380 0 3349
0.05650000 0.05647670 32607.56446793 0 -74.10782882 0 10884.70104344 0 1038.43882403 0 -6121.30923410 0 3324
0.05750000 0.05747970 32554.54854651 0 615.92854925 0 10137.04345716 0 -862.57791434 0 -7539.52949667 0 3639
0.05850000 0.05849280 32619.21022472 0 383.07996051 0 9937.31318252 0 645.72283161 0 -6928.34908884 0 3846
0.05950000 0.05951020 31170.25625541 0 141.73551492 0 10078.50411967 0 893.77079664 0 -4904.62711128 0 3787
0.06050000 0.06049470 30827.20553380 0 410.07149741 0 9083.93430693 0 21.80052399 0 -4743.20583089 0 3930
0.06150000 0.06148310 31590.05805990 0 39.28013946 0 9427.80577711 0 1291.34806068 0 -4057.69222111 0 4083
0.06250000 0.06249100 30513.87922001 0 306.57732044 0 9331.44545802 0 -695.55447038 0 -4059.27826228 0 4303
0.06350000 0.06350600 30667.82503365 0 1424.04314097 0 11613.03776464 0 -2381.50180872 0 -3266.18004210 0 4470
0.06450000 0.06451750 28928.83626414 0 547.78756255 0 12693.32034739 0 36.07456172 0 -3109.99380668 0 4479
0.06550000 0.06550280 29003.03637172 0 -122.34810266 0 11578.87687804 0 215.15369312 0 -1546.50104648 0 4636
0.06650000 0.06648880 29169.07159004 0 -132.33683463 0 14140.61063717 0 2116.79930236 0 -276.97602491 0 4653
0.06750000 0.06749660 30151.86255162 0 -221.81395689 0 13014.96505889 0 163.72714023 0 1100.58612789 0 5220
0.06850000 0.06852730 29654.08963258 0 748.19883669 0 13815.52765461 0 -127.94582976 0 -183.80997054 0 5029
0.06950000 0.06949320 29294.29120358 0 1156.62329135 0 16429.72277531 0 -1485.06690658 0 969.88191745 0 5040
0.07050000 0.07048030 27949.59448558 0 269.12789395 0 16328.34923520 0 305.28075952 0 2123.86439481 0 5475
0.07150000 0.07148790 28195.15358602 0 6.58957957 0 17379.35105802 0 1319.54188332 0 2026.68332715 0 5509
0.07250000 0.07249820 27905.11878582 0 -44.22858789 0 15661.43556271 0 1072.80378865 0 2047.20204151 0 5916
0.07350000 0.07351270 28043.64783570 0 7.89828535 0 15086.57882488 0 2861.85045735 0 2802.42382410 0 5721
0.07450000 0.07449140 27476.88767165 0 14.81650818 0 13788.57604603 0 1643.70429653 0 4349.80107514 0 6028
0.07550000 0.07549160 27514.70865324 0 508.36944860 0 10663.09892842 0 1517.95230553 0 4769.07050218 0 6183
0.07650000 0.07648840 26813.07953430 0 592.96311684 0 11922.70398343 0 898.28491379 0 4981.97711879 0 6330
0.07750000 0.07749960 25709.72726189 0 304.36684489 0 8721.07470757 0 652.78903318 0 4681.68296142 0 6583
0.07850000 0.07848650 25471.82108735 0 214.87419496 0 10982.02629666 0 315.39925850 0 3460.23162391 0 6549
0.07950000 0.07947320 25079.41453932 0 234.17731413 0 8805.94454662 0 -190.46025223 0 4363.46542978 0 6828
0.08050000 0.08048110 24378.22906825 0 406.79848519 0 8637.00343470 0 1307.03101317 0 1835.19381184 0 7147
0.08150000 0.08149960 24188.12595256 0 257.72170701 0 7805.69604104 0 -40.31749911 0 2899.72689493 0 7386
0.08250000 0.08250610 23515.55576962 0 330.12947716 0 8377.12559901 0 -214.81762985 0 1764.34324574 0 7227
0.08350000 0.08350160 23433.81364811 0 205.95798173 0 8044.80006485 0 1064.11938144 0 1243.92210253 0 7798
0.08450000 0.08449610 23328.00362923 0 195.56553019 0 6069.71298590 0 45.45616157 0 1240.49492267 0 7371
0.08550000 0.08548940 22999.37146365 0 -138.20740517 0 6627.97729309 0 -60.37548515 0 -634.06820185 0 8256
0.08650000 0.08650700 22629.03639755 0 254.14590511 0 6840.04097874 0 -73.25879770 0 -305.36283438 0 8037
0.08750000 0.08749060 22516.57166050 0 593.02300931 0 6505.37520203 0 -718.88480316 0 -1749.69177457 0 8155
0.08850000 0.08849210 21700.59230101 0 468.75945694 0 6466.92202221 0 96.67297993 0 -941.69474953 0 8718
0.08950000 0.08949900 20812.52016137 0 652.25221925 0 7282.61301057 0 -61.15918912 0 -1615.74338902 0 8571
0.09050000 0.09049190 20580.71414515 0 114.73288683 0 6922.57057523 0 1205.77947623 0 -365.73000113 0 8932
0.09150000 0.09150830 20265.28050394 0 -142.86016229 0 6181.17951523 0 1048.33771731 0 -1026.94279839 0 9285
0.09250000 0.09250820 20264.72594410 0 166.41897373 0 5483.98687506 0 492.10753564 0 -272.92441066 0 9204
0.09350000 0.09350330 20036.58002287 0 463.80169190 0 6191.21704847 0 -1003.45386150 0 -381.50722879 0 9349
0.09450000 0.09448040 18962.61942238 0 747.75407969 0 6139.83153301 0 -1035.83793835 0 -794.90275792 0 9564
0.09550000 0.09549270 18544.48129743 0 603.63284831 0 7687.86316466 0 -506.12680858 0 -1.06529727 0 10155
0.09650000 0.09649430 17799.70742236 0 266.17098084 0 6878.49415856 0 421.62076079 0 -1601.76848087 0 9913
0.09750000 0.09749140 17679.92249531 0 185.89955205 0 7425.76708958 0 866.92677266 0 -329.22776285 0 10476
0.09850000 0.09850240 17441.12902502 0 152.75461909 0 6470.91485311 0 634.65381705 0 -482.95397079 0 10575
0.09950000 0.09950330 17008.01778419 0 50.67867348 0 6169.10120175 0 418.27565579 0 -20.06475166 0 10882
0.10050000 0.10051200 16979.06976016 0 -9.12417317 0 5787.23129083 0 668.68050017 0 305.20423026 0 10875
0.10150000 0.10150300 16962.32205276 0 -52.12618559 0 5408.68873898 0 779.86864046 0 119.49655592 0 11118
0.10250000 0.10250800 17063.69559287 0 119.74499873 0 5450.46927789 0 -34.48718961 0 586.89068652 0 11575
0.10350000 0.10349800 16494.60627746 0 575.56102883 0 4901.62139690 0 -367.68648827 0 -344.30513598 0 11364
0.10450000 0.10450100 16125.82397893 0 405.83909665 0 5999.60552999 0 -459.48832541 0 354.04431602 0 12093
0.10550000 0.10551000 15751.71790587 0 43.11625175 0 5970.26931406 0 47.03066789 0 11.69666539 0 12067
0.10650000 0.10649700 15723.76808956 0 175.23203882 0 6640.03342417 0 134.89668288 0 737.90842416 0 12054
0.10750000 0.10749900 15506.49154134 0 90.70403047 0 6256.17818899 0 -309.11165895 0 -310.64224413 0 12807
0.10850000 0.10850100 15651.00983758 0 -49.49058446 0 6543.70637868 0 294.54226264 0 444.74036083 0 12736
0.10950000 0.10950300 15747.17051512 0 263.68877097 0 6938.70826679 0 -498.40400814 0 -713.14399962 0 12933
0.11050000 0.11050200 15630.60203519 0 104.82201506 0 6502.36948765 0 749.38226741 0 770.91693540 0 13428
0.11150000 0.11150900 15111.31219408 0 161.87934682 0 6606.17199989 0 163.19587190 0 131.85325844 0 13453
0.11250000 0.11250000 15097.78093380 0 368.65585888 0 6570.81326402 0 515.48777880 0 1025.35010251 0 13668
0.11350000 0.11349100 14509.61475963 0 246.37873989 0 6260.69230615 0 801.44545500 0 1690.65333321 0 13791
0.11450000 0.11448600 14078.83267017 0 159.19305892 0 5678.78156707 0 902.56611582 0 3069.41111704 0 14205
0.11550000 0.11549300 13969.02982038 0 -19.58494648 0 5343.81632803 0 965.46873019 0 3158.60652290 0 14776
0.11650000 0.11649800 14019.93841437 0 164.54012497 0 5285.86482398 0 663.89132133 0 4120.16893352 0 14553
0.11750000 0.11747300 13687.97888971 0 179.59087923 0 4478.19277101 0 -95.72856451 0 3626.24465983 0 14568
0.11850000 0.11849100 13388.84930802 0 141.13548117 0 5036.16870708 0 -138.33051746 0 3909.71347143 0 16015
0.11950000 0.11950300 13474.91699633 0 84.14735848 0 4497.69109525 0 -243.07245408 0 2966.92845724 0 15270
0.12050000 0.12050700 13509.29970687 0 62.82231411 0 5927.77893855 0 -32.30521844 0 2656.65222261 0 15999
0.12150000 0.12150000 13436.43054292 0 40.81926486 0 4621.43557960 0 -196.04910638 0 2308.87665111 0 15670
0.12250000 0.12250700 13265.18246204 0 -138.38819168 0 5395.25729948 0 291.37018031 0 2235.12019140 0 16887
0.12350000 0.12352200 13722.13977631 0 -103.93505204 0 4633.18115717 0 715.27350943 0 2028.82392816 0 16407
0.12450000 0.12449800 13734.56191689 0 -157.29757336 0 4063.02708685 0 572.50540407 0 1887.00079279 0 16306
0.12550000 0.12549900 13499.20671765 0 208.63206931 0 3764.11932909 0 144.67246387 0 1803.27334702 0 17523
0.12650000 0.12650100 13749.64594474 0 134.52512778 0 3434.69968853 0 -119.93465820 0 2040.56950573 0 17154
0.12750000 0.12750600 13045.46585050 0 198.72319396 0 3788.33141203 0 -54.83620866 0 1368.59824743 0 18007
0.12850000 0.12850300 12807.33785202 0 384.32993841 0 3432.47035795 0 -433.31088237 0 989.14621743 0 17496
0.12950000 0.12949900 12575.42092383 0 116.85685105 0 4023.07659544 0 -218.06180496 0 498.01137977 0 18405
0.13050000 0.13049000 12054.35649121 0 404.17430799 0 4109.74320839 0 -371.14028700 0 135.73295913 0 18100
0.13150000 0.13148800 12150.29534481 0 198.41485869 0 4393.51148231 0 152.56828698 0 635.83724777 0 19059
0.13250000 0.13249300 11579.20961394 0 33.27969100 0 4234.33062371 0 240.81650462 0 103.77899890 0 18957
0.13350000 0.13349100 11705.76017112 0 147.46189991 0 4030.84043330 0 229.70090704 0 445.24057381 0 19468
0.13450000 0.13450700 11399.64313535 0 60.86516149 0 4382.49792374 0 53.97497721 0 554.35244203 0 19953
0.13550000 0.13551000 11416.27993077 0 52.27857864 0 3796.07306750 0 441.87550466 0 1064.12714528 0 19956
0.13650000 0.13649900 11602.27930360 0 -95.85311865 0 3826.55167671 0 386.25869756 0 729.61331796 0 19723
0.13750000 0.13749600 11396.53760021 0 100.77295179 0 3371.69059867 0 -60.60496201 0 39.51294369 0 20946
0.13850000 0.13851100 11174.82457321 0 257.72836173 0 3235.00268748 0 -145.96347920 0 420.96416193 0 20955
0.13950000 0.13949800 11052.27793813 0 94.10237321 0 3157.80795672 0 -68.63066304 0 -38.22547755 0 20506
0.14050000 0.14048300 10819.16316067 0 140.02081587 0 2944.69060736 0 216.14968261 0 -135.69746730 0 21447
0.14150000 0.14148400 10727.21713797 0 -96.09191212 0 2410.54965353 0 641.94627905 0 -367.45468225 0 21771
0.14250000 0.14249400 10799.12136779 0 -122.90155338 0 2062.87390279 0 414.72536365 0 -594.12436516 0 22470
0.14350000 0.14350900 10803.04765151 0 62.30790439 0 1339.81659135 0 93.10294545 0 -1026.20745204 0 22519
0.14450000 0.14449900 10701.74065858 0 144.03361093 0 1476.34922578 0 -455.51324042 0 -1001.65154199 0 22218
0.14550000 0.14550500 10572.65021730 0 167.31181508 0 1681.11490384 0 -158.92908843 0 -1037.02580554 0 23559
0.14650000 0.14650700 10405.20641698 0 149.52708078 0 1868.62267944 0 -101.26562276 0 -1551.12607560 0 23044
0.14750000 0.14750500 10059.47162571 0 230.04473414 0 2137.82821177 0 -51.99464400 0 -961.91400157 0 23649
0.14850000 0.14849900 10094.75272320 0 64.85643963 0 2231.84828830 0 243.07689056 0 -504.59400516 0 23640
0.14950000 0.14949500 9917.62630793 0 27.28800459 0 2175.00590394 0 360.19105737 0 157.62587279 0 24457
0.15050000 0.15050000 10035.09317481 0 55.80591200 0 2252.27827308 0 383.18976336 0 348.31460368 0 24591
0.15150000 0.15149900 9849.61508825 0 202.02726153 0 2548.73487631 0 -220.40315664 0 1503.73339104 0 25020
0.15250000 0.15250500 9723.39726698 0 138.18633190 0 2475.00059900 0 291.99128734 0 1456.19652092 0 25297
0.15350000 0.15350100 9634.65660019 0 -24.34129538 0 3078.46153375 0 -27.69405331 0 1984.96933543 0 25452
0.15450000 0.15450400 9777.07866021 0 36.42260348 0 2447.80498408 0 230.82000881 0 2226.49124017 0 26061
0.15550000 0.15549900 9599.83024178 0 -11.53628668 0 2802.63455685 0 405.94224478 0 1988.21905614 0 26128
0.15650000 0.15649500 9710.89748802 0 76.76827424 0 2536.51237727 0 -192.24371670 0 2204.09811354 0 26331
0.15750000 0.15749700 9473.73442367 0 164.93829894 0 2636.75461529 0 -225.00045777 0 1429.91038416 0 27345
0.15850000 0.15849900 9344.07833135 0 212.87556127 0 2687.55229731 0 -121.09257916 0 1763.22303484 0 26980
0.15950000 0.15949700 8982.81586435 0 93.76775180 0 2677.98059435 0 -114.43342451 0 1001.20123940 0 27777
0.16050000 0.16050000 9049.29649886 0 65.57037997 0 2871.21142758 0 44.98988765 0 1070.81402792 0 28224
0.16150000 0.16150500 8986.09885865 0 2.77413018 0 2362.20312603 0 377.53325292 0 354.17297391 0 28075
0.16250000 0.16249700 9056.68323603 0 2.81382557 0 2088.81621246 0 -60.01036294 0 531.07867435 0 28590
0.16350000 0.16349900 8720.49796533 0 174.61647739 0 1853.88247870 0 96.99795200 0 488.59828092 0 29163
0.16450000 0.16449100 8635.53939670 0 124.32455395 0 1967.63379460 0 22.90476355 0 467.42296771 0 28996
0.16550000 0.16550500 8517.52906118 0 56.71084276 0 1910.35885356 0 90.73042752 0 156.86058020 0 30777
0.16650000 0.16650700 8440.23450964 0 91.70889291 0 1790.68483849 0 5.71199970 0 -7.15587390 0 29211
0.16750000 0.16749900 8334.72395307 0 131.51719517 0 1800.74455412 0 -104.50957604 0 81.81121967 0 30922
0.16850000 0.16850800 8091.83783111 0 70.61310358 0 1716.05217422 0 15.99040046 0 -92.24371043 0 30867
0.16950000 0.16949900 8227.05061310 0 -6.77413709 0 1726.32262260 0 276.72425474 0 295.57152571 0 30852
0.17050000 0.17049200 8134.83840167 0 -62.77650746 0 1414.81526511 0 120.84080899 0 -378.77103050 0 31257
0.17150000 0.17149500 8238.08635406 0 69.16636785 0 1513.48255316 0 61.74391703 0 -135.40133234 0 32608
0.17250000 0.17250900 8126.14290327 0 68.53128591 0 1223.24811142 0 -31.68632965 0 -147.65821409 0 32361
0.17350000 0.17350400 8040.35249487 0 104.28963761 0 1769.43410513 0 -67.81723465 0 -51.77137820 0 32508
0.17450000 0.17449800 8053.17391854 0 22.24439369 0 1380.51019295 0 196.62473950 0 337.30326335 0 32791
0.17550000 0.17549800 7990.93012127 0 18.60847750 0 1568.87199072 0 54.94712063 0 8.94786750 0 33633
0.17650000 0.17650100 8032.68847778 0 51.84990388 0 1373.07909099 0 210.94125652 0 615.04901733 0 33984
0.17750000 0.17750300 7899.20592251 0 104.90819366 0 1815.56239324 0 -29.24127528 0 718.70401665 0 34069
