### header ###
fiducial parameters:
Omega_m = 0.31
Omega_nu = 0
Omega_de = 0.69
Omega_k = 0
H_0 = 100
w_de = -1
zeff = 0
beta = 0
fgrowth = 0
b_1 = 2
gamma = 0.55
Lx = 3500 Ly = 3500 Lz = 3500
nx = 700 ny = 700 nz = 700
xoffset = 1379.75464 yoffset = 22.6059522 zoffset = 368.141391
bins = 400 dk = 0.001
kx_ny = 0.628318531 ky_ny = 0.628318531 kz_ny = 0.628318531
############################
A(data) = 3.32775556 (not used)
A(ran) = 3.33179471 (used)
Ngal = 187035
weighted Ngal = 0
Nran = 9399747
weighted Nran = 0
SN(data) = 6646.66308
SN(ran) = 132.52341
SN(data+ran) = 6779.18649
############################
13 columns: k_central k_mean P_0(k) sigma^{lin}_{P_0(k)} P^img_1(k) sigma^{lin}_{P_1(k)} P_2(k) sigma^{lin}_{P_2(k)} P^img_3(k) sigma^{lin}_{P_3(k)} P_4(k) sigma^{lin}_{P_4(k)} N_modes
### header ###
0.00050000 0 0 0 0 0 0 0 0 0 0 0 0
0.00150000 0.00179520 42889.76951075 0 -50837.16668400 0 -93170.49084385 0 80031.08255520 0 8817.29084109 0 3
0.00250000 0.00253879 85406.98571600 0 -59288.43693460 0 -50898.83373903 0 -51059.32335887 0 9570.15019874 0 6
0.00350000 0.00331552 98982.38895669 0 -16457.22894374 0 -58308.08603635 0 -76814.19179234 0 -58009.06736662 0 7
0.00450000 0.00420575 122257.15484056 0 1278.13844512 0 -59788.31718106 0 -73489.27277120 0 24578.20334923 0 24
0.00550000 0.00557378 97571.81052881 0 -7869.35951152 0 -43333.19556474 0 -17136.89749273 0 12668.69789017 0 45
0.00650000 0.00659388 106181.01942396 0 3857.79557852 0 -83686.29742145 0 -5241.07857070 0 -56034.16883802 0 40
0.00750000 0.00754703 113272.17619281 0 -5151.02914268 0 -55585.41900950 0 -52918.20796739 0 -19525.60857947 0 57
0.00850000 0.00846663 83364.87453389 0 11121.69773983 0 -47806.38620592 0 -27004.29176968 0 -14377.74042792 0 75
0.00950000 0.00948925 94431.22720095 0 4804.68433558 0 -19435.76988419 0 -29277.43258422 0 -16746.26553621 0 112
0.01050000 0.01054430 79689.14095328 0 3363.00619146 0 -8445.20336588 0 -17181.15136855 0 -44411.59264401 0 105
0.01150000 0.01145670 78347.32794649 0 3139.09710747 0 12658.49398898 0 -14608.99188429 0 -36047.61011339 0 144
0.01250000 0.01249090 77974.55281706 0 4277.12046154 0 21534.55708270 0 -20757.39691254 0 -37381.77019429 0 169
0.01350000 0.01339930 72848.42341153 0 4830.47136848 0 29009.69108989 0 -5514.01074520 0 -12005.11157676 0 180
0.01450000 0.01448870 73147.10934534 0 -427.17079574 0 33987.53119222 0 421.29246136 0 -31181.12562842 0 267
0.01550000 0.01550050 82193.31140025 0 -1788.05622481 0 43706.85798992 0 -4367.60244624 0 -56943.97972369 0 238
0.01650000 0.01653350 78397.34924473 0 1137.91244210 0 33861.86793080 0 -635.70748076 0 -35500.03772005 0 315
0.01750000 0.01747870 74846.28071781 0 4481.65322446 0 35862.38712435 0 -1752.77512732 0 -45271.60405538 0 297
0.01850000 0.01844180 78908.54251207 0 -4068.09576385 0 36957.86464693 0 -5034.63812190 0 -9900.75659738 0 388
0.01950000 0.01947590 77376.73730155 0 2226.26941624 0 28464.00420004 0 11794.48974671 0 -44836.82913501 0 399
0.02050000 0.02045430 80215.75098439 0 1936.55626075 0 34307.06857630 0 7232.54734754 0 -20843.57551283 0 462
0.02150000 0.02154770 71700.70635133 0 30.97150201 0 20354.56463938 0 3934.33592866 0 -15981.52750663 0 571
0.02250000 0.02255340 78534.54735097 0 37.56555133 0 25974.25230910 0 9779.19707882 0 -3782.44198645 0 510
0.02350000 0.02348930 70665.23220424 0 2431.55638055 0 19693.52930126 0 -2304.65090507 0 -17.82921001 0 555
0.02450000 0.02439640 69156.71850731 0 5997.87530327 0 24599.16571146 0 -173.75690963 0 -7215.01216517 0 592
0.02550000 0.02547300 65216.23805555 0 2884.97560299 0 32557.09952181 0 -3344.27315981 0 4348.50340510 0 837
0.02650000 0.02652900 60859.72680626 0 2722.99976276 0 29966.08500274 0 -2734.73424913 0 -9590.24744761 0 723
0.02750000 0.02749970 59669.30863780 0 828.67767087 0 36559.24702861 0 3994.42803372 0 4671.17959791 0 826
0.02850000 0.02848090 57330.17520142 0 2927.95399116 0 33236.54624686 0 -1330.87708661 0 -4869.76747927 0 831
0.02950000 0.02946900 55718.29154894 0 -425.15996174 0 34901.44582076 0 7191.25482130 0 1737.01453646 0 996
0.03050000 0.03053250 57690.41727830 0 -835.04623615 0 32414.57764103 0 6148.37175466 0 3407.50407361 0 1041
0.03150000 0.03150510 55344.07456391 0 -0.11096743 0 21851.87622739 0 5221.52479048 0 -6710.82853429 0 1036
0.03250000 0.03246190 55914.27299901 0 1311.29003279 0 23658.07765041 0 1746.45314506 0 2669.48473748 0 1059
0.03350000 0.03345080 54235.84216484 0 2340.00964094 0 18881.98642056 0 1641.91861382 0 2231.32700204 0 1302
0.03450000 0.03451200 50382.53852109 0 771.95507143 0 21955.68983082 0 3184.87047727 0 3339.40412435 0 1339
0.03550000 0.03553350 48460.98864981 0 159.74318229 0 14927.97470852 0 2057.52794586 0 -3304.46685397 0 1365
0.03650000 0.03647120 51497.31472635 0 -1257.69736914 0 15925.18422614 0 -2445.91948060 0 -8059.60681277 0 1308
0.03750000 0.03744890 50619.66831184 0 495.33951043 0 10631.13409881 0 -1129.62731798 0 -15793.97536624 0 1579
0.03850000 0.03847530 50330.18807149 0 1677.12207293 0 18005.00547787 0 -6497.00134833 0 -11560.35457913 0 1662
0.03950000 0.03950240 48078.56417903 0 825.74294015 0 13463.49306348 0 -1966.03666224 0 -18120.90848598 0 1683
0.04050000 0.04050350 47600.31176663 0 1049.54000306 0 17407.41178630 0 4182.22418045 0 -19382.53213884 0 1822
0.04150000 0.04152450 46279.57203403 0 642.71157164 0 11490.81277427 0 3133.37404984 0 -12435.33910638 0 1887
0.04250000 0.04250150 45035.36156038 0 455.94579711 0 11801.47720079 0 4994.73199528 0 -13910.02465261 0 1920
0.04350000 0.04349210 43081.31448204 0 1952.51649316 0 10788.45163632 0 113.97535808 0 -6070.30081934 0 2005
0.04450000 0.04448520 39629.51216782 0 2235.78566322 0 12141.31147528 0 -1969.21983576 0 -7162.65062437 0 2151
0.04550000 0.04548030 38039.58908529 0 1837.94442868 0 13543.68241741 0 -1807.43254588 0 -4527.70387419 0 2274
0.04650000 0.04648670 37180.79770559 0 123.96298093 0 13127.20797201 0 906.76080650 0 -5732.67369304 0 2311
0.04750000 0.04749250 35967.19893551 0 -285.96876739 0 10173.44476554 0 -261.35407401 0 -11229.72599811 0 2568
0.04850000 0.04851840 37427.35501375 0 1167.72557950 0 16416.30242700 0 -2645.81612320 0 -7903.05456785 0 2493
0.04950000 0.04949480 35362.83961380 0 882.54650532 0 12950.52520462 0 -326.42945386 0 -13089.71972632 0 2644
0.05050000 0.05050630 35652.43076612 0 10.22784709 0 18747.67202552 0 -1127.24271064 0 -7103.11307916 0 2829
0.05150000 0.05149060 35234.62537708 0 -686.81904366 0 12342.50578792 0 3071.90663636 0 -9881.08081399 0 2784
0.05250000 0.05249300 36548.59947954 0 -1225.75472193 0 16148.89366858 0 4199.72608923 0 -3712.43435131 0 3055
0.05350000 0.05348950 37717.61163788 0 520.89473731 0 13831.27715428 0 558.65693556 0 -3983.79157585 0 3009
0.05450000 0.05448610 36964.74118904 0 959.42846433 0 12866.78666766 0 58.62518336 0 -1113.23452889 0 3336
0.05550000 0.05550870 36403.85935936 0 1123.31642692 0 17772.31216589 0 -39.67365513 0 4442.14638093 0 3349
0.05650000 0.05647670 34251.61259156 0 858.36215038 0 15333.80160486 0 419.84616928 0 2280.07281263 0 3324
0.05750000 0.05747970 34169.98138202 0 91.41042880 0 15308.84641172 0 2470.26465790 0 3805.50058490 0 3639
0.05850000 0.05849280 33515.37893814 0 264.27660440 0 16340.21681594 0 721.44021493 0 1809.05186063 0 3846
0.05950000 0.05951020 33970.11801302 0 213.78282118 0 14839.46695687 0 1193.08005572 0 5958.17990939 0 3787
0.06050000 0.06049470 33011.28403684 0 -32.51295656 0 14603.33537385 0 1149.26982777 0 3731.86612837 0 3930
0.06150000 0.06148310 34539.54006434 0 -445.53670877 0 13009.30854845 0 1501.48187806 0 4021.90092856 0 4083
0.06250000 0.06249100 33873.07003972 0 -54.74004798 0 11552.36891733 0 1654.99513502 0 899.55818320 0 4303
0.06350000 0.06350600 33402.80328911 0 1038.80594265 0 12473.16008797 0 -377.80498725 0 4464.94988186 0 4470
0.06450000 0.06451750 31903.82802156 0 920.17782745 0 13477.91161951 0 -1681.64728129 0 1903.18284913 0 4479
0.06550000 0.06550280 31441.87966867 0 959.64585179 0 13259.85868751 0 -550.92304393 0 2115.27980837 0 4636
0.06650000 0.06648880 30336.30915687 0 255.78185666 0 15431.95869785 0 -388.73647096 0 1242.70207087 0 4653
0.06750000 0.06749660 29983.05453407 0 878.58140242 0 14676.53727371 0 65.40279199 0 -339.17213004 0 5220
0.06850000 0.06852730 29722.07866988 0 232.93288183 0 16156.43568251 0 -50.98567781 0 2222.78678039 0 5029
0.06950000 0.06949320 28191.27166708 0 103.41498582 0 13297.01419729 0 1406.53014099 0 264.53613841 0 5040
0.07050000 0.07048030 29505.57850545 0 -123.90308847 0 13436.65236686 0 1669.91279492 0 284.27070514 0 5475
0.07150000 0.07148790 28447.14558068 0 538.52197662 0 12177.46877733 0 -99.91371676 0 -2122.18962407 0 5509
0.07250000 0.07249820 27931.40492259 0 781.27056775 0 13109.46205689 0 -456.46486512 0 -1091.04991675 0 5916
0.07350000 0.07351270 26957.70874250 0 435.60121454 0 11887.65580107 0 -577.40993136 0 -1557.48133145 0 5721
0.07450000 0.07449140 26481.23092161 0 297.96278777 0 12050.69639621 0 1586.83972978 0 -4079.69715586 0 6028
0.07550000 0.07549160 26456.16481650 0 -393.08422016 0 10726.67366932 0 1406.90724169 0 -2171.80054802 0 6183
0.07650000 0.07648840 26872.30652600 0 -264.35535190 0 9689.71330185 0 973.46104671 0 -4359.38386930 0 6330
0.07750000 0.07749960 26511.39897731 0 761.65245859 0 9013.87121581 0 -262.77374722 0 -2933.47740724 0 6583
0.07850000 0.07848650 25306.34042888 0 1006.06583838 0 10143.93109047 0 -1054.75286562 0 -2616.15826256 0 6549
0.07950000 0.07947320 24716.39966321 0 215.26349597 0 10385.53063359 0 361.59298467 0 -1317.95584216 0 6828
0.08050000 0.08048110 24340.51899863 0 -102.88460478 0 10330.50720553 0 1258.64012088 0 -1965.27136965 0 7147
0.08150000 0.08149960 24738.80388104 0 131.13454888 0 9364.05357705 0 1228.19478526 0 -726.28263152 0 7386
0.08250000 0.08250610 24452.98373569 0 100.25011277 0 9384.19519071 0 870.70887082 0 1935.60241781 0 7227
0.08350000 0.08350160 24368.91246282 0 439.19143500 0 8497.65363624 0 596.43687973 0 1522.75479381 0 7798
0.08450000 0.08449610 23433.59182417 0 335.13382523 0 9401.56400513 0 388.29504132 0 2248.78454604 0 7371
0.08550000 0.08548940 22775.10746136 0 400.08831103 0 8602.82036571 0 560.49474690 0 1809.62860288 0 8256
0.08650000 0.08650700 22592.76818353 0 412.53596137 0 8900.43045342 0 140.35466090 0 1878.46057114 0 8037
0.08750000 0.08749060 22347.31999507 0 3.56810461 0 7375.34650825 0 333.42134442 0 -237.26177600 0 8155
0.08850000 0.08849210 21570.93620869 0 520.56643788 0 6949.97692289 0 366.26570594 0 747.61987621 0 8718
0.08950000 0.08949900 20857.66133295 0 503.39837413 0 7970.85505479 0 -632.74613118 0 -497.68197122 0 8571
0.09050000 0.09049190 20174.55451291 0 472.35744123 0 6453.19112038 0 -171.39781204 0 -1623.07467021 0 8932
0.09150000 0.09150830 19949.84686274 0 511.59033219 0 8189.72873537 0 -577.61955499 0 -2533.30702135 0 9285
0.09250000 0.09250820 19034.15764269 0 325.80501947 0 7169.76008162 0 -444.28562175 0 -3242.24523909 0 9204
0.09350000 0.09350330 18894.63038508 0 309.97677231 0 8224.94328568 0 243.87767498 0 -2142.83034159 0 9349
0.09450000 0.09448040 18358.70374855 0 278.93029381 0 7522.28268542 0 -300.60692913 0 -3693.66804608 0 9564
0.09550000 0.09549270 18086.30395150 0 152.91655056 0 7825.70456033 0 720.47749904 0 -2016.73452349 0 10155
0.09650000 0.09649430 18392.64281121 0 -131.76341974 0 7941.88484837 0 552.92611410 0 -2945.60008551 0 9913
0.09750000 0.09749140 17848.06504105 0 296.59191583 0 7712.87381378 0 185.23186199 0 -1387.99675089 0 10476
0.09850000 0.09850240 17903.07737791 0 348.47542604 0 6884.05084823 0 557.62101777 0 -1445.48242467 0 10575
0.09950000 0.09950330 17123.25532048 0 184.51537067 0 7767.05431087 0 308.90203532 0 116.02501128 0 10882
0.10050000 0.10051200 16862.16854432 0 375.38377895 0 7112.80678529 0 716.28613571 0 -65.70535984 0 10875
0.10150000 0.10150300 16749.14924742 0 -15.30751547 0 7034.64712039 0 1192.89150537 0 757.40120280 0 11118
0.10250000 0.10250800 16373.37949481 0 204.18560846 0 5980.41775927 0 392.94336196 0 2021.30409663 0 11575
0.10350000 0.10349800 16581.33943759 0 190.90833659 0 6335.24733204 0 127.00307801 0 1551.88027700 0 11364
0.10450000 0.10450100 15915.20214888 0 304.21711373 0 6127.54248679 0 -51.80320994 0 1337.98654385 0 12093
0.10550000 0.10551000 15717.00245942 0 148.43903436 0 6158.30946712 0 -252.77281493 0 1749.00412036 0 12067
0.10650000 0.10649700 15453.36470796 0 112.10981875 0 6191.46105480 0 622.66534227 0 1952.67176992 0 12054
0.10750000 0.10749900 15830.02175632 0 -185.95500803 0 5683.15149866 0 934.07066075 0 1915.64935450 0 12807
0.10850000 0.10850100 15752.27246571 0 -342.65476588 0 4686.45217611 0 967.07140815 0 2437.87836281 0 12736
0.10950000 0.10950300 15939.49187020 0 42.50945237 0 4418.33358108 0 548.42197902 0 1936.93336145 0 12933
0.11050000 0.11050200 15683.17430873 0 430.03232456 0 4457.77387743 0 -441.70359110 0 1528.08965954 0 13428
0.11150000 0.11150900 15541.20698779 0 327.64061257 0 3956.93978804 0 -645.45442464 0 1776.75429512 0 13453
0.11250000 0.11250000 14967.23754572 0 196.81883544 0 5320.64681761 0 -484.79067301 0 335.79818792 0 13668
0.11350000 0.11349100 14790.66569030 0 224.84074453 0 4761.62830902 0 -471.55887505 0 -88.83915661 0 13791
0.11450000 0.11448600 14542.88835048 0 48.75923094 0 5094.02039036 0 300.24757435 0 -843.96577674 0 14205
0.11550000 0.11549300 14578.60200465 0 -66.93703726 0 4548.47768607 0 504.46423816 0 214.27416120 0 14776
0.11650000 0.11649800 14546.10479759 0 -49.32033459 0 4319.07845959 0 854.71092834 0 -586.59676980 0 14553
0.11750000 0.11747300 14879.72800180 0 48.54372898 0 3758.35190668 0 113.82229956 0 -348.65399431 0 14568
0.11850000 0.11849100 14322.50626712 0 251.05146116 0 3732.03249632 0 144.91647021 0 119.91913052 0 16015
0.11950000 0.11950300 14193.40473464 0 352.97734288 0 3644.80023232 0 -89.15703032 0 -132.47658371 0 15270
0.12050000 0.12050700 13746.65132157 0 218.33908488 0 4002.30278355 0 -576.97626556 0 -443.82311884 0 15999
0.12150000 0.12150000 13309.87998575 0 308.52271639 0 4306.46776866 0 -294.11857891 0 -1407.09579203 0 15670
0.12250000 0.12250700 13122.54966929 0 218.24702795 0 4589.16019648 0 39.76194106 0 -119.25920431 0 16887
0.12350000 0.12352200 12890.07818125 0 -69.03915182 0 4058.20241617 0 315.30831068 0 -1412.08683066 0 16407
0.12450000 0.12449800 13111.45847234 0 65.33014465 0 3833.78313712 0 442.90587685 0 -850.72253392 0 16306
0.12550000 0.12549900 12756.98381788 0 -66.17130102 0 3439.36908245 0 627.50443150 0 -962.96101056 0 17523
0.12650000 0.12650100 13120.33142990 0 -168.32887784 0 2994.13516335 0 870.88300261 0 9.68350223 0 17154
0.12750000 0.12750600 13099.92362752 0 68.19644268 0 2541.39250393 0 186.35650936 0 -365.86531373 0 18007
0.12850000 0.12850300 12927.01186709 0 178.98862723 0 2328.98499117 0 -99.88621060 0 -160.30328773 0 17496
0.12950000 0.12949900 12577.30642731 0 259.27447458 0 2559.65970530 0 -284.55353066 0 602.55034749 0 18405
0.13050000 0.13049000 12704.74428025 0 63.33228734 0 2826.69136303 0 -26.02893191 0 110.39478697 0 18100
0.13150000 0.13148800 12379.99403361 0 59.77511866 0 2959.08698100 0 368.21442924 0 527.25332052 0 19059
0.13250000 0.13249300 12463.84348253 0 212.32876526 0 3485.95210963 0 -373.68349846 0 362.99823932 0 18957
0.13350000 0.13349100 12205.52950561 0 133.25851309 0 2989.83177894 0 -201.42611866 0 843.62749523 0 19468
0.13450000 0.13450700 12330.08364734 0 86.23760546 0 3854.26857789 0 27.94083244 0 842.55497649 0 19953
0.13550000 0.13551000 12173.69777037 0 -48.80781038 0 3779.48063686 0 -148.86271808 0 338.01309995 0 19956
0.13650000 0.13649900 12109.25791610 0 270.51540269 0 3673.24915249 0 125.23292298 0 346.75961787 0 19723
0.13750000 0.13749600 11890.65042425 0 145.17711333 0 4392.16944748 0 -611.55861765 0 10.76953005 0 20946
0.13850000 0.13851100 11722.39696655 0 98.58798599 0 3867.22309592 0 48.69900574 0 -317.97019795 0 20955
0.13950000 0.13949800 11492.58736578 0 188.12444616 0 4755.05122923 0 -52.69738224 0 -620.51475918 0 20506
0.14050000 0.14048300 11434.46949377 0 56.46683643 0 3380.75210658 0 291.56538537 0 -676.69721732 0 21447
0.14150000 0.14148400 11409.18156473 0 23.76965509 0 4326.16573444 0 488.67481018 0 -706.96731204 0 21771
0.14250000 0.14249400 11254.90301518 0 95.55676187 0 2858.12381518 0 280.87790800 0 -394.84217488 0 22470
0.14350000 0.14350900 10967.95156773 0 195.51561980 0 3104.21529307 0 413.77373895 0 -265.81717166 0 22519
0.14450000 0.14449900 10699.97715827 0 183.13562577 0 2810.97513695 0 -99.99778804 0 -58.23610417 0 22218
0.14550000 0.14550500 10509.72985702 0 197.80373373 0 3072.22828107 0 148.83499009 0 102.35688563 0 23559
0.14650000 0.14650700 10212.17522529 0 171.58747151 0 3140.98261095 0 86.43292143 0 -10.43602885 0 23044
0.14750000 0.14750500 10171.01579341 0 -51.66556818 0 2808.62380320 0 215.37662618 0 713.57877454 0 23649
0.14850000 0.14849900 10247.98870023 0 -124.16373160 0 2563.85217775 0 710.80597530 0 224.76976087 0 23640
0.14950000 0.14949500 10359.10031126 0 28.23674557 0 2333.58783791 0 212.38533036 0 860.93419895 0 24457
0.15050000 0.15050000 10112.74264465 0 140.60421283 0 1904.49161037 0 69.15749489 0 439.60957312 0 24591
0.15150000 0.15149900 10181.05332665 0 140.27369516 0 1836.51366428 0 -82.82939155 0 1169.79963333 0 25020
0.15250000 0.15250500 9924.56939722 0 -49.30713606 0 1780.66948764 0 280.17139875 0 690.10314708 0 25297
0.15350000 0.15350100 9987.86685821 0 -18.07011080 0 1567.26376716 0 365.43497529 0 731.93803284 0 25452
0.15450000 0.15450400 9882.21211608 0 166.36684510 0 1422.73437973 0 -193.60017009 0 435.82414760 0 26061
0.15550000 0.15549900 9825.17009017 0 118.49945731 0 1684.44226292 0 -249.67504362 0 310.27401639 0 26128
0.15650000 0.15649500 9591.72257681 0 162.08342484 0 1758.85310325 0 -104.27965553 0 310.68439067 0 26331
0.15750000 0.15749700 9322.65013884 0 215.27569629 0 2254.40778289 0 -512.37226158 0 -213.23935253 0 27345
0.15850000 0.15849900 9398.62483794 0 146.92730421 0 2438.23328111 0 -101.82927739 0 283.75274624 0 26980
0.15950000 0.15949700 9059.16766414 0 80.35172906 0 2636.81007127 0 48.52698127 0 -296.22368809 0 27777
0.16050000 0.16050000 9192.41730428 0 -41.17828691 0 2310.47378347 0 46.39724963 0 186.63268017 0 28224
0.16150000 0.16150500 9088.99189274 0 91.29197482 0 2648.58892243 0 -18.52041340 0 -90.33380631 0 28075
0.16250000 0.16249700 9118.39465585 0 104.00825394 0 2602.12789842 0 -415.95870475 0 -784.55023469 0 28590
0.16350000 0.16349900 9135.00926887 0 92.83154387 0 2812.15080383 0 -128.77545129 0 -550.94189897 0 29163
0.16450000 0.16449100 9015.59035133 0 -38.32851477 0 2682.79417382 0 168.33775080 0 -1026.68326438 0 28996
0.16550000 0.16550500 8820.77347694 0 181.07931786 0 2857.97962962 0 -366.35887200 0 -974.58236672 0 30777
0.16650000 0.16650700 8825.35414128 0 252.22823716 0 2707.51645182 0 17.92936351 0 -1467.70918336 0 29211
0.16750000 0.16749900 8504.31944561 0 29.94035343 0 3001.18916461 0 257.07952670 0 -826.48383211 0 30922
0.16850000 0.16850800 8370.50415443 0 84.87139182 0 2869.10410016 0 315.21736287 0 -502.50886013 0 30867
0.16950000 0.16949900 8352.30350024 0 55.26066876 0 2461.28078837 0 542.13881595 0 -86.99812883 0 30852
0.17050000 0.17049200 8320.28321465 0 -29.41851261 0 2493.09034122 0 135.21167288 0 -304.43228295 0 31257
0.17150000 0.17149500 8267.74421470 0 73.32944862 0 2090.21370327 0 199.57388877 0 202.90346609 0 32608
0.17250000 0.17250900 8224.72146174 0 110.59054659 0 2434.69518929 0 -135.91374564 0 163.60957354 0 32361
0.17350000 0.17350400 8206.06606848 0 56.56410623 0 2218.09520408 0 -286.26379323 0 -14.57072725 0 32508
0.17450000 0.17449800 7978.37488633 0 125.38154502 0 2685.00132201 0 -162.84539007 0 -134.37539663 0 32791
0.17550000 0.17549800 8041.73889449 0 138.71538199 0 2664.33842210 0 -246.66822013 0 -407.68356270 0 33633
0.17650000 0.17650100 7827.60115501 0 43.96395194 0 2680.65357281 0 228.30341622 0 -426.81255008 0 33984
0.17750000 0.17750300 7817.51925699 0 72.09300199 0 2735.14462342 0 85.89333470 0 -390.00863125 0 34069
