### header ###
fiducial parameters:
Omega_m = 0.31
Omega_nu = 0
Omega_de = 0.69
Omega_k = 0
H_0 = 100
w_de = -1
zeff = 0
beta = 0
fgrowth = 0
b_1 = 2
gamma = 0.55
Lx = 3500 Ly = 3500 Lz = 3500
nx = 700 ny = 700 nz = 700
xoffset = 1379.75464 yoffset = 22.6059522 zoffset = 368.141391
bins = 400 dk = 0.001
kx_ny = 0.628318531 ky_ny = 0.628318531 kz_ny = 0.628318531
############################
A(data) = 3.31603019 (not used)
A(ran) = 3.31470136 (used)
Ngal = 186253
weighted Ngal = 0
Nran = 9399747
weighted Nran = 0
SN(data) = 6697.10431
SN(ran) = 131.843516
SN(data+ran) = 6828.94783
############################
13 columns: k_central k_mean P_0(k) sigma^{lin}_{P_0(k)} P^img_1(k) sigma^{lin}_{P_1(k)} P_2(k) sigma^{lin}_{P_2(k)} P^img_3(k) sigma^{lin}_{P_3(k)} P_4(k) sigma^{lin}_{P_4(k)} N_modes
### header ###
0.00050000 0 0 0 0 0 0 0 0 0 0 0 0
0.00150000 0.00179520 32255.30805285 0 -35853.95781467 0 -49561.12447510 0 50327.63709619 0 -30573.66077156 0 3
0.00250000 0.00253879 47512.91313467 0 -28282.66312994 0 -5979.79665224 0 -68596.39123749 0 -12642.07901749 0 6
0.00350000 0.00331552 57245.77119265 0 -4890.50801756 0 -51182.32473302 0 2683.85892873 0 37615.35080202 0 7
0.00450000 0.00420575 69848.25463704 0 -5550.81133668 0 -33151.80950218 0 -36820.44471674 0 -1476.37140817 0 24
0.00550000 0.00557378 71996.50857394 0 -7809.65559835 0 -31408.93881373 0 -19642.50979530 0 -1740.99627616 0 45
0.00650000 0.00659388 114625.30222049 0 -21690.05566391 0 -88802.88839761 0 25300.12935859 0 353.00507087 0 40
0.00750000 0.00754703 94657.59853067 0 -10086.72269661 0 -36914.71989080 0 -27774.24266183 0 -7111.07655857 0 57
0.00850000 0.00846663 117198.45991248 0 6833.43062536 0 -56349.38065529 0 -32630.19050970 0 -34176.74701216 0 75
0.00950000 0.00948925 105860.04018428 0 4260.74985484 0 789.27952107 0 -16723.08493459 0 2924.68208806 0 112
0.01050000 0.01054430 88321.97409793 0 15058.07444872 0 -5115.16021175 0 -22168.41898829 0 16141.35165466 0 105
0.01150000 0.01145670 82637.07019015 0 10970.60236380 0 33830.47984344 0 -1461.48702187 0 14997.73833733 0 144
0.01250000 0.01249090 72866.16932665 0 8987.61835263 0 45597.46342172 0 -2424.12527859 0 26006.86042813 0 169
0.01350000 0.01339930 63939.08672696 0 6146.00932971 0 49994.01389199 0 30817.99984033 0 15599.99033161 0 180
0.01450000 0.01448870 66951.23399416 0 177.84401571 0 69276.17069845 0 16737.50349062 0 65492.74159547 0 267
0.01550000 0.01550050 59553.73836560 0 -750.98161801 0 29134.57796753 0 13009.30854845 0 10707.30843945 0 238
0.01650000 0.01653350 77467.90694046 0 -4772.65295879 0 63865.10844332 0 15646.46244683 0 71780.00840951 0 315
0.01750000 0.01747870 75235.58173070 0 -2417.40401324 0 28818.36794254 0 7596.81552891 0 18988.90555914 0 297
0.01850000 0.01844180 81091.40098345 0 2902.75479170 0 60139.24265250 0 10167.58861356 0 70089.70999460 0 388
0.01950000 0.01947590 79643.66704580 0 438.56810973 0 40622.17429468 0 3718.66760400 0 37009.77144865 0 399
0.02050000 0.02045430 79913.51586755 0 -825.03421267 0 51702.94551777 0 11233.94065295 0 33982.54015360 0 462
0.02150000 0.02154770 79860.49994613 0 3167.03583258 0 40056.85598623 0 7059.18084804 0 36721.06759208 0 571
0.02250000 0.02255340 74675.80902072 0 1906.54348181 0 43895.07560213 0 -26.91145845 0 30160.40277327 0 510
0.02350000 0.02348930 71729.21072748 0 5258.30319956 0 49440.56316427 0 3922.56816869 0 29072.68908856 0 555
0.02450000 0.02439640 67574.33743871 0 3153.62657547 0 41973.52573085 0 -105.01555645 0 10521.15378987 0 592
0.02550000 0.02547300 62296.25863499 0 2896.85427492 0 44265.07793233 0 7218.65007777 0 23421.83515541 0 837
0.02650000 0.02652900 58284.46178685 0 1779.58255034 0 40838.67445911 0 7104.78784990 0 9674.66254759 0 723
0.02750000 0.02749970 56435.11560770 0 1705.14952762 0 33358.88214920 0 8734.48396468 0 25112.90995410 0 826
0.02850000 0.02848090 51824.06138845 0 2942.93819824 0 30098.29207036 0 12676.23990409 0 16362.95376968 0 831
0.02950000 0.02946900 50877.31681695 0 306.55291981 0 19727.24653999 0 7586.96654602 0 27168.88513240 0 996
0.03050000 0.03053250 49726.05057372 0 78.61384941 0 19192.53993511 0 4067.37483605 0 26996.97157970 0 1041
0.03150000 0.03150510 47243.06431292 0 2397.69495627 0 19853.24253732 0 593.55427764 0 17521.31837895 0 1036
0.03250000 0.03246190 44955.39403038 0 2729.82084888 0 16134.91876043 0 -4884.55204480 0 18917.14551489 0 1059
0.03350000 0.03345080 42672.16022662 0 371.75252107 0 20388.39279007 0 333.76849888 0 12252.11253279 0 1302
0.03450000 0.03451200 42380.46174688 0 -209.54043834 0 17529.63677667 0 3992.48707425 0 9999.24642628 0 1339
0.03550000 0.03553350 44041.70122579 0 -540.48622760 0 15639.14225684 0 4102.05700891 0 7728.85622858 0 1365
0.03650000 0.03647120 42791.39059382 0 -1851.94151923 0 8841.13691453 0 5047.91428465 0 4884.04184974 0 1308
0.03750000 0.03744890 45979.77698052 0 -1813.15560350 0 9475.73083912 0 3502.71090822 0 9689.32510995 0 1579
0.03850000 0.03847530 48185.03966974 0 -2050.31866785 0 3013.99949709 0 740.80433569 0 1678.58611093 0 1662
0.03950000 0.03950240 49707.30645088 0 89.35822463 0 5629.55883501 0 -3998.64268856 0 -3941.37883872 0 1683
0.04050000 0.04050350 48871.91749674 0 2325.73527047 0 3664.86420760 0 -7989.53263046 0 -7898.51826830 0 1822
0.04150000 0.04152450 48004.69680736 0 837.16798213 0 8336.44308860 0 -3624.66970986 0 -8812.69908556 0 1887
0.04250000 0.04250150 46047.43328191 0 -405.01834808 0 10094.86363517 0 1039.15642447 0 -15065.94919856 0 1920
0.04350000 0.04349210 46819.04785359 0 119.42557226 0 9527.71527922 0 1089.93414234 0 -12223.16450876 0 2005
0.04450000 0.04448520 47230.30943643 0 966.30722468 0 10676.16435842 0 -173.67483477 0 -18565.11092375 0 2151
0.04550000 0.04548030 43327.31723035 0 2124.67405219 0 8534.80914602 0 -1564.44660314 0 -9240.96347332 0 2274
0.04650000 0.04648670 42815.45849119 0 2458.88508983 0 14408.35213150 0 -1650.79157138 0 -12736.24327958 0 2311
0.04750000 0.04749250 38810.09453728 0 2098.58755697 0 14099.46229649 0 -1574.25122124 0 -9753.02185403 0 2568
0.04850000 0.04851840 36806.24798465 0 516.07561224 0 14404.13747666 0 2280.43882213 0 -8001.53330555 0 2493
0.04950000 0.04949480 35850.29771968 0 874.74939387 0 12720.05013204 0 2778.10082920 0 -5681.98692298 0 2644
0.05050000 0.05050630 34449.47954512 0 628.15326652 0 14642.70912301 0 186.78573869 0 -2124.38568107 0 2829
0.05150000 0.05149060 35100.86554189 0 700.50003510 0 11393.65388900 0 1525.68286980 0 -2660.68941830 0 2784
0.05250000 0.05249300 32965.81012935 0 313.09118041 0 14536.45545625 0 1921.84933360 0 494.74280403 0 3055
0.05350000 0.05348950 32549.89024380 0 1030.62174842 0 13486.45184116 0 -1950.06533863 0 -2167.75226114 0 3009
0.05450000 0.05448610 31915.91742624 0 852.55258142 0 14866.41856546 0 -1503.52265830 0 -1269.82004741 0 3336
0.05550000 0.05550870 32524.04775491 0 233.56286181 0 17274.76107080 0 628.83870249 0 -67.32145815 0 3349
0.05650000 0.05647670 30066.90398300 0 736.35898395 0 15070.27476537 0 -1373.52273887 0 -3073.41503914 0 3324
0.05750000 0.05747970 31855.80313878 0 -8.37461899 0 19657.59382315 0 857.54140180 0 -634.03714650 0 3639
0.05850000 0.05849280 30594.06857395 0 -234.12296726 0 16618.05129949 0 2234.44362839 0 -3191.65828981 0 3846
0.05950000 0.05951020 32582.05471495 0 -585.82482249 0 15150.02047142 0 3591.73994612 0 1256.44406389 0 3787
0.06050000 0.06049470 31716.60861708 0 -293.50523572 0 13081.40132861 0 171.61852686 0 1383.84864323 0 3930
0.06150000 0.06148310 31638.74841450 0 775.23917485 0 14190.18828753 0 1382.15169010 0 3191.91338734 0 4083
0.06250000 0.06249100 31371.33965608 0 822.19708449 0 13878.85838919 0 315.28723741 0 3869.70752404 0 4303
0.06350000 0.06350600 30597.61775697 0 -327.35335057 0 13190.42779461 0 2433.28660727 0 4956.60046018 0 4470
0.06450000 0.06451750 30983.92414668 0 54.67039526 0 13459.72205652 0 2147.47755311 0 5677.37298505 0 4479
0.06550000 0.06550280 29468.42299567 0 1099.10212574 0 10768.49857301 0 -902.53173311 0 6617.27428804 0 4636
0.06650000 0.06648880 28926.72893672 0 843.50660119 0 14049.99555810 0 6.64933894 0 6706.39205552 0 4653
0.06750000 0.06749660 28371.94726537 0 329.83445133 0 11786.17134900 0 447.08060338 0 5309.94381255 0 5220
0.06850000 0.06852730 27678.85836808 0 680.72554006 0 13586.82717354 0 -149.72117672 0 4636.45306027 0 5029
0.06950000 0.06949320 26403.03798312 0 483.89783165 0 11394.98483263 0 10.45938691 0 4283.47571739 0 5040
0.07050000 0.07048030 27132.39509444 0 -496.22902442 0 11630.67276778 0 1645.09069615 0 2994.42353448 0 5475
0.07150000 0.07148790 27040.78180764 0 -243.76343565 0 10260.72139433 0 1501.99207312 0 2273.68428319 0 5509
0.07250000 0.07249820 26660.35375232 0 408.18044833 0 9104.10919418 0 443.02344354 0 2306.21476384 0 5916
0.07350000 0.07351270 26493.65306219 0 161.63755872 0 8331.35222920 0 1345.67274333 0 -365.88195053 0 5721
0.07450000 0.07449140 26618.31811589 0 -119.65848740 0 8478.57677749 0 -612.78863139 0 -263.78748262 0 6028
0.07550000 0.07549160 25578.07475411 0 978.71827406 0 9126.49122962 0 -1590.47764238 0 -1241.58185997 0 6183
0.07650000 0.07648840 24737.25111347 0 756.44070514 0 9615.12500237 0 -1325.87495678 0 -1172.73880052 0 6330
0.07750000 0.07749960 24592.73281723 0 -411.22720013 0 9449.64434390 0 843.69736977 0 -1961.44490670 0 6583
0.07850000 0.07848650 25397.84280370 0 -406.96263490 0 9728.49921757 0 1343.65414549 0 -4640.35716159 0 6549
0.07950000 0.07947320 25661.14781926 0 171.96679044 0 8077.15308635 0 -718.80716478 0 -1938.17557550 0 6828
0.08050000 0.08048110 24626.00640808 0 855.79675652 0 9218.96962977 0 -678.34980567 0 -1438.01804912 0 7147
0.08150000 0.08149960 24281.62474284 0 464.74555276 0 10219.66178323 0 -200.35914551 0 -3008.78663452 0 7386
0.08250000 0.08250610 24154.85236172 0 178.03811165 0 10291.45510107 0 429.59865875 0 -1245.45268771 0 7227
0.08350000 0.08350160 23165.51759394 0 521.98943845 0 9831.05951575 0 509.73588406 0 -3136.88995927 0 7798
0.08450000 0.08449610 23302.49387625 0 207.66935342 0 10395.64580521 0 -64.62496635 0 213.96249857 0 7371
0.08550000 0.08548940 22429.06211657 0 194.16471201 0 8529.88465458 0 1138.82192025 0 -2950.75749209 0 8256
0.08650000 0.08650700 22270.67982415 0 134.31550416 0 8118.86707807 0 2002.99253047 0 126.53502950 0 8037
0.08750000 0.08749060 21783.66536616 0 -138.01663658 0 6670.72276613 0 2061.43204719 0 81.13299297 0 8155
0.08850000 0.08849210 21989.73980545 0 69.86943882 0 4562.82969492 0 1533.73507879 0 457.90561161 0 8718
0.08950000 0.08949900 20955.04204215 0 753.13663757 0 4464.93879066 0 -370.59349099 0 368.40741607 0 8571
0.09050000 0.09049190 20020.38687533 0 988.01491534 0 4362.76668437 0 -886.33525820 0 772.44086586 0 8932
0.09150000 0.09150830 19280.60403888 0 235.90975909 0 5123.00168799 0 -122.23386333 0 394.79781009 0 9285
0.09250000 0.09250820 18753.55035990 0 214.84535784 0 4845.14502204 0 -30.38045212 0 -905.69050600 0 9204
0.09350000 0.09350330 18402.07032861 0 684.44996399 0 6125.43515937 0 -914.96496488 0 -489.02751024 0 9349
0.09450000 0.09448040 17919.27052546 0 335.27357431 0 5335.74193665 0 63.81275799 0 -1262.68840777 0 9564
0.09550000 0.09549270 17132.90466183 0 312.81611873 0 7494.08886278 0 -220.22347924 0 214.53147697 0 10155
0.09650000 0.09649430 17434.14157094 0 334.76448837 0 6643.48278643 0 -76.93819137 0 -485.12119068 0 9913
0.09750000 0.09749140 16987.27724590 0 -166.42784669 0 7653.81319003 0 679.84046254 0 443.10551840 0 10476
0.09850000 0.09850240 17447.00735940 0 -305.02122551 0 6732.41200356 0 563.63244651 0 879.48089849 0 10575
0.09950000 0.09950330 17801.70383781 0 -80.79903703 0 6291.55910726 0 536.49450582 0 613.21342423 0 10882
0.10050000 0.10051200 17838.85934758 0 155.50190857 0 6153.28515490 0 135.38247731 0 494.45665115 0 10875
0.10150000 0.10150300 17243.48389540 0 137.58629814 0 5766.35765817 0 213.89706051 0 472.02581444 0 11118
0.10250000 0.10250800 17207.99206517 0 282.31532712 0 6024.12816644 0 46.31550751 0 1457.18363745 0 11575
0.10350000 0.10349800 16446.35957073 0 360.24540424 0 5716.19217437 0 734.96371137 0 616.54078332 0 11364
0.10450000 0.10450100 16729.96147670 0 24.31811478 0 4658.01434713 0 564.23358939 0 1097.47393803 0 12093
0.10550000 0.10551000 16305.61228146 0 50.10248580 0 4800.91332861 0 231.85814484 0 400.65950768 0 12067
0.10650000 0.10649700 16084.12107840 0 236.89798474 0 4777.23362313 0 -28.22465617 0 1167.20429324 0 12054
0.10750000 0.10749900 15846.99128765 0 150.25799066 0 4074.96121476 0 -164.61332687 0 415.53613014 0 12807
0.10850000 0.10850100 15932.06076824 0 -80.57710218 0 4529.15682099 0 363.90328099 0 748.86098115 0 12736
0.10950000 0.10950300 15963.33794364 0 186.34430905 0 4603.37911097 0 93.97260621 0 41.18494163 0 12933
0.11050000 0.11050200 15697.48195279 0 203.00661422 0 4405.44561023 0 -97.40034062 0 118.28761545 0 13428
0.11150000 0.11150900 15488.63471425 0 138.47137566 0 4896.39744314 0 41.05029450 0 836.71213394 0 13453
0.11250000 0.11250000 15490.85295364 0 266.95845583 0 4691.96450099 0 -279.68116784 0 728.99332006 0 13668
0.11350000 0.11349100 15212.68573418 0 24.62356634 0 5366.67528494 0 173.40642781 0 816.91767474 0 13791
0.11450000 0.11448600 15068.50017386 0 110.11284874 0 4854.40617150 0 306.39542481 0 518.86726651 0 14205
0.11550000 0.11549300 14897.58482888 0 151.50242295 0 4846.55360406 0 206.13100440 0 972.52384057 0 14776
0.11650000 0.11649800 14788.89109879 0 30.87855778 0 4423.22479894 0 56.13920247 0 690.70983555 0 14553
0.11750000 0.11747300 14794.10396136 0 53.15689053 0 4322.78291937 0 781.70312443 0 1100.61496500 0 14568
0.11850000 0.11849100 14558.74876211 0 -28.45291300 0 3759.31684081 0 606.31137237 0 444.21463809 0 16015
0.11950000 0.11950300 14693.50680504 0 63.42301333 0 3353.48994448 0 235.85541222 0 822.86366543 0 15270
0.12050000 0.12050700 14322.61717909 0 94.66602784 0 2984.57455159 0 502.06743049 0 552.21516838 0 15999
0.12150000 0.12150000 14365.98375915 0 175.25754858 0 2820.46920154 0 -71.20858994 0 1183.82999747 0 15670
0.12250000 0.12250700 13972.02444355 0 196.45060771 0 3035.83806388 0 16.12615671 0 822.53425688 0 16887
0.12350000 0.12352200 13783.80683134 0 498.41509934 0 3296.18172985 0 -777.49401519 0 353.14371083 0 16407
0.12450000 0.12449800 13058.88619881 0 441.61818889 0 4010.23298937 0 -599.17973273 0 1326.87316451 0 16306
0.12550000 0.12549900 12820.31455245 0 82.50286671 0 3983.15937762 0 612.66551910 0 1276.37494480 0 17523
0.12650000 0.12650100 12857.58097420 0 -53.05474060 0 4135.04222863 0 623.75671605 0 1565.54463164 0 17154
0.12750000 0.12750600 13009.97402027 0 -104.33866070 0 3282.56173999 0 694.06048615 0 1726.22280182 0 18007
0.12850000 0.12850300 12808.55788369 0 84.54797251 0 3827.45006367 0 -47.26591218 0 2194.71496092 0 17496
0.12950000 0.12949900 12927.89916285 0 172.62671666 0 3230.32220237 0 -239.84158841 0 1454.33319984 0 18405
0.13050000 0.13049000 12568.65529370 0 51.40370502 0 3710.08301756 0 -232.41825029 0 1171.43003928 0 18100
0.13150000 0.13148800 12482.80942932 0 165.91321515 0 3346.73540554 0 -220.93109761 0 945.43470114 0 19059
0.13250000 0.13249300 12645.29546461 0 -46.73153831 0 3594.96748443 0 372.77180207 0 1009.44199873 0 18957
0.13350000 0.13349100 12315.99782721 0 45.95360176 0 3019.64491634 0 201.85756622 0 -1.94268969 0 19468
0.13450000 0.13450700 12545.14195617 0 81.07310051 0 2560.64682183 0 -11.67914130 0 -382.27473962 0 19953
0.13550000 0.13551000 12013.87362235 0 237.60782134 0 2873.91767963 0 -88.53814153 0 -467.52057024 0 19956
0.13650000 0.13649900 11733.04451562 0 335.68505772 0 2876.49083732 0 -479.65988530 0 -352.24199652 0 19723
0.13750000 0.13749600 11585.86433211 0 214.44940211 0 2937.30387019 0 -64.23045247 0 -1232.10997778 0 20946
0.13850000 0.13851100 11341.96891122 0 48.95609968 0 2935.46273150 0 345.54513180 0 -874.30352775 0 20955
0.13950000 0.13949800 11072.69683171 0 37.10925949 0 2425.81114053 0 161.07301680 0 -1151.65443512 0 20506
0.14050000 0.14048300 11075.23671581 0 153.98019635 0 2696.83562916 0 138.31055330 0 -478.56407504 0 21447
0.14150000 0.14148400 11031.55958223 0 36.45354792 0 2383.47604178 0 196.08681645 0 -928.09694207 0 21771
0.14250000 0.14249400 11091.41877216 0 -51.84934932 0 2361.06073275 0 231.26920229 0 -297.13094800 0 22470
0.14350000 0.14350900 10937.27331698 0 153.38570820 0 2339.58817546 0 -150.93344455 0 -408.12166498 0 22519
0.14450000 0.14449900 10659.00627674 0 261.81879516 0 2653.95706176 0 -78.99405564 0 -433.94640796 0 22218
0.14550000 0.14550500 10460.38512179 0 248.72674628 0 2688.26213392 0 -94.31798608 0 -139.06808205 0 23559
0.14650000 0.14650700 10095.99493726 0 145.44662942 0 3172.73670781 0 71.18418931 0 386.92084202 0 23044
0.14750000 0.14750500 10166.61258822 0 70.60500700 0 2967.30555794 0 175.00134193 0 479.32160379 0 23649
0.14850000 0.14849900 10105.68864339 0 54.90697049 0 3017.88141602 0 -5.23130723 0 145.33239009 0 23640
0.14950000 0.14949500 10030.32396013 0 74.58164476 0 3124.63418665 0 -1.66618615 0 619.63966374 0 24457
0.15050000 0.15050000 9912.93473163 0 3.63924354 0 2834.51065688 0 81.20741490 0 433.04580277 0 24591
0.15150000 0.15149900 10054.44731349 0 -3.09149369 0 2861.86154855 0 273.06083239 0 656.32601589 0 25020
0.15250000 0.15250500 10120.79485363 0 -27.68052205 0 2752.16961073 0 113.13908183 0 392.58622542 0 25297
0.15350000 0.15350100 9987.16811280 0 29.61893054 0 2560.83537218 0 429.24928605 0 467.18450697 0 25452
0.15450000 0.15450400 9967.37032625 0 11.96074679 0 2123.04364624 0 369.51653577 0 1066.21229031 0 26061
0.15550000 0.15549900 9936.53679873 0 -14.96690481 0 1762.67956619 0 394.34418013 0 1078.76308877 0 26128
0.15650000 0.15649500 10051.43050792 0 108.63328307 0 1669.33605268 0 169.06533332 0 1286.98922028 0 26331
0.15750000 0.15749700 9795.98915100 0 137.12601347 0 1741.10718813 0 75.12300608 0 1766.00692528 0 27345
0.15850000 0.15849900 9612.48529749 0 83.45937153 0 1584.84331433 0 129.18360733 0 1777.33103736 0 26980
0.15950000 0.15949700 9537.57535331 0 99.03329755 0 1845.54189859 0 -238.50288094 0 1377.57102576 0 27777
0.16050000 0.16050000 9408.89528631 0 224.94500179 0 1807.63218742 0 -180.36060829 0 1267.00288338 0 28224
0.16150000 0.16150500 9162.30470456 0 135.31482101 0 2148.17629852 0 25.78226369 0 1449.12033727 0 28075
0.16250000 0.16249700 9080.93968375 0 99.50866625 0 2385.10644773 0 -99.68013616 0 1589.27979310 0 28590
0.16350000 0.16349900 9010.44403595 0 -17.77630500 0 2026.21749688 0 327.48755405 0 1634.34332631 0 29163
0.16450000 0.16449100 8890.06018427 0 115.95070026 0 2192.58545110 0 261.57478883 0 1274.13452302 0 28996
0.16550000 0.16550500 8823.45754660 0 220.93775233 0 1963.27495420 0 -439.59404544 0 1204.68144773 0 30777
0.16650000 0.16650700 8508.03499659 0 198.82079649 0 2644.65154752 0 -324.55393246 0 1197.58308168 0 29211
0.16750000 0.16749900 8221.26100829 0 285.68483275 0 2700.86173365 0 -330.01191048 0 858.58619256 0 30922
0.16850000 0.16850800 8063.89910599 0 63.40892751 0 2536.47910368 0 -171.88693382 0 443.40276248 0 30867
0.16950000 0.16949900 7990.77484451 0 20.21270823 0 3000.51260160 0 94.87054951 0 217.15676329 0 30852
0.17050000 0.17049200 8079.62642327 0 -9.13252484 0 2342.58279863 0 193.99723494 0 -263.98823328 0 31257
0.17150000 0.17149500 7970.81069001 0 -7.29032139 0 2421.58539449 0 76.95571547 0 -367.58334014 0 32608
0.17250000 0.17250900 8052.71917947 0 93.82753335 0 2140.85610854 0 -168.38322471 0 -540.24998511 0 32361
0.17350000 0.17350400 7869.60351785 0 76.43709110 0 2156.80524975 0 -3.03507277 0 -1024.19772715 0 32508
0.17450000 0.17449800 7729.25551167 0 101.58305282 0 2158.36910852 0 -38.18288735 0 -773.57216795 0 32791
0.17550000 0.17549800 7668.35374923 0 130.09641284 0 1891.74782508 0 173.58388696 0 -984.82286886 0 33633
0.17650000 0.17650100 7572.80308752 0 62.37800076 0 2127.75740494 0 -87.42702542 0 -755.82514371 0 33984
0.17750000 0.17750300 7426.78747970 0 79.22663804 0 2070.52682869 0 237.89730158 0 -785.39871126 0 34069
0.17850000 0.17849800 7426.73202371 0 -8.06841322 0 1716.64000766 0 303.41411107 0 -525.34674377 0 34536
