### header ###
fiducial parameters:
Omega_m = 0.31
Omega_nu = 0
Omega_de = 0.69
Omega_k = 0
H_0 = 100
w_de = -1
zeff = 0
beta = 0
fgrowth = 0
b_1 = 2
gamma = 0.55
Lx = 3500 Ly = 3500 Lz = 3500
nx = 700 ny = 700 nz = 700
xoffset = 1379.75464 yoffset = 22.6059522 zoffset = 368.141391
bins = 400 dk = 0.001
kx_ny = 0.628318531 ky_ny = 0.628318531 kz_ny = 0.628318531
############################
A(data) = 3.29738613 (not used)
A(ran) = 3.30255609 (used)
Ngal = 185941
weighted Ngal = 0
Nran = 9399747
weighted Nran = 0
SN(data) = 6652.10802
SN(ran) = 131.360433
SN(data+ran) = 6783.46845
############################
13 columns: k_central k_mean P_0(k) sigma^{lin}_{P_0(k)} P^img_1(k) sigma^{lin}_{P_1(k)} P_2(k) sigma^{lin}_{P_2(k)} P^img_3(k) sigma^{lin}_{P_3(k)} P_4(k) sigma^{lin}_{P_4(k)} N_modes
### header ###
0.00050000 0 0 0 0 0 0 0 0 0 0 0 0
0.00150000 0.00179520 43158.84194871 0 -52512.71380696 0 -61663.28402516 0 53213.78836606 0 51493.43280742 0 3
0.00250000 0.00253879 60002.82093004 0 -37792.47721728 0 -22810.48837962 0 -77740.97220933 0 -6433.79261692 0 6
0.00350000 0.00331552 84099.66633171 0 -12817.43084124 0 -66076.69311479 0 -14228.78565291 0 -22106.97375720 0 7
0.00450000 0.00420575 92267.33467636 0 -1761.09352503 0 -40239.63891194 0 -55509.99887025 0 -9915.97371959 0 24
0.00550000 0.00557378 82579.50687799 0 5143.30966960 0 -27428.19731705 0 -30598.17231682 0 10799.66483644 0 45
0.00650000 0.00659388 78218.33732598 0 -3699.95675475 0 -38635.74092126 0 9969.79929838 0 -7852.26797702 0 40
0.00750000 0.00754703 86595.40746900 0 -16064.04601193 0 -36540.61381774 0 1848.08178269 0 -2431.06836788 0 57
0.00850000 0.00846663 91955.00657029 0 -730.82447667 0 -47673.29184255 0 -14069.51606473 0 -32905.14128205 0 75
0.00950000 0.00948925 92738.15598681 0 2408.51996449 0 -37705.41132124 0 -20220.36115630 0 -2855.33992474 0 112
0.01050000 0.01054430 80958.41753204 0 7353.05320238 0 -34320.48892461 0 -17255.79512401 0 12791.25561645 0 105
0.01150000 0.01145670 81451.97579623 0 3167.10237976 0 -27554.41513832 0 1143.11421347 0 2243.43858911 0 144
0.01250000 0.01249090 72892.56637538 0 -6257.75313896 0 -25178.79166398 0 13963.04057403 0 17163.62727737 0 169
0.01350000 0.01339930 80209.09626622 0 -4128.67588158 0 -42938.45986535 0 13222.48135379 0 -1663.49099189 0 180
0.01450000 0.01448870 87811.00265453 0 -2998.89328685 0 -41475.30916394 0 -634.52737741 0 20046.34027619 0 267
0.01550000 0.01550050 84813.82850321 0 1123.74898360 0 -43991.45810361 0 -23757.67659900 0 697.51983048 0 238
0.01650000 0.01653350 79844.52862253 0 7507.58684946 0 -24766.53187341 0 -17160.41083026 0 21342.67937550 0 315
0.01750000 0.01747870 70107.78864562 0 4978.78285407 0 -13828.28253110 0 -2191.63160817 0 11873.45906898 0 297
0.01850000 0.01844180 69246.11355472 0 3675.38975351 0 -8580.77106617 0 -3984.77869238 0 -1908.29589093 0 388
0.01950000 0.01947590 66073.69849162 0 1192.45894869 0 4513.95078997 0 -3651.26640014 0 7909.13254378 0 399
0.02050000 0.02045430 57593.48021697 0 4257.42249576 0 3595.20039957 0 -5979.58591950 0 410.73918746 0 462
0.02150000 0.02154770 59979.86215235 0 1470.81471850 0 6338.08667846 0 -1425.82882368 0 9383.69608685 0 571
0.02250000 0.02255340 55714.63145395 0 745.81644759 0 9274.90253598 0 78.51990697 0 -18384.10258956 0 510
0.02350000 0.02348930 58074.83816453 0 1010.96038359 0 13309.87998575 0 -3550.44741988 0 -1063.38736245 0 555
0.02450000 0.02439640 56517.52320103 0 -1149.56929009 0 16625.59331342 0 -2376.91005319 0 -8307.69470611 0 592
0.02550000 0.02547300 58302.42952590 0 383.47813448 0 13782.58679968 0 -1315.87069713 0 -3794.57575591 0 837
0.02650000 0.02652900 57112.56591730 0 1529.43169437 0 12444.54479984 0 -5013.18774701 0 -22046.52673383 0 723
0.02750000 0.02749970 53853.63951800 0 1505.92944804 0 19130.98379205 0 -6754.51675907 0 -8307.22887584 0 826
0.02850000 0.02848090 55987.80763478 0 545.52163102 0 22614.06328167 0 2102.50274949 0 -19083.73529305 0 831
0.02950000 0.02946900 57363.78152818 0 827.23914262 0 26729.11917340 0 4027.12488232 0 -7245.57950396 0 996
0.03050000 0.03053250 55370.69343658 0 -664.55790226 0 21815.71892534 0 1386.15561219 0 -8200.20991649 0 1041
0.03150000 0.03150510 55366.47878174 0 1306.56518289 0 21430.74347926 0 2855.16246559 0 -2531.63225061 0 1036
0.03250000 0.03246190 53515.91257093 0 1591.15420539 0 24974.60272816 0 568.19758318 0 360.43395459 0 1059
0.03350000 0.03345080 50245.34041484 0 3669.46705433 0 26903.02914155 0 -1245.53032609 0 -946.72571647 0 1302
0.03450000 0.03451200 48336.43450808 0 2560.83537218 0 32220.37078246 0 -1428.32434299 0 5713.97393498 0 1339
0.03550000 0.03553350 45880.28894390 0 1512.76162536 0 32220.59260640 0 -202.74264373 0 268.57666146 0 1365
0.03650000 0.03647120 44654.26803324 0 -539.96383223 0 29059.04691631 0 7263.90216131 0 3360.58831052 0 1308
0.03750000 0.03744890 45718.46838042 0 -1119.21268405 0 26455.83208060 0 3589.84335144 0 -1737.61346109 0 1579
0.03850000 0.03847530 45989.64814580 0 681.13036874 0 21902.56299744 0 3754.24816381 0 -1527.69037645 0 1662
0.03950000 0.03950240 43158.84194871 0 2100.22905412 0 21773.01781709 0 -848.58526027 0 -4048.91908433 0 1683
0.04050000 0.04050350 42862.37425428 0 710.62075231 0 20334.93322078 0 690.68099844 0 -5119.08649547 0 1822
0.04150000 0.04152450 39378.74020482 0 806.99659907 0 15013.26601305 0 2010.86728030 0 -5757.25178547 0 1887
0.04250000 0.04250150 38492.22083275 0 858.94776558 0 16357.07543530 0 1390.80282372 0 -7558.72835859 0 1920
0.04350000 0.04349210 36979.27065704 0 1083.08532823 0 13053.67333624 0 2273.20736172 0 -7634.11522425 0 2005
0.04450000 0.04448520 37007.66412123 0 -295.18000646 0 10984.78800470 0 2676.91583944 0 -2631.41974956 0 2151
0.04550000 0.04548030 37336.18537483 0 -1459.61260958 0 11867.91347051 0 2313.42404185 0 -6191.29468685 0 2274
0.04650000 0.04648670 38281.37717876 0 310.77977497 0 4501.01845433 0 1284.37169780 0 -3550.22559594 0 2311
0.04750000 0.04749250 38369.88493041 0 394.04360870 0 10809.12562744 0 -2639.37213777 0 -5365.34434131 0 2568
0.04850000 0.04851840 37294.92612218 0 984.41914929 0 8593.61467224 0 -1827.95126023 0 -1908.38462050 0 2493
0.04950000 0.04949480 37671.47225858 0 282.71793757 0 12772.40058163 0 2985.76130966 0 -4564.32700651 0 2644
0.05050000 0.05050630 37214.84768022 0 353.84245624 0 11832.19981633 0 -896.25966123 0 -506.73571529 0 2829
0.05150000 0.05149060 35898.10077853 0 903.68632671 0 10870.53758494 0 1897.94780417 0 -2483.30790551 0 2784
0.05250000 0.05249300 36181.48086055 0 -42.10872742 0 12725.92846642 0 203.58890206 0 1948.57911824 0 3055
0.05350000 0.05348950 35052.95157107 0 -48.68636177 0 10939.96847783 0 1983.28347349 0 -615.88751182 0 3009
0.05450000 0.05448610 35914.84848592 0 91.22276575 0 11732.82269168 0 447.86586013 0 2793.04067149 0 3336
0.05550000 0.05550870 34988.06806892 0 420.09572121 0 10768.67603217 0 266.37949534 0 650.09941792 0 3349
0.05650000 0.05647670 34006.49713901 0 829.58714902 0 11179.37196396 0 -133.59346724 0 857.24970333 0 3324
0.05750000 0.05747970 33128.73981252 0 155.25901136 0 10030.49032808 0 -760.57106689 0 -340.30343212 0 3639
0.05850000 0.05849280 35142.67935438 0 -592.71356491 0 11780.07119068 0 1382.41787882 0 -576.45941579 0 3846
0.05950000 0.05951020 33106.22468272 0 727.95740226 0 10375.93674823 0 -2052.40381287 0 -5948.71911839 0 3787
0.06050000 0.06049470 33836.58000176 0 1376.83900676 0 13639.51035905 0 -3368.21905402 0 -4165.34337869 0 3930
0.06150000 0.06148310 31895.84235976 0 810.31952168 0 13135.97001760 0 -1957.84026769 0 -8024.99118710 0 4083
0.06250000 0.06249100 31551.68251846 0 243.25213147 0 14905.12684281 0 1928.33768381 0 -5637.38922005 0 4303
0.06350000 0.06350600 31138.09178426 0 -86.55925017 0 12526.50874529 0 1203.69433120 0 -6146.24224484 0 4470
0.06450000 0.06451750 30807.35229126 0 498.16998389 0 11563.23829034 0 1722.72907479 0 -5939.03650346 0 4479
0.06550000 0.06550280 30459.42144300 0 668.51191398 0 11702.76554795 0 162.75998786 0 -5987.72685806 0 4636
0.06650000 0.06648880 29291.29658041 0 493.52277237 0 12055.46561090 0 -162.81211648 0 -1278.37136025 0 4653
0.06750000 0.06749660 28865.94917744 0 430.73217908 0 11365.70407269 0 949.38649461 0 -4115.85445791 0 5220
0.06850000 0.06852730 28538.53704353 0 -74.23582124 0 10992.20801546 0 1530.35226372 0 302.20073413 0 5029
0.06950000 0.06949320 28869.94200835 0 -596.70417757 0 9659.45651657 0 809.19820167 0 -3404.16562333 0 5040
0.07050000 0.07048030 29748.03207074 0 -740.13553651 0 9368.42350865 0 2238.18136176 0 103.56959710 0 5475
0.07150000 0.07148790 30338.19466035 0 -382.47438116 0 7845.42470851 0 1357.52923287 0 -679.95802923 0 5509
0.07250000 0.07249820 30391.43240570 0 265.74286064 0 7242.78452233 0 -815.98601420 0 -1571.52278679 0 5916
0.07350000 0.07351270 30501.56799140 0 912.29864114 0 8559.71997437 0 -833.98480861 0 -601.38022621 0 5721
0.07450000 0.07449140 29407.42141246 0 599.63003533 0 8734.09577279 0 -1358.48307581 0 -3940.36953980 0 6028
0.07550000 0.07549160 28284.99228130 0 970.85905191 0 10267.54248045 0 -1007.73284528 0 -2742.99719086 0 6183
0.07650000 0.07648840 27439.39942596 0 855.97643392 0 9449.72198228 0 -639.59716353 0 -3873.71144614 0 6330
0.07750000 0.07749960 25988.78177711 0 408.91690381 0 10521.96344725 0 1672.67450296 0 -2046.32583695 0 6583
0.07850000 0.07848650 25684.21750891 0 343.07844960 0 9195.02373556 0 1802.60787521 0 -1806.11269344 0 6549
0.07950000 0.07947320 24785.83055610 0 490.56142278 0 8155.04656251 0 1660.11926801 0 -1626.81240358 0 6828
0.08050000 0.08048110 24060.68809963 0 791.81607781 0 7511.16930608 0 618.90320827 0 -907.55937268 0 7147
0.08150000 0.08149960 22103.42457417 0 945.05760044 0 7853.55455587 0 -1249.29024185 0 153.78388217 0 7386
0.08250000 0.08250610 21622.73209844 0 413.37334674 0 6748.36114477 0 872.65759413 0 251.70695090 0 7227
0.08350000 0.08350160 21377.61664588 0 -290.71690881 0 7387.23627138 0 1751.42200129 0 40.81249923 0 7798
0.08450000 0.08449610 21909.99409940 0 -52.03634690 0 5672.88105029 0 847.36522860 0 -29.64133476 0 7371
0.08550000 0.08548940 21069.28137072 0 382.56865634 0 4878.06369459 0 794.62991448 0 289.25508905 0 8256
0.08650000 0.08650700 21213.13419514 0 322.03290339 0 5453.41953627 0 -349.06104123 0 2091.40046134 0 8037
0.08750000 0.08749060 20030.70168849 0 377.34470257 0 4789.48939576 0 -53.91774664 0 395.52650173 0 8155
0.08850000 0.08849210 20217.81018101 0 239.34359366 0 5581.96650890 0 -260.02534861 0 1319.89680163 0 8718
0.08950000 0.08949900 19793.01733789 0 42.62158437 0 5129.66749736 0 -75.62222086 0 1270.48551922 0 8571
0.09050000 0.09049190 19691.75470975 0 85.05994216 0 6152.16494401 0 587.00492584 0 934.74500552 0 8932
0.09150000 0.09150830 19616.66730641 0 464.75109836 0 5559.77302381 0 -797.65670212 0 -576.71451332 0 9285
0.09250000 0.09250820 19239.56661017 0 430.45379004 0 6033.58895744 0 -680.30296545 0 -339.85534777 0 9204
0.09350000 0.09350330 18557.90164574 0 289.22292458 0 6921.58345870 0 -397.24785550 0 -671.85480074 0 9349
0.09450000 0.09448040 18590.39885279 0 323.74094772 0 6911.69011103 0 -232.93731831 0 -1884.89346537 0 9564
0.09550000 0.09549270 17971.06641521 0 313.88863747 0 7231.84860213 0 -730.44293950 0 -2700.47354176 0 10155
0.09650000 0.09649430 17507.12164686 0 283.22036879 0 6764.28810359 0 449.01823549 0 -3283.93704841 0 9913
0.09750000 0.09749140 17301.93450332 0 240.60133540 0 7451.79812881 0 77.13250914 0 -2861.77281897 0 10476
0.09850000 0.09850240 16880.91266716 0 300.91970088 0 6391.14696466 0 102.43008753 0 -3900.88487866 0 10575
0.09950000 0.09950330 16465.88007736 0 314.93010087 0 7321.79820938 0 419.55003432 0 -2636.85443606 0 10882
0.10050000 0.10051200 16124.60394726 0 197.67396673 0 5973.58558195 0 253.28744647 0 -3227.64922390 0 10875
0.10150000 0.10150300 15886.80868470 0 22.48174530 0 6171.34162354 0 694.32889311 0 -1990.69239305 0 11118
0.10250000 0.10250800 15758.03988813 0 -123.02910215 0 5837.59641617 0 609.83726388 0 -2064.51539994 0 11575
0.10350000 0.10349800 15998.94068584 0 73.58432433 0 4886.06044759 0 535.75250475 0 -1911.22396692 0 11364
0.10450000 0.10450100 15637.58948927 0 223.41663485 0 4837.05953947 0 35.66030552 0 -1134.21907352 0 12093
0.10550000 0.10551000 15577.69702575 0 3.29722430 0 5124.84282668 0 29.15354391 0 -1102.74225658 0 12067
0.10650000 0.10649700 15669.19940057 0 47.75614308 0 4476.68436823 0 593.51878581 0 -1152.59718686 0 12054
0.10750000 0.10749900 15581.24620877 0 65.12551206 0 4724.77226156 0 383.75763265 0 -1025.16266128 0 12807
0.10850000 0.10850100 15412.77092713 0 149.01466748 0 4613.30573223 0 -14.41179040 0 -41.56292962 0 12736
0.10950000 0.10950300 14987.31261219 0 241.69492742 0 4654.50952890 0 69.86688785 0 -386.68459952 0 12933
0.11050000 0.11050200 14899.69215630 0 326.81542752 0 4606.14081901 0 361.29795883 0 -53.53155116 0 13428
0.11150000 0.11150900 14682.30469612 0 45.38151782 0 5056.39905032 0 94.30412208 0 384.47745133 0 13453
0.11250000 0.11250000 14308.19862305 0 233.94218075 0 5126.90578932 0 -673.70370327 0 -488.94321715 0 13668
0.11350000 0.11349100 14263.83383526 0 251.95428459 0 5283.67985818 0 -259.14470758 0 671.39340694 0 13791
0.11450000 0.11448600 14070.18153655 0 66.59010462 0 5658.11866715 0 20.85777224 0 -427.25619796 0 14205
0.11550000 0.11549300 14452.27327141 0 72.69037386 0 5669.25422889 0 -80.77064357 0 -111.35339912 0 14776
0.11650000 0.11649800 13980.01010536 0 68.77562498 0 5517.30483070 0 345.68266264 0 -1133.47596332 0 14553
0.11750000 0.11747300 13979.01189763 0 155.68047684 0 5703.37075070 0 -207.34105399 0 172.14646783 0 14568
0.11850000 0.11849100 13846.13935819 0 198.48695147 0 5990.82130201 0 187.78283729 0 249.34896243 0 16015
0.11950000 0.11950300 13683.65332290 0 93.15341040 0 5748.56737826 0 243.18447517 0 204.27877451 0 15270
0.12050000 0.12050700 13523.94008685 0 153.56538559 0 6148.26084269 0 351.60868917 0 593.62858866 0 15999
0.12150000 0.12150000 13297.23602122 0 179.38236472 0 6081.39201629 0 -113.44298063 0 -13.81574948 0 15670
0.12250000 0.12250700 13386.40924469 0 3.61777099 0 5907.95896961 0 389.80566234 0 1290.53840330 0 16887
0.12350000 0.12352200 13172.23823162 0 27.70081894 0 5542.49293897 0 338.49556702 0 671.68177806 0 16407
0.12450000 0.12449800 13404.82063162 0 33.33769796 0 5695.14108256 0 170.30311090 0 1364.45013977 0 16306
0.12550000 0.12549900 12926.56821921 0 236.61626833 0 5646.32872480 0 -28.48818301 0 477.01352571 0 17523
0.12650000 0.12650100 12921.02262074 0 230.66584117 0 5628.32771215 0 158.71502833 0 1111.41557259 0 17154
0.12750000 0.12750600 12451.08860604 0 128.62239277 0 5429.73983079 0 368.85439131 0 1281.05542991 0 18007
0.12850000 0.12850300 12478.81659841 0 -34.60919278 0 4328.49488580 0 759.80688342 0 915.93766286 0 17496
0.12950000 0.12949900 12654.50115807 0 -184.22589043 0 4611.90824142 0 835.50430259 0 1774.61369411 0 18405
0.13050000 0.13049000 12394.74532555 0 85.79806132 0 3493.28339081 0 601.71961683 0 1109.10527627 0 18100
0.13150000 0.13148800 12384.09777648 0 168.05381616 0 3314.43784002 0 7.42537890 0 1775.53426346 0 19059
0.13250000 0.13249300 12003.89154509 0 175.45940836 0 3139.00837789 0 -10.71740143 0 1528.36693947 0 18957
0.13350000 0.13349100 11769.20181767 0 182.07308910 0 3133.10786112 0 295.85767859 0 1360.13566415 0 19468
0.13450000 0.13450700 11810.12833441 0 -91.30273328 0 2559.97025882 0 297.23298702 0 1728.05284932 0 19953
0.13550000 0.13551000 11737.81373030 0 22.05462331 0 2360.28434896 0 240.01793844 0 881.57824383 0 19956
0.13650000 0.13649900 11617.36333145 0 123.27421760 0 2595.95010172 0 -294.79846929 0 1148.09416090 0 19723
0.13750000 0.13749600 11503.45673879 0 240.23199854 0 2118.95099456 0 -191.95534558 0 187.21164065 0 20946
0.13850000 0.13851100 11237.15710006 0 192.54096078 0 2627.99256970 0 -18.30679695 0 782.73793311 0 20955
0.13950000 0.13949800 10974.98338660 0 123.69568308 0 2731.47343723 0 -69.92068015 0 87.35526537 0 20506
0.14050000 0.14048300 10912.25157666 0 138.46915742 0 2315.83083159 0 132.38341765 0 179.67406320 0 21447
0.14150000 0.14148400 10664.14150093 0 102.76093793 0 2565.99277876 0 -278.91143878 0 -427.80188485 0 21771
0.14250000 0.14249400 10595.67554217 0 182.46349923 0 2756.53954233 0 -404.88747195 0 -500.84739883 0 22470
0.14350000 0.14350900 10459.79728835 0 181.98768689 0 3043.40226020 0 -179.47774902 0 -934.03516892 0 22519
0.14450000 0.14449900 10240.08067681 0 171.87029703 0 2950.33602661 0 -357.35060183 0 -1050.28533149 0 22218
0.14550000 0.14550500 9962.70093233 0 147.32658730 0 3386.47516420 0 6.80632374 0 -1036.61210389 0 23559
0.14650000 0.14650700 10225.72866796 0 -53.99671596 0 3078.63899290 0 529.71889361 0 -1292.01353250 0 23044
0.14750000 0.14750500 10009.35050670 0 -66.79074437 0 3080.90159708 0 339.41946373 0 -636.77556303 0 23649
0.14850000 0.14849900 9979.89228760 0 132.90581303 0 2930.44951048 0 9.09441549 0 -650.27133148 0 23640
0.14950000 0.14949500 9905.74763600 0 139.42632772 0 2902.32223502 0 53.25959501 0 -352.70339031 0 24457
0.15050000 0.15050000 9920.14400964 0 24.20287724 0 2811.57406159 0 275.82586779 0 155.80691649 0 24591
0.15150000 0.15149900 9787.42674696 0 -110.11273783 0 2549.14525059 0 320.53559180 0 -463.12512889 0 25020
0.15250000 0.15250500 9991.74877714 0 -13.93841812 0 2561.29011125 0 78.96621674 0 239.77725946 0 25297
0.15350000 0.15350100 9861.09447709 0 61.48482667 0 2307.52352508 0 -83.40069910 0 -180.16873059 0 25452
0.15450000 0.15450400 9898.05034532 0 239.36688518 0 2539.90628354 0 -265.31917692 0 -446.44507780 0 26061
0.15550000 0.15549900 9473.29077579 0 192.31248212 0 2320.18967199 0 -238.51286301 0 -481.03075724 0 26128
0.15650000 0.15649500 9388.76476385 0 99.91582409 0 2819.18262269 0 57.02993650 0 -284.66998823 0 26331
0.15750000 0.15749700 9329.71523130 0 -21.58557659 0 2569.37559383 0 539.34050696 0 -49.60693112 0 27345
0.15850000 0.15849900 9320.78681776 0 13.73533830 0 2359.80742749 0 313.77217990 0 -472.77447023 0 26980
0.15950000 0.15949700 9318.86804068 0 89.47412764 0 2401.73215196 0 113.19010134 0 104.36516866 0 27777
0.16050000 0.16050000 8915.18174536 0 290.25329678 0 2282.87888546 0 -334.29533074 0 -208.94927755 0 28224
0.16150000 0.16150500 8830.42281828 0 222.82547405 0 2678.95661968 0 -601.73181715 0 -18.17059705 0 28075
0.16250000 0.16249700 8424.81774589 0 75.88940779 0 2766.06688051 0 209.96190383 0 -451.91192878 0 28590
0.16350000 0.16349900 8554.65129736 0 -17.03308389 0 2710.79944612 0 387.52531225 0 -18.71462026 0 29163
0.16450000 0.16449100 8662.63519085 0 -139.67477053 0 2178.17798627 0 490.17766737 0 -275.28572649 0 28996
0.16550000 0.16550500 8653.48495337 0 2.11543509 0 1915.00606508 0 326.17990193 0 8.96977262 0 30777
0.16650000 0.16650700 8707.24398497 0 98.11339368 0 1599.04004642 0 367.88280246 0 388.71428856 0 29211
0.16750000 0.16749900 8413.62672816 0 89.46913660 0 1600.74809075 0 80.51976069 0 641.73887366 0 30922
0.16850000 0.16850800 8395.17097644 0 222.15445663 0 1665.98651120 0 -94.40527380 0 752.64529755 0 30867
0.16950000 0.16949900 8060.12809903 0 199.58165260 0 1785.07269283 0 -156.57109996 0 648.04976473 0 30852
0.17050000 0.17049200 7867.71801437 0 143.69532942 0 2021.29300543 0 -143.80291403 0 877.22162167 0 31257
0.17150000 0.17149500 7732.94888026 0 95.61931622 0 2042.59919477 0 7.58220842 0 536.55550741 0 32608
0.17250000 0.17250900 7731.18537994 0 65.05519388 0 2006.71917264 0 149.84096165 0 907.73683183 0 32361
0.17350000 0.17350400 7521.57284882 0 73.12437239 0 2089.08240118 0 136.03574881 0 535.28445623 0 32508
0.17450000 0.17449800 7607.42980439 0 -5.15320302 0 1883.14105625 0 49.37190866 0 857.23861213 0 32791
0.17550000 0.17549800 7682.97194681 0 -67.30448862 0 1995.18432782 0 265.56651061 0 917.71779997 0 33633
0.17650000 0.17650100 7604.84555550 0 -16.41641334 0 1566.88666647 0 128.12994362 0 952.53750367 0 33984
0.17750000 0.17750300 7785.25496506 0 46.90389551 0 1574.11812688 0 -148.33255887 0 869.07846487 0 34069
0.17850000 0.17849800 7644.34130784 0 97.34044816 0 1657.04700646 0 -26.28014752 0 521.19974523 0 34536
