### header ###
fiducial parameters:
Omega_m = 0.31
Omega_nu = 0
Omega_de = 0.69
Omega_k = 0
H_0 = 100
w_de = -1
zeff = 0
beta = 0
fgrowth = 0
b_1 = 2
gamma = 0.55
Lx = 3500 Ly = 3500 Lz = 3500
nx = 700 ny = 700 nz = 700
xoffset = 1379.75464 yoffset = 22.6059522 zoffset = 368.141391
bins = 400 dk = 0.001
kx_ny = 0.628318531 ky_ny = 0.628318531 kz_ny = 0.628318531
############################
A(data) = 3.33750641 (not used)
A(ran) = 3.3449961 (used)
Ngal = 188177
weighted Ngal = 0
Nran = 9399747
weighted Nran = 0
SN(data) = 6566.96741
SN(ran) = 133.0485
SN(data+ran) = 6700.01591
############################
13 columns: k_central k_mean P_0(k) sigma^{lin}_{P_0(k)} P^img_1(k) sigma^{lin}_{P_1(k)} P_2(k) sigma^{lin}_{P_2(k)} P^img_3(k) sigma^{lin}_{P_3(k)} P_4(k) sigma^{lin}_{P_4(k)} N_modes
### header ###
0.00050000 0 0 0 0 0 0 0 0 0 0 0 0
0.00150000 0.00179520 50471.26809667 0 -20674.54567133 0 14422.21612768 0 -1850.57730201 0 227267.49842664 0 3
0.00250000 0.00253879 55195.45252480 0 -12942.53954282 0 -11791.60603550 0 -10084.91483150 0 -85803.82874281 0 6
0.00350000 0.00331552 71222.78667483 0 -5557.64351400 0 11263.11050092 0 -16840.87344618 0 34589.45045060 0 7
0.00450000 0.00420575 71845.11373559 0 3805.23439618 0 3890.15969121 0 -12799.46310219 0 -20313.19447476 0 24
0.00550000 0.00557378 66013.36238022 0 9456.54306840 0 38470.14935082 0 -5625.71018967 0 30090.52823250 0 45
0.00650000 0.00659388 49172.26711010 0 2162.09575069 0 11271.31798666 0 10263.84911187 0 -61835.75213770 0 40
0.00750000 0.00754703 58069.40347802 0 -1873.92427158 0 60156.32309580 0 7650.25291581 0 29098.42066548 0 57
0.00850000 0.00846663 63593.81776596 0 -7233.84501758 0 3058.75247677 0 28924.73252127 0 -19015.96807970 0 75
0.00950000 0.00948925 67246.81439283 0 -1975.41981486 0 26098.80645083 0 4995.10909598 0 14909.78514553 0 112
0.01050000 0.01054430 76609.89194455 0 -7857.28119804 0 -6721.57590414 0 10854.76590288 0 13386.40924469 0 105
0.01150000 0.01145670 71594.34177259 0 -7587.66529143 0 -11228.83870235 0 8812.71017676 0 -5680.89998568 0 144
0.01250000 0.01249090 94423.79609900 0 -2619.40798326 0 -9354.65933324 0 -20971.90066152 0 -871.32886873 0 169
0.01350000 0.01339930 87377.11502991 0 4008.58040103 0 -12940.98677525 0 -4684.05647757 0 -11886.76850532 0 180
0.01450000 0.01448870 84914.09292362 0 4852.62048879 0 9120.13597377 0 -17532.85322378 0 2018.13201430 0 267
0.01550000 0.01550050 72988.94887686 0 3559.99694046 0 7712.65198984 0 1399.04358305 0 -18144.53273548 0 238
0.01650000 0.01653350 76672.33538337 0 3292.82109717 0 33131.84534767 0 -8953.83456672 0 -7069.27383727 0 315
0.01750000 0.01747870 69084.95846306 0 3164.26303334 0 27211.36441671 0 -1584.96531749 0 1774.08131666 0 297
0.01850000 0.01844180 73471.97050396 0 -1201.58700378 0 28975.86293920 0 7090.21401711 0 3008.64244896 0 388
0.01950000 0.01947590 73804.15185256 0 2289.61124201 0 33883.05211697 0 -5308.30231540 0 -8976.16114618 0 399
0.02050000 0.02045430 73283.86380372 0 635.69971693 0 40741.62648581 0 728.03614976 0 -2115.01361965 0 462
0.02150000 0.02154770 71123.96411002 0 2797.62133583 0 38680.10570905 0 -2440.47370290 0 -10646.87250728 0 571
0.02250000 0.02255340 65373.06758040 0 802.71983353 0 36430.58914401 0 438.99512081 0 -15281.00750738 0 510
0.02350000 0.02348930 68594.72755795 0 3537.39308108 0 38305.33416417 0 -4613.50537378 0 -14751.51376508 0 555
0.02450000 0.02439640 62674.57936289 0 3201.13017200 0 37908.60204933 0 4721.32289931 0 -26002.64577329 0 592
0.02550000 0.02547300 61492.14685624 0 125.34272583 0 29347.30712500 0 3669.36723356 0 -17164.51457313 0 837
0.02650000 0.02652900 60552.94429867 0 -310.92063317 0 28812.04596028 0 6691.60748998 0 -21867.73663902 0 723
0.02750000 0.02749970 63893.16917160 0 -1940.63782123 0 14943.72420819 0 9390.55044656 0 -12634.64791554 0 826
0.02850000 0.02848090 60598.30729419 0 -530.77810291 0 15877.93572714 0 604.81738814 0 -21384.38227602 0 831
0.02950000 0.02946900 63247.32877330 0 331.16095848 0 5845.69298994 0 2047.49041263 0 -18287.72008808 0 996
0.03050000 0.03053250 61411.40294246 0 233.65713699 0 11154.97133067 0 -2165.90003125 0 -19424.90051118 0 1041
0.03150000 0.03150510 60587.77065709 0 2447.31697141 0 13234.12711059 0 -4890.18637285 0 -20985.76465770 0 1036
0.03250000 0.03246190 60144.78825097 0 1362.99719297 0 18275.51977143 0 -3648.73760724 0 -13171.90549571 0 1059
0.03350000 0.03345080 55425.92759738 0 2251.44643331 0 22021.79336463 0 -2848.44120024 0 -21623.17574632 0 1302
0.03450000 0.03451200 55979.15650116 0 3491.37570494 0 20998.07588631 0 -2819.90355049 0 -9550.38568578 0 1339
0.03550000 0.03553350 50737.78955934 0 854.77747553 0 24369.46702267 0 5603.82725809 0 -7597.88028382 0 1365
0.03650000 0.03647120 50542.91722896 0 397.92109115 0 25939.31503872 0 5690.69351259 0 -2397.49531472 0 1308
0.03750000 0.03744890 51385.29363718 0 114.20383674 0 21560.17774765 0 5676.95151957 0 -1672.65232056 0 1579
0.03850000 0.03847530 49118.47480490 0 1584.42184884 0 22795.62617571 0 1999.82044814 0 6782.79931129 0 1662
0.03950000 0.03950240 46282.78848115 0 2294.59118944 0 20855.88674144 0 -2675.48507503 0 6302.88321934 0 1683
0.04050000 0.04050350 44782.03862208 0 1470.73708012 0 23541.50917048 0 3196.33877492 0 10013.46534076 0 1822
0.04150000 0.04152450 43129.89392468 0 336.64666449 0 23624.91497153 0 2979.26186825 0 11301.04239448 0 1887
0.04250000 0.04250150 44465.38494921 0 358.18798720 0 21184.62981898 0 1053.79125885 0 5198.65474237 0 1920
0.04350000 0.04349210 41810.70695965 0 1599.55024148 0 24901.28991633 0 -1.69376996 0 7120.33770802 0 2005
0.04450000 0.04448520 39465.91701283 0 1974.21087439 0 24073.55388809 0 -1460.76609407 0 5550.09040888 0 2151
0.04550000 0.04548030 39157.02717782 0 752.50222111 0 26350.35479762 0 -619.06513974 0 9749.90522768 0 2274
0.04650000 0.04648670 38951.84003428 0 -966.97491473 0 23616.37474988 0 5344.25997591 0 3041.30602398 0 2311
0.04750000 0.04749250 38059.22050389 0 1072.78160626 0 23877.12879013 0 2085.98795723 0 5233.22600326 0 2568
0.04850000 0.04851840 38256.75472153 0 1451.99295728 0 20467.69484825 0 -300.99290278 0 3906.02010285 0 2493
0.04950000 0.04949480 34842.32974102 0 769.58931913 0 21543.31912829 0 1624.70507616 0 3364.24840552 0 2644
0.05050000 0.05050630 35451.90192530 0 -101.50752177 0 18427.13643372 0 1861.26921587 0 4046.42356501 0 2829
0.05150000 0.05149060 34316.38518174 0 30.46962534 0 17042.95505458 0 4290.14152675 0 3614.56562944 0 2784
0.05250000 0.05249300 35117.50233731 0 -721.32708472 0 13690.41895304 0 3619.25720575 0 4574.23144539 0 3055
0.05350000 0.05348950 34733.74692290 0 366.34112608 0 10552.04277337 0 1524.72902687 0 1933.35090483 0 3009
0.05450000 0.05448610 34471.32920311 0 532.79004604 0 9829.59547776 0 -768.40034281 0 3271.67018459 0 3336
0.05550000 0.05550870 33905.45633481 0 2.51212284 0 10307.03823279 0 1278.13844512 0 3311.46539924 0 3349
0.05650000 0.05647670 33470.90323838 0 -100.77339544 0 9102.96680089 0 1166.80501015 0 4485.74587613 0 3324
0.05750000 0.05747970 33781.56766490 0 343.37347544 0 8346.55826022 0 2480.14691438 0 3673.21587890 0 3639
0.05850000 0.05849280 32795.33843226 0 572.21592383 0 9275.20199830 0 311.62048770 0 5885.98730845 0 3846
0.05950000 0.05951020 32708.16162425 0 352.45162014 0 7879.14194723 0 1900.33241152 0 8699.03649923 0 3787
0.06050000 0.06049470 31935.99249271 0 378.02570207 0 8797.31559539 0 56.89052015 0 6337.38793305 0 3930
0.06150000 0.06148310 32092.82201756 0 401.73757202 0 8259.81400889 0 -659.20307238 0 6457.61650797 0 4083
0.06250000 0.06249100 31120.67860505 0 561.34765994 0 10317.66359946 0 -2164.92400591 0 5007.75306050 0 4303
0.06350000 0.06350600 31087.62683814 0 702.44654016 0 11964.18506002 0 -1791.07303038 0 2672.64572861 0 4470
0.06450000 0.06451750 30521.64305787 0 127.13062678 0 10832.32841145 0 188.93854001 0 762.95789247 0 4479
0.06550000 0.06550280 30093.85559158 0 -123.30083647 0 12761.19847272 0 -23.73671424 0 -250.94054919 0 4636
0.06650000 0.06648880 29767.66348933 0 844.40166078 0 11117.70490893 0 595.22017542 0 -393.13634879 0 4653
0.06750000 0.06749660 29087.32946853 0 316.22333443 0 10890.71247219 0 1857.54257369 0 -181.87788404 0 5220
0.06850000 0.06852730 28253.71510590 0 433.85767838 0 10011.25819257 0 711.88736700 0 -599.42928467 0 5029
0.06950000 0.06949320 28496.83414301 0 143.59994513 0 9373.84710396 0 1130.25951621 0 599.19969689 0 5040
0.07050000 0.07048030 26916.67131379 0 420.43511184 0 8627.50937011 0 379.59954291 0 17.34197372 0 5475
0.07150000 0.07148790 27380.50517017 0 98.71287287 0 7285.70745451 0 735.93751846 0 1553.08921746 0 5509
0.07250000 0.07249820 26619.87088346 0 58.61597766 0 6250.15566905 0 1709.27545289 0 801.95565006 0 5916
0.07350000 0.07351270 26641.72054145 0 521.47702515 0 6825.77769947 0 309.56307066 0 1096.95154265 0 5721
0.07450000 0.07449140 26106.45937673 0 365.16767744 0 6489.60351997 0 38.06753890 0 1822.53875612 0 6028
0.07550000 0.07549160 25047.69371605 0 795.80669047 0 6615.15586942 0 -121.65712109 0 2219.31523575 0 6183
0.07650000 0.07648840 24612.47514780 0 133.66666914 0 7449.02532958 0 -699.20680153 0 2479.69217530 0 6330
0.07750000 0.07749960 24518.53270965 0 225.70031230 0 7966.74022073 0 -14.20937606 0 1740.95191137 0 6583
0.07850000 0.07848650 24319.77846034 0 289.89394199 0 7605.20047381 0 569.98548413 0 1963.35259258 0 6549
0.07950000 0.07947320 24411.72448304 0 -194.71705362 0 6333.79438524 0 642.30452471 0 1246.53962501 0 6828
0.08050000 0.08048110 24242.14008170 0 363.05258618 0 7394.03517511 0 -264.42855380 0 854.26617135 0 7147
0.08150000 0.08149960 23203.89313538 0 662.42173773 0 6815.19669758 0 -391.27968242 0 602.71782456 0 7386
0.08250000 0.08250610 22922.50946880 0 608.34882525 0 8687.92311989 0 -1031.42696932 0 661.18063279 0 7227
0.08350000 0.08350160 21663.99135109 0 586.42263800 0 6328.92534978 0 811.77135936 0 -1359.61437790 0 7798
0.08450000 0.08449610 20921.21389146 0 276.87398590 0 8296.50368839 0 184.95569119 0 -989.25491116 0 7371
0.08550000 0.08548940 21008.16887554 0 311.71254463 0 5725.76387734 0 15.63825496 0 -1921.64969205 0 8256
0.08650000 0.08650700 19942.97032063 0 299.13512729 0 7644.62967896 0 1053.66925568 0 -877.11181882 0 8037
0.08750000 0.08749060 19780.81702125 0 317.74837401 0 5310.25436607 0 -33.07428204 0 -1824.61280995 0 8155
0.08850000 0.08849210 19429.66972587 0 78.85641389 0 4916.68324236 0 1050.95413067 0 -893.01881348 0 8718
0.08950000 0.08949900 19440.65001084 0 -68.99622889 0 5832.87156627 0 296.88028695 0 -933.16450996 0 8571
0.09050000 0.09049190 19241.67393759 0 26.26450893 0 5100.08727510 0 416.94914864 0 -325.38466311 0 8932
0.09150000 0.09150830 19789.80089077 0 0.08831210 0 4178.08716399 0 103.75881292 0 -1344.77435638 0 9285
0.09250000 0.09250820 19152.61162610 0 210.09388907 0 5505.68125629 0 -1138.30063399 0 -1150.11275874 0 9204
0.09350000 0.09350330 19405.60182849 0 579.23110590 0 5906.93857949 0 -443.13768287 0 -193.67669935 0 9349
0.09450000 0.09448040 18654.17323525 0 170.06021369 0 6613.19272756 0 165.36309178 0 -1214.80771054 0 9564
0.09550000 0.09549270 18828.85958718 0 106.44443535 0 6400.26392855 0 809.50210046 0 542.49595249 0 10155
0.09650000 0.09649430 18562.11630058 0 26.81629598 0 6355.61076963 0 595.11813641 0 -199.08143962 0 9913
0.09750000 0.09749140 18271.63785250 0 533.71394275 0 7141.58844137 0 -409.85854643 0 221.31263479 0 10476
0.09850000 0.09850240 17593.96571897 0 476.54880456 0 6908.00783364 0 -833.79404002 0 289.97823509 0 10575
0.09950000 0.09950330 16855.62473812 0 564.10493150 0 8380.61932605 0 -678.15792796 0 997.34926670 0 10882
0.10050000 0.10051200 16579.78667002 0 314.79367914 0 7910.71858494 0 146.22744969 0 -529.87860684 0 10875
0.10150000 0.10150300 16428.83547955 0 232.55689025 0 8273.84437303 0 84.32215574 0 163.65948393 0 11118
0.10250000 0.10250800 15978.31105952 0 96.07183705 0 7147.54441413 0 849.86407528 0 -244.52207352 0 11575
0.10350000 0.10349800 16121.72023606 0 -345.99987088 0 7033.60454788 0 1686.11703366 0 57.71315423 0 11364
0.10450000 0.10450100 16222.20648041 0 -162.27197519 0 5313.24898924 0 1229.39263453 0 656.21843128 0 12093
0.10550000 0.10551000 16238.95418780 0 34.35575893 0 4303.73933421 0 356.32022964 0 227.22978836 0 12067
0.10650000 0.10649700 15818.81964740 0 412.19767986 0 4443.56605414 0 -75.69830647 0 1003.47049829 0 12054
0.10750000 0.10749900 15312.39559475 0 430.12327237 0 3989.55899826 0 -838.62425629 0 -349.59452781 0 12807
0.10850000 0.10850100 15014.26422078 0 159.56350490 0 4753.84228877 0 -82.71293398 0 -241.48308556 0 12736
0.10950000 0.10950300 14614.20474686 0 13.25697498 0 4297.40626076 0 505.26058610 0 -408.55533078 0 12933
0.11050000 0.11050200 14798.98408801 0 174.83941045 0 4525.76291472 0 65.16621676 0 -1745.32184297 0 13428
0.11150000 0.11150900 14670.99167523 0 101.82595003 0 4141.56385244 0 -23.32434353 0 -570.32598387 0 13453
0.11250000 0.11250000 14264.05565920 0 243.30536921 0 4473.32373555 0 240.80763166 0 -828.78303724 0 13668
0.11350000 0.11349100 14198.06303736 0 47.65255130 0 4551.02866137 0 -33.65213340 0 536.67196497 0 13791
0.11450000 0.11448600 14412.01222649 0 -71.88315654 0 4169.19202403 0 983.00058520 0 852.01354925 0 14205
0.11550000 0.11549300 14724.45124452 0 -499.03953373 0 3828.10444429 0 1227.32967190 0 1888.23191565 0 14776
0.11650000 0.11649800 14978.99421448 0 -138.67323544 0 3048.51530199 0 627.32142675 0 1962.55402640 0 14553
0.11750000 0.11747300 15121.84883118 0 279.11773504 0 3621.86363703 0 -230.73571571 0 1933.43963441 0 14568
0.11850000 0.11849100 14710.14360046 0 626.53838825 0 4306.64522781 0 -1505.16415545 0 2577.11724930 0 16015
0.11950000 0.11950300 13973.02265128 0 620.10438490 0 5174.10992353 0 -717.25994280 0 1820.02105442 0 15270
0.12050000 0.12050700 13205.40091049 0 280.42205980 0 6098.88283387 0 -68.68090616 0 2282.13577526 0 15999
0.12150000 0.12150000 13306.77445060 0 94.65449300 0 6235.37110352 0 318.98504247 0 1821.64036917 0 15670
0.12250000 0.12250700 12903.94217744 0 49.28528641 0 5806.65197668 0 659.69552152 0 2270.73402480 0 16887
0.12350000 0.12352200 12946.75419766 0 152.40968286 0 5321.22355985 0 657.82221836 0 2085.72176851 0 16407
0.12450000 0.12449800 12781.05171525 0 -79.55615750 0 4687.33947186 0 555.42606989 0 2796.06856825 0 16306
0.12550000 0.12549900 12687.55292498 0 117.18515048 0 4556.77390139 0 220.14805911 0 2097.12351897 0 17523
0.12650000 0.12650100 12629.32414100 0 180.75212755 0 4547.53493433 0 -425.97183735 0 1313.48608979 0 17154
0.12750000 0.12750600 12126.78200728 0 184.30020145 0 4559.96816611 0 -474.86405174 0 1065.29948480 0 18007
0.12850000 0.12850300 12086.85369826 0 117.10973034 0 4260.30620696 0 -164.57783504 0 439.46316932 0 17496
0.12950000 0.12949900 12108.25970837 0 16.59298519 0 4298.34901250 0 17.40408443 0 -172.27845308 0 18405
0.13050000 0.13049000 12242.24136751 0 -57.13652290 0 4387.50005357 0 432.73857661 0 -160.46189185 0 18100
0.13150000 0.13148800 12236.25212116 0 76.92610197 0 4115.41081003 0 145.39560991 0 -82.85767410 0 19059
0.13250000 0.13249300 12115.57989836 0 134.70480518 0 4121.91025144 0 -50.38475676 0 87.14919093 0 18957
0.13350000 0.13349100 12037.27604791 0 108.39116224 0 4207.29028555 0 -39.54422086 0 639.36313928 0 19468
0.13450000 0.13450700 11972.83619364 0 56.42480079 0 4675.07260804 0 436.95101321 0 380.13857508 0 19953
0.13550000 0.13551000 11959.08310942 0 -124.34008163 0 4154.11908738 0 358.23346111 0 1364.43904857 0 19956
0.13650000 0.13649900 12156.17367919 0 -67.24282156 0 4045.36990130 0 270.25475956 0 1463.30597817 0 19723
0.13750000 0.13749600 12217.72982225 0 147.66930529 0 3907.48414084 0 -72.39634622 0 556.62391916 0 20946
0.13850000 0.13851100 11886.54668138 0 261.51267812 0 4121.40005638 0 -367.83178295 0 484.52670252 0 20955
0.13950000 0.13949800 11565.34561776 0 337.42970300 0 4388.18770778 0 -703.30610792 0 429.96023178 0 20506
0.14050000 0.14048300 11244.36637808 0 182.46571747 0 4758.03476121 0 220.37210128 0 160.40865410 0 21447
0.14150000 0.14148400 11021.01185393 0 90.36918723 0 4005.38613631 0 276.50353992 0 -311.80903804 0 21771
0.14250000 0.14249400 11026.35781086 0 -102.07505831 0 3941.83357779 0 805.65345512 0 203.50793632 0 22470
0.14350000 0.14350900 11052.63285643 0 -46.27524647 0 3326.38305914 0 424.01202285 0 -262.73270979 0 22519
0.14450000 0.14449900 10904.54319478 0 185.83855047 0 3192.24612324 0 -217.64144860 0 5.85515378 0 22218
0.14550000 0.14550500 10642.81312920 0 404.91519995 0 3526.91189996 0 -495.45818623 0 -256.01033532 0 23559
0.14650000 0.14650700 10076.23042429 0 354.60553059 0 3728.01748302 0 -667.30740999 0 -891.70672488 0 23044
0.14750000 0.14750500 10033.22985373 0 102.69605443 0 3951.92656702 0 54.84863080 0 -462.14577620 0 23649
0.14850000 0.14849900 9967.59215019 0 -151.55455158 0 4102.84448389 0 575.33698665 0 -765.21051457 0 23640
0.14950000 0.14949500 10130.21127984 0 -178.75349386 0 3452.35687407 0 637.68393206 0 -576.04238678 0 24457
0.15050000 0.15050000 10377.35642144 0 -123.69235573 0 2946.70920520 0 331.74324632 0 -464.70673357 0 24591
0.15150000 0.15149900 10319.22745823 0 49.74734567 0 2951.20113997 0 -95.86088249 0 -369.41006028 0 25020
0.15250000 0.15250500 10341.42094333 0 220.11367640 0 3048.33784284 0 -272.38205113 0 -616.07717128 0 25297
0.15350000 0.15350100 10028.18335911 0 195.07973576 0 3501.70160930 0 -351.13398594 0 -653.90813496 0 25452
0.15450000 0.15450400 9870.74381843 0 203.91498325 0 3239.63880780 0 56.87244150 0 -1095.26013512 0 26061
0.15550000 0.15549900 9612.33002074 0 110.85496073 0 3510.66329643 0 128.10887035 0 -725.75247231 0 26128
0.15650000 0.15649500 9501.58441921 0 54.96830481 0 2941.46306905 0 155.45976202 0 -1217.83560731 0 26331
0.15750000 0.15749700 9652.93489276 0 101.18088602 0 3462.49422808 0 32.02084015 0 -1069.90565889 0 27345
0.15850000 0.15849900 9148.65144112 0 132.67067966 0 2830.18509007 0 118.72793597 0 -1015.15174692 0 26980
0.15950000 0.15949700 9066.76513405 0 271.26738584 0 3215.02744178 0 -98.21964734 0 -992.31497240 0 27777
0.16050000 0.16050000 8801.00896397 0 62.23581161 0 2935.38509312 0 160.60053181 0 -616.37663360 0 28224
0.16150000 0.16150500 8868.62090057 0 -17.69445196 0 3005.37054586 0 574.42085379 0 -481.03186636 0 28075
0.16250000 0.16249700 8667.17149040 0 50.70163226 0 2558.04039055 0 288.15484231 0 -398.27933681 0 28590
0.16350000 0.16349900 8501.94592946 0 247.80174046 0 2644.41863238 0 102.21946570 0 495.82419573 0 29163
0.16450000 0.16449100 8329.54436410 0 259.42975134 0 2902.73260930 0 -219.93399900 0 633.98390876 0 28996
0.16550000 0.16550500 8017.02770769 0 125.20186763 0 2745.53707496 0 167.45267328 0 866.01285803 0 30777
0.16650000 0.16650700 7793.45135961 0 165.32649083 0 3118.73366987 0 268.49015012 0 766.52925789 0 29211
0.16750000 0.16749900 7828.43299478 0 76.23478766 0 2701.56047906 0 -88.75253436 0 964.33742810 0 30922
0.16850000 0.16850800 7620.14031609 0 -37.91481312 0 3047.60582384 0 47.24872082 0 640.81497696 0 30867
0.16950000 0.16949900 7771.61279282 0 16.19481122 0 2749.13062277 0 -101.87397491 0 360.57370367 0 30852
0.17050000 0.17049200 7774.68505437 0 59.02169365 0 2894.46966758 0 -294.43689626 0 -284.08326391 0 31257
0.17150000 0.17149500 7783.25854961 0 44.84836398 0 2781.03999639 0 -75.27783919 0 -380.77742803 0 32608
0.17250000 0.17250900 7642.91054343 0 -22.77910029 0 2710.21161268 0 -46.44338901 0 -625.38490376 0 32361
0.17350000 0.17350400 7864.39065529 0 -63.55411128 0 2576.76233100 0 275.89130585 0 -712.84342818 0 32508
0.17450000 0.17449800 7857.23683326 0 -51.66301721 0 2276.81200073 0 419.16184243 0 -965.45320251 0 32791
0.17550000 0.17549800 7923.32927587 0 -41.84675335 0 2034.62462417 0 214.69340845 0 -758.07222021 0 33633
0.17650000 0.17650100 7770.65894988 0 141.27412113 0 1869.77616393 0 110.00781511 0 -515.35135708 0 33984
0.17750000 0.17750300 7859.44398145 0 86.51865639 0 1889.55176808 0 166.83267538 0 -119.58639462 0 34069
0.17850000 0.17849800 7588.76331993 0 5.15421232 0 1757.92144270 0 249.29017909 0 4.96418684 0 34536
