### header ###
fiducial parameters:
Omega_m = 0.31
Omega_nu = 0
Omega_de = 0.69
Omega_k = 0
H_0 = 100
w_de = -1
zeff = 0
beta = 0
fgrowth = 0
b_1 = 2
gamma = 0.55
Lx = 3500 Ly = 3500 Lz = 3500
nx = 700 ny = 700 nz = 700
xoffset = 1379.75464 yoffset = 22.6059522 zoffset = 368.141391
bins = 400 dk = 0.001
kx_ny = 0.628318531 ky_ny = 0.628318531 kz_ny = 0.628318531
############################
A(data) = 3.33112213 (not used)
A(ran) = 3.33050391 (used)
Ngal = 186778
weighted Ngal = 0
Nran = 9399747
weighted Nran = 0
SN(data) = 6612.50074
SN(ran) = 132.472068
SN(data+ran) = 6744.97281
############################
13 columns: k_central k_mean P_0(k) sigma^{lin}_{P_0(k)} P^img_1(k) sigma^{lin}_{P_1(k)} P_2(k) sigma^{lin}_{P_2(k)} P^img_3(k) sigma^{lin}_{P_3(k)} P_4(k) sigma^{lin}_{P_4(k)} N_modes
### header ###
0.00050000 0 0 0 0 0 0 0 0 0 0 0 0
0.00150000 0.00179520 52015.05179990 0 -31278.06268974 0 -37731.91928194 0 4812.75872695 0 -8241.02552126 0 3
0.00250000 0.00253879 92886.44529001 0 -32298.00916110 0 -32786.79821061 0 -41618.16378063 0 52607.21080496 0 6
0.00350000 0.00331552 101398.38438792 0 -16679.38561862 0 -40914.87098215 0 -47756.47581966 0 -30914.04960590 0 7
0.00450000 0.00420575 109003.61813531 0 -4160.20815451 0 -32608.11902777 0 -37907.04928176 0 11751.01225467 0 24
0.00550000 0.00557378 125078.75534419 0 -14812.95899617 0 -36385.22614849 0 -8253.70275937 0 -23520.43589628 0 45
0.00650000 0.00659388 123783.30354064 0 -2042.18882049 0 25467.71734448 0 -45402.81291527 0 -29347.75077287 0 40
0.00750000 0.00754703 127423.43437904 0 16621.04592267 0 -13471.81146119 0 -49336.30591296 0 -32246.87874317 0 57
0.00850000 0.00846663 107159.37390676 0 15933.39171188 0 40981.19633990 0 -11973.50166545 0 -3758.32972428 0 75
0.00950000 0.00948925 87848.82363612 0 6681.70305111 0 38004.09725505 0 -8355.22048504 0 -15383.49016718 0 112
0.01050000 0.01054430 92719.63368790 0 4505.73221303 0 40630.04904452 0 15874.05380820 0 -14700.82699502 0 105
0.01150000 0.01145670 92837.20037555 0 1199.18021404 0 40139.15266759 0 20014.06489307 0 -4175.84674220 0 144
0.01250000 0.01249090 76726.12768857 0 3608.60965668 0 34764.91318633 0 9289.02162970 0 4272.24033488 0 169
0.01350000 0.01339930 85997.48104153 0 507.90029097 0 27338.13679783 0 13343.59722447 0 14471.01739425 0 180
0.01450000 0.01448870 85738.94524066 0 -4075.71541615 0 23410.85487043 0 20773.36823614 0 38053.23125753 0 267
0.01550000 0.01550050 85821.90739383 0 -4205.06095496 0 4843.45916011 0 25684.55024482 0 11149.64755614 0 238
0.01650000 0.01653350 97872.16014217 0 -6030.39469272 0 12776.28250057 0 2832.17041432 0 40233.42784165 0 315
0.01750000 0.01747870 95076.51303940 0 6347.44764868 0 6296.22850117 0 -7767.32049960 0 17923.70700424 0 297
0.01850000 0.01844180 87614.24482067 0 9651.41539878 0 21760.92841241 0 -13967.03340493 0 46479.76813895 0 388
0.01950000 0.01947590 77756.16714915 0 8657.56651384 0 37017.20255060 0 182.65759518 0 28960.11343953 0 399
0.02050000 0.02045430 78769.79163825 0 -1068.88526877 0 41952.00880877 0 15212.68573418 0 38516.62146603 0 462
0.02150000 0.02154770 76991.09638366 0 -930.52480508 0 25702.18524796 0 17095.30550417 0 32180.33156148 0 571
0.02250000 0.02255340 77175.87572482 0 1728.69613874 0 39471.57352327 0 9910.61667146 0 50224.04531670 0 510
0.02350000 0.02348930 72917.07792064 0 520.94464770 0 22008.92757617 0 -369.71284995 0 38411.36600699 0 555
0.02450000 0.02439640 73792.39518379 0 5652.81707501 0 19951.28871834 0 -353.29011463 0 28856.74348398 0 592
0.02550000 0.02547300 65453.14602236 0 2625.04231131 0 23138.89872126 0 184.58191785 0 25886.74276518 0 837
0.02650000 0.02652900 61290.84163163 0 1634.44314708 0 14059.64489944 0 6821.21921752 0 13979.34463354 0 723
0.02750000 0.02749970 61373.58196087 0 2454.26006070 0 27855.31931152 0 -1492.96383881 0 16901.98594137 0 826
0.02850000 0.02848090 55410.73265756 0 1490.03576281 0 5967.34123807 0 2320.91059979 0 4356.72198203 0 831
0.02950000 0.02946900 53892.23688338 0 831.73995034 0 12792.69747205 0 8670.08847520 0 13344.26269628 0 996
0.03050000 0.03053250 52959.24539610 0 -1366.76819993 0 3015.99591254 0 5481.56899413 0 9849.77036500 0 1041
0.03150000 0.03150510 54249.92798496 0 -1013.38713748 0 2403.31819312 0 11285.29289482 0 10048.62443509 0 1036
0.03250000 0.03246190 52356.32792999 0 526.03328886 0 -3263.07450695 0 -3951.62710470 0 16150.11370025 0 1059
0.03350000 0.03345080 53167.31625085 0 1903.68195300 0 114.97467492 0 -3291.95598381 0 9394.08853839 0 1302
0.03450000 0.03451200 49356.04824353 0 2320.68877586 0 897.82795648 0 -2204.71922056 0 10682.81907659 0 1339
0.03550000 0.03553350 47674.40096224 0 1766.77221787 0 6759.04196743 0 -2653.94597056 0 6921.46145554 0 1365
0.03650000 0.03647120 44775.82755179 0 659.80088789 0 6700.82427465 0 -554.86818269 0 6455.50918055 0 1308
0.03750000 0.03744890 46463.24225549 0 -437.87712816 0 9213.09129539 0 1485.16672735 0 5130.88752902 0 1579
0.03850000 0.03847530 45997.63380761 0 782.77564318 0 6758.78686990 0 138.85734931 0 5528.05220054 0 1662
0.03950000 0.03950240 44668.79750124 0 1189.76378783 0 10767.45600050 0 -2931.56972137 0 2492.96833805 0 1683
0.04050000 0.04050350 43832.29942741 0 1052.28285606 0 11638.10386974 0 -844.12438086 0 5188.12919647 0 1822
0.04150000 0.04152450 42128.13701631 0 670.67469738 0 14829.59579159 0 -1777.79686763 0 600.53285876 0 1887
0.04250000 0.04250150 42289.51393191 0 1114.65420210 0 13783.14135953 0 -694.15254308 0 -3264.38326819 0 1920
0.04350000 0.04349210 41710.88618712 0 1232.24307214 0 18349.49805508 0 -3324.89683874 0 -597.58703685 0 2005
0.04450000 0.04448520 41177.84326179 0 272.00938692 0 17972.17553490 0 780.64724248 0 -292.91074756 0 2151
0.04550000 0.04548030 40415.65620751 0 -858.47306235 0 18009.99651649 0 1868.04593720 0 231.66404890 0 2274
0.04650000 0.04648670 40400.57217966 0 328.74307755 0 15441.38621525 0 740.89306526 0 -4277.07609675 0 2311
0.04750000 0.04749250 40374.17513092 0 1804.87047938 0 17960.08613023 0 -792.31296343 0 -6096.93078321 0 2568
0.04850000 0.04851840 38284.37180194 0 750.79528590 0 16884.46185019 0 -2132.82608195 0 -2788.64855749 0 2493
0.04950000 0.04949480 38153.60658992 0 162.60360198 0 18560.00897316 0 1569.00508508 0 -5471.05453942 0 2644
0.05050000 0.05050630 36194.23573704 0 -256.42958256 0 16300.73215480 0 1927.86076234 0 -3265.76966781 0 2829
0.05150000 0.05149060 38094.60142215 0 382.96683031 0 13793.56708466 0 2356.86826030 0 -3800.45409029 0 2784
0.05250000 0.05249300 38226.91940174 0 -785.53180562 0 13688.53344956 0 2744.94924152 0 -4141.17566054 0 3055
0.05350000 0.05348950 37678.90336053 0 906.91164678 0 11946.10640899 0 -1635.62990515 0 -3143.33394470 0 3009
0.05450000 0.05448610 36717.07476118 0 998.17556087 0 12840.72235484 0 501.97204620 0 -1367.45585414 0 3336
0.05550000 0.05550870 35585.66176049 0 991.82695974 0 13967.69887674 0 -2143.85073171 0 -1138.91064983 0 3349
0.05650000 0.05647670 34978.64055152 0 610.43618852 0 15585.90451149 0 1074.82904122 0 -3059.86159647 0 3324
0.05750000 0.05747970 33766.15090114 0 313.50820942 0 15422.75300438 0 1220.32003543 0 -2077.79156269 0 3639
0.05850000 0.05849280 34356.09166681 0 169.32375821 0 15865.40267459 0 474.51356992 0 -561.11696305 0 3846
0.05950000 0.05951020 32710.82351151 0 779.48599416 0 13978.90098566 0 2592.04600039 0 1105.36199730 0 3787
0.06050000 0.06049470 33142.16016083 0 264.95760390 0 15411.21815956 0 1061.40869291 0 3371.47986593 0 3930
0.06150000 0.06148310 31421.80460219 0 637.83920882 0 12314.77779555 0 -114.33471286 0 650.75379854 0 4083
0.06250000 0.06249100 31607.58215108 0 608.00499815 0 13524.82738260 0 1445.89279896 0 1929.99027216 0 4303
0.06350000 0.06350600 29579.11314121 0 645.37678626 0 12806.22873233 0 -2190.10102299 0 -172.44593015 0 4470
0.06450000 0.06451750 30679.80352636 0 22.25914498 0 11883.66297017 0 392.10486747 0 -591.31607410 0 4479
0.06550000 0.06550280 29877.35542715 0 -107.52227787 0 12920.57897286 0 123.03464775 0 -3108.74050142 0 4636
0.06650000 0.06648880 29360.50564937 0 760.12409165 0 10865.45781674 0 -611.34455755 0 -4590.05858343 0 4653
0.06750000 0.06749660 28770.67579566 0 895.30692741 0 12384.43051239 0 -318.54583107 0 -5225.12942949 0 5220
0.06850000 0.06852730 27696.16063532 0 333.90935708 0 12319.65792221 0 798.29222771 0 -3379.77608124 0 5029
0.06950000 0.06949320 27360.43010369 0 369.31134862 0 10901.80366913 0 1299.62209360 0 -6173.30476540 0 5040
0.07050000 0.07048030 26920.66414470 0 312.46896426 0 11784.06402158 0 -9.47758307 0 -3220.22921314 0 5475
0.07150000 0.07148790 26436.97704578 0 655.76036485 0 10809.35854257 0 641.01683674 0 -4412.62161465 0 5509
0.07250000 0.07249820 25750.21013075 0 2.10620721 0 11204.88171694 0 1053.72914814 0 -2910.04170809 0 5916
0.07350000 0.07351270 25565.09805368 0 22.61550514 0 9872.00821489 0 630.84399090 0 -3445.94616224 0 5721
0.07450000 0.07449140 25382.09330404 0 523.24939843 0 10454.59551699 0 -609.10857224 0 -2693.36408451 0 6028
0.07550000 0.07549160 25415.14507094 0 412.09785909 0 8999.57466294 0 235.14890298 0 -3201.58491107 0 6183
0.07650000 0.07648840 23699.55872699 0 167.76544504 0 11133.12167269 0 -66.50636608 0 -5270.57006339 0 6330
0.07750000 0.07749960 24241.36369791 0 545.76452823 0 9518.76468328 0 -776.43924236 0 -4021.50164547 0 6583
0.07850000 0.07848650 24043.38583239 0 -100.23214503 0 11196.56331923 0 695.67203706 0 -4718.22845536 0 6549
0.07950000 0.07947320 23648.20648512 0 -262.15596755 0 7773.19883398 0 1903.19394033 0 -3142.06954825 0 6828
0.08050000 0.08048110 23651.31202027 0 48.96308714 0 8681.97823833 0 1300.55375415 0 -3353.90031876 0 7147
0.08150000 0.08149960 24074.21935990 0 123.97296301 0 6539.93537172 0 1335.31356538 0 -2867.89515969 0 7386
0.08250000 0.08250610 23276.31865145 0 203.32160422 0 7178.66631277 0 1222.50500122 0 -957.70711056 0 7227
0.08350000 0.08350160 23236.39034243 0 662.14556693 0 6654.29670345 0 -959.69687130 0 -9.25148902 0 7798
0.08450000 0.08449610 22029.00264265 0 649.94081381 0 7345.07863178 0 -175.03239728 0 1535.74258544 0 7371
0.08550000 0.08548940 21834.35213621 0 488.33541955 0 8668.69098438 0 -397.20127247 0 -144.38076539 0 8256
0.08650000 0.08650700 20871.30350520 0 473.00294889 0 8571.98683819 0 -465.19252800 0 1482.31628974 0 8037
0.08750000 0.08749060 20974.56254878 0 296.28912616 0 9858.07767152 0 435.21302265 0 756.47841521 0 8155
0.08850000 0.08849210 20766.93534191 0 -58.79332590 0 9361.20313944 0 368.55381987 0 1456.25197691 0 8718
0.08950000 0.08949900 20840.35906571 0 147.94658521 0 9164.62276473 0 465.62064820 0 1214.17551232 0 8571
0.09050000 0.09049190 20315.07997824 0 337.98315372 0 9238.50122760 0 -494.92137230 0 947.84703648 0 8932
0.09150000 0.09150830 20055.10232178 0 583.82840704 0 9730.55108901 0 -49.90705891 0 1108.09486822 0 9285
0.09250000 0.09250820 19561.54405758 0 49.60948209 0 9218.48161711 0 863.69701611 0 397.56617285 0 9204
0.09350000 0.09350330 19137.30577431 0 -86.13146270 0 9204.85053606 0 1263.98607781 0 1445.02768560 0 9349
0.09450000 0.09448040 19586.27742677 0 247.52556965 0 7904.00841079 0 432.65982911 0 164.55676176 0 9564
0.09550000 0.09549270 18369.35129762 0 487.94833678 0 7879.00885287 0 192.93691651 0 851.63423031 0 10155
0.09650000 0.09649430 18011.10563619 0 599.24184344 0 7351.53370840 0 331.50145823 0 707.92559145 0 9913
0.09750000 0.09749140 17077.33776512 0 140.38017065 0 7127.20315893 0 314.81475242 0 1423.74367865 0 10476
0.09850000 0.09850240 17163.96001328 0 125.66104318 0 6208.63022768 0 1366.94565908 0 563.38622194 0 10575
0.09950000 0.09950330 16975.07692925 0 2.77162357 0 6299.34512752 0 494.02853095 0 1531.84957531 0 10882
0.10050000 0.10051200 16582.00490941 0 298.31770608 0 5154.22340740 0 -143.23948123 0 1205.69074665 0 10875
0.10150000 0.10150300 16438.92846878 0 134.90888320 0 5723.24617563 0 907.71132208 0 2234.62108754 0 11118
0.10250000 0.10250800 16045.63462499 0 119.81598239 0 5032.85243919 0 -16.67594735 0 1991.67950958 0 11575
0.10350000 0.10349800 16307.83052085 0 39.51915476 0 6039.16782950 0 -401.62998741 0 2124.35240748 0 11364
0.10450000 0.10450100 16006.81543567 0 189.11710828 0 5497.64013851 0 -120.56352907 0 1618.42745868 0 12093
0.10550000 0.10551000 15852.98053400 0 255.58554247 0 6036.21757112 0 -379.71045488 0 1548.88565382 0 12067
0.10650000 0.10649700 15726.76271273 0 182.06421614 0 6550.71601515 0 -302.67211000 0 2016.02468688 0 12054
0.10750000 0.10749900 15846.43672780 0 173.01823591 0 7171.84522664 0 -119.14718322 0 842.38749941 0 12807
0.10850000 0.10850100 15346.66739332 0 130.53229688 0 6571.41218866 0 164.43919507 0 829.63705940 0 12736
0.10950000 0.10950300 15106.87571530 0 218.31357513 0 6522.92147560 0 369.41671499 0 928.71250350 0 12933
0.11050000 0.11050200 15306.07361249 0 -78.73662896 0 6000.30427540 0 812.12627766 0 852.24313702 0 13428
0.11150000 0.11150900 15192.27793180 0 -64.61243329 0 5709.45981782 0 957.36217434 0 1397.04716760 0 13453
0.11250000 0.11250000 15129.72358101 0 16.06537696 0 4482.29651388 0 813.51267728 0 866.54523549 0 13668
0.11350000 0.11349100 14788.89109879 0 111.28685194 0 4309.98367809 0 32.42234148 0 1478.34564123 0 13791
0.11450000 0.11448600 14622.63405654 0 487.18526243 0 4514.92681530 0 -634.73367367 0 970.16585210 0 14205
0.11550000 0.11549300 14254.51722983 0 122.47565142 0 4741.44233058 0 195.16513798 0 1076.69125319 0 14776
0.11650000 0.11649800 13933.64890211 0 197.99117496 0 4869.46801695 0 -391.33513840 0 400.15153086 0 14553
0.11750000 0.11747300 13890.61505795 0 262.98226172 0 4585.40028071 0 -200.90150504 0 160.59498621 0 14568
0.11850000 0.11849100 13393.95125861 0 192.54206990 0 5078.83654174 0 -246.48299714 0 183.74785984 0 16015
0.11950000 0.11950300 13557.10276572 0 30.48249113 0 5437.88076935 0 255.13080340 0 -215.79254606 0 15270
0.12050000 0.12050700 13485.56454540 0 5.34134299 0 4783.33378145 0 481.08732235 0 -0.48596523 0 15999
0.12150000 0.12150000 13530.92754092 0 52.11808902 0 5233.37018882 0 69.56953286 0 652.85225301 0 15670
0.12250000 0.12250700 13203.51540701 0 146.60344126 0 4928.34009035 0 391.81316899 0 1411.07753174 0 16887
0.12350000 0.12352200 13103.14007463 0 28.29087062 0 5008.81781541 0 688.86093302 0 1686.62722872 0 16407
0.12450000 0.12449800 13302.67070773 0 102.45848099 0 4698.26430086 0 284.21746740 0 2283.03416222 0 16306
0.12550000 0.12549900 13010.52858011 0 147.03267058 0 4839.33323484 0 269.02696406 0 2415.25232104 0 17523
0.12650000 0.12650100 12686.11106938 0 248.70456389 0 5078.50380583 0 -325.45342853 0 3001.23352940 0 17154
0.12750000 0.12750600 12677.90358364 0 182.66646814 0 5178.20257520 0 -159.58346905 0 2300.11460552 0 18007
0.12850000 0.12850300 12503.43905564 0 35.96719894 0 5143.68677030 0 -27.19173300 0 2064.22702882 0 17496
0.12950000 0.12949900 12520.07585106 0 -116.44314940 0 5166.41263285 0 146.33614342 0 1786.49236604 0 18405
0.13050000 0.13049000 12678.67996742 0 7.03580060 0 4366.13840824 0 191.97974622 0 1052.32389349 0 18100
0.13150000 0.13148800 12620.56209541 0 -9.70146997 0 4795.56737168 0 211.34719433 0 1173.84792021 0 19059
0.13250000 0.13249300 12500.33352049 0 204.14124367 0 4219.57933177 0 -33.41167625 0 487.42261404 0 18957
0.13350000 0.13349100 12223.27542073 0 290.30542540 0 4447.18178434 0 -289.22403370 0 338.73180952 0 19468
0.13450000 0.13450700 11842.84736540 0 223.93126638 0 4469.27544866 0 -255.74303747 0 -337.19346050 0 19953
0.13550000 0.13551000 11648.75141881 0 142.63168363 0 4481.49794770 0 202.59623994 0 -37.77018391 0 19956
0.13650000 0.13649900 11380.23354069 0 106.04149217 0 4470.40675075 0 314.60069232 0 -198.93503582 0 19723
0.13750000 0.13749600 11317.45736597 0 134.37872399 0 4140.22181761 0 32.51384385 0 -347.14337328 0 20946
0.13850000 0.13851100 11165.17523187 0 226.99354586 0 4147.08726852 0 317.00304558 0 -144.08573955 0 20955
0.13950000 0.13949800 10853.43495924 0 67.30049579 0 3468.15073853 0 515.44119577 0 424.55660062 0 20506
0.14050000 0.14048300 10620.90801522 0 62.19111409 0 3748.36982942 0 308.46282393 0 425.17770765 0 21447
0.14150000 0.14148400 10715.26082766 0 47.45279885 0 3286.89839800 0 386.98517096 0 546.83150138 0 21771
0.14250000 0.14249400 10582.41047062 0 38.93775421 0 3016.48392521 0 108.29855075 0 602.34405122 0 22470
0.14350000 0.14350900 10542.20488168 0 98.71098737 0 2942.35036480 0 116.70379253 0 870.09663675 0 22519
0.14450000 0.14449900 10386.42902054 0 55.75711074 0 3051.59865474 0 -86.43879977 0 323.72320181 0 22218
0.14550000 0.14550500 10383.07947906 0 120.71880582 0 3292.35526690 0 -363.34761202 0 732.25302284 0 23559
0.14650000 0.14650700 10487.49200713 0 -54.69723596 0 3132.27602134 0 60.06215883 0 -207.10370237 0 23044
0.14750000 0.14750500 10275.31740951 0 32.15171627 0 3461.41838198 0 124.23582438 0 409.60123066 0 23649
0.14850000 0.14849900 10432.36875830 0 174.70742521 0 3269.29666844 0 21.00251237 0 114.11732540 0 23640
0.14950000 0.14949500 10279.19932845 0 18.87089522 0 3313.82782419 0 281.60438140 0 474.93170804 0 24457
0.15050000 0.15050000 10109.09364085 0 96.94149781 0 3352.48064555 0 62.10260634 0 476.87710399 0 24591
0.15150000 0.15149900 10179.84438618 0 10.27955425 0 3121.07391243 0 295.13896903 0 863.66263340 0 25020
0.15250000 0.15250500 10000.94337941 0 130.11526788 0 2820.33610718 0 497.19395856 0 749.28799223 0 25297
0.15350000 0.15350100 9822.56365889 0 110.38879772 0 2786.16412938 0 -21.34667221 0 1008.93180367 0 25452
0.15450000 0.15450400 9593.25316199 0 195.08084488 0 2380.34832424 0 297.18973135 0 928.91769065 0 26061
0.15550000 0.15549900 9456.39888284 0 169.18511825 0 2920.86671631 0 161.84052763 0 1664.60011158 0 26128
0.15650000 0.15649500 9151.46860514 0 52.46624169 0 2114.58106297 0 -9.92185205 0 1408.29364130 0 26331
0.15750000 0.15749700 9361.11440986 0 83.95814266 0 2704.77692617 0 65.54642299 0 1342.74466734 0 27345
0.15850000 0.15849900 8979.11140457 0 114.00974079 0 2303.46414699 0 -70.47169082 0 1386.48834810 0 26980
0.15950000 0.15949700 8899.12169218 0 259.22123683 0 3125.66566796 0 -382.32243176 0 1437.23057414 0 27777
0.16050000 0.16050000 8782.39793550 0 87.15118735 0 3105.50187191 0 -245.30178466 0 1190.88399872 0 28224
0.16150000 0.16150500 8775.36611663 0 38.42523000 0 3230.01164885 0 -5.74431945 0 748.01472282 0 28075
0.16250000 0.16249700 8676.23299831 0 29.93181320 0 3370.29310785 0 -78.33435125 0 589.56477410 0 28590
0.16350000 0.16349900 8625.30222192 0 119.41891754 0 3254.53428530 0 -110.82745456 0 509.54733372 0 29163
0.16450000 0.16449100 8641.91683495 0 139.58160447 0 3714.44185796 0 -101.01318712 0 381.61924988 0 28996
0.16550000 0.16550500 8359.52386945 0 93.30868716 0 3247.77974636 0 101.92111250 0 265.07849794 0 30777
0.16650000 0.16650700 8259.15962827 0 47.28343627 0 3359.60119400 0 277.75462693 0 108.63084301 0 29211
0.16750000 0.16749900 8339.67062691 0 -72.59964786 0 2835.85269171 0 261.99958167 0 314.96448358 0 30922
0.16850000 0.16850800 8304.82208610 0 62.71949871 0 2764.95776081 0 145.31242594 0 159.28289761 0 30867
0.16950000 0.16949900 8163.76424331 0 36.80380792 0 2501.34219175 0 161.86936474 0 337.64487222 0 30852
0.17050000 0.17049200 8160.98035288 0 68.95330596 0 2434.04080867 0 188.18877510 0 224.42149729 0 31257
0.17150000 0.17149500 8093.97843212 0 87.89485210 0 2363.78916720 0 -7.57476623 0 202.15481030 0 32608
0.17250000 0.17250900 7983.67647847 0 22.05362510 0 2301.50100513 0 346.16623883 0 569.08931541 0 32361
0.17350000 0.17350400 7942.55032018 0 -89.99075559 0 2292.32858526 0 264.49842834 0 254.08934001 0 32508
0.17450000 0.17449800 8118.62307174 0 61.65030732 0 2170.02595651 0 -170.12343351 0 630.55451066 0 32791
0.17550000 0.17549800 8059.31844165 0 57.05222981 0 2141.61030993 0 -32.27116846 0 73.41185622 0 33633
0.17650000 0.17650100 7900.32613340 0 197.04620498 0 2401.68778717 0 -289.62109855 0 460.99007348 0 33984
0.17750000 0.17750300 7803.71071678 0 103.02768122 0 2362.59131793 0 -226.82385055 0 7.08019867 0 34069
0.17850000 0.17849800 7712.46343949 0 83.96757018 0 2577.86035949 0 -15.31417019 0 34.64579373 0 34536
