### header ###
fiducial parameters:
Omega_m = 0.31
Omega_nu = 0
Omega_de = 0.69
Omega_k = 0
H_0 = 100
w_de = -1
zeff = 0
beta = 0
fgrowth = 0
b_1 = 2
gamma = 0.55
Lx = 3500 Ly = 3500 Lz = 3500
nx = 700 ny = 700 nz = 700
xoffset = 1379.75464 yoffset = 22.6059522 zoffset = 368.141391
bins = 400 dk = 0.001
kx_ny = 0.628318531 ky_ny = 0.628318531 kz_ny = 0.628318531
############################
A(data) = 3.33869128 (not used)
A(ran) = 3.33824872 (used)
Ngal = 187574
weighted Ngal = 0
Nran = 9399747
weighted Nran = 0
SN(data) = 6670.50543
SN(ran) = 132.780121
SN(data+ran) = 6803.28555
############################
13 columns: k_central k_mean P_0(k) sigma^{lin}_{P_0(k)} P^img_1(k) sigma^{lin}_{P_1(k)} P_2(k) sigma^{lin}_{P_2(k)} P^img_3(k) sigma^{lin}_{P_3(k)} P_4(k) sigma^{lin}_{P_4(k)} N_modes
### header ###
0.00050000 0 0 0 0 0 0 0 0 0 0 0 0
0.00150000 0.00179520 -4748.32996388 0 -1908.14061417 0 -5626.53093824 0 6128.86233922 0 2671.32587618 0 3
0.00250000 0.00253879 10241.82199473 0 -15244.29564548 0 14893.59199798 0 -9047.82136966 0 18223.94570562 0 6
0.00350000 0.00331552 30565.23146188 0 -25486.90511520 0 15590.67372618 0 -36576.54929585 0 -46788.21432608 0 7
0.00450000 0.00420575 73590.64631130 0 -20773.36823614 0 58401.47391465 0 -32668.67696311 0 -6046.86512019 0 24
0.00550000 0.00557378 96720.67207501 0 8358.40365856 0 89256.51835279 0 -36225.06926456 0 35860.72344481 0 45
0.00650000 0.00659388 126037.03476052 0 21711.90532190 0 172200.81469841 0 27731.87428949 0 25410.59768019 0 40
0.00750000 0.00754703 97286.65585527 0 7781.84996760 0 140273.69516326 0 54145.44890971 0 12967.05108808 0 57
0.00850000 0.00846663 120746.53381621 0 3027.15365667 0 173692.58068795 0 83193.73736498 0 39605.66609438 0 75
0.00950000 0.00948925 119224.82159492 0 -4085.71967580 0 139323.17958479 0 68597.16762128 0 92576.88998318 0 112
0.01050000 0.01054430 108985.20674838 0 5471.38727533 0 98687.58494180 0 56826.74577194 0 57194.08621487 0 105
0.01150000 0.01145670 122398.01304181 0 1616.32013126 0 92396.10347292 0 50374.99650716 0 106806.45201987 0 144
0.01250000 0.01249090 111270.21514365 0 -1345.32891623 0 60253.59289304 0 43855.25820509 0 69862.78410504 0 169
0.01350000 0.01339930 108083.38152452 0 6382.42928385 0 53189.83138065 0 28475.31722093 0 82658.14346435 0 180
0.01450000 0.01448870 103154.12086482 0 9573.07827474 0 29291.07475647 0 12618.67659193 0 71000.74091192 0 267
0.01550000 0.01550050 77284.01489506 0 2675.60707820 0 46144.25943126 0 -2422.36177828 0 30469.18169631 0 238
0.01650000 0.01653350 81460.18328198 0 12509.65012593 0 37809.11401270 0 -833.81844065 0 44788.91516419 0 315
0.01750000 0.01747870 69264.30311771 0 1377.38247541 0 51789.23503003 0 -1284.33842421 0 26877.74121251 0 297
0.01850000 0.01844180 67275.65150489 0 2016.92307384 0 50813.09878662 0 12524.73415378 0 34506.48829743 0 388
0.01950000 0.01947590 76001.98343982 0 -6307.77443720 0 29757.68141208 0 23824.33469266 0 21665.87685457 0 399
0.02050000 0.02045430 83441.40379284 0 -8918.13200375 0 24142.20839720 0 15653.33898893 0 31398.18035269 0 462
0.02150000 0.02154770 90745.06789521 0 -1632.48000522 0 14966.79389784 0 9669.28331707 0 20257.62757805 0 571
0.02250000 0.02255340 90602.43510246 0 824.28777511 0 16628.69884856 0 -4783.53342300 0 33267.60159832 0 510
0.02350000 0.02348930 87969.71768286 0 3394.03936052 0 17383.67662483 0 343.78939533 0 17535.40419908 0 555
0.02450000 0.02439640 84188.95046715 0 3876.91680205 0 10762.54260025 0 -4253.92876872 0 8380.51950527 0 592
0.02550000 0.02547300 77720.56440694 0 5185.96641307 0 22238.18261709 0 -1081.31739143 0 7713.72783594 0 837
0.02650000 0.02652900 69239.90248443 0 5801.01764863 0 33089.36606336 0 -8054.39395021 0 1080.18498022 0 723
0.02750000 0.02749970 63415.58223100 0 6361.66656317 0 32450.73494308 0 -6871.56216047 0 4649.20793676 0 826
0.02850000 0.02848090 59494.62228587 0 2730.51959429 0 32961.92821042 0 370.80866021 0 -13090.05246223 0 831
0.02950000 0.02946900 53983.73925821 0 670.34307059 0 29160.86410430 0 3308.22676973 0 -2789.38057649 0 996
0.03050000 0.03053250 55175.15563438 0 -427.93830657 0 28744.27874692 0 8098.28181653 0 -5927.08019315 0 1041
0.03150000 0.03150510 55588.96819252 0 1431.03059505 0 32525.37869854 0 2501.32000935 0 -2778.36701792 0 1036
0.03250000 0.03246190 57338.16086323 0 -1050.79552655 0 22030.66632219 0 4623.19907991 0 404.14658000 0 1059
0.03350000 0.03345080 53120.73322366 0 45.25563273 0 26694.40372695 0 2818.21768856 0 733.34661486 0 1302
0.03450000 0.03451200 54573.45819994 0 1481.79500348 0 21821.92999563 0 -2.70209286 0 184.96234591 0 1339
0.03550000 0.03553350 54050.17552793 0 1355.02262236 0 27483.98603770 0 -3391.75457395 0 -3721.90623351 0 1365
0.03650000 0.03647120 52832.25119104 0 1944.78592889 0 29210.66357859 0 -1797.28410067 0 -5095.10732767 0 1308
0.03750000 0.03744890 48257.79792172 0 3658.05421267 0 30828.53647743 0 -3399.69587096 0 -4482.20778431 0 1579
0.03850000 0.03847530 45300.10843153 0 1022.15805603 0 30558.46583174 0 2581.54263688 0 -6481.48476380 0 1662
0.03950000 0.03950240 45377.74681017 0 -739.02198034 0 27760.48957761 0 6675.53634561 0 -8547.65275209 0 1683
0.04050000 0.04050350 45676.98730383 0 -206.55136077 0 24787.05058777 0 4953.39510426 0 -10065.13922735 0 1822
0.04150000 0.04152450 42976.94631876 0 722.06243108 0 15140.48204205 0 5237.57375247 0 -2571.22782372 0 1887
0.04250000 0.04250150 41495.71696632 0 1201.63136857 0 16268.34585971 0 2798.36444602 0 -4943.36866222 0 1920
0.04350000 0.04349210 41334.11822679 0 243.44733653 0 8307.27324063 0 1355.58827341 0 -2942.81619507 0 2005
0.04450000 0.04448520 41050.18358491 0 -201.16769377 0 8399.81818796 0 4701.96876064 0 -4457.77387743 0 2151
0.04550000 0.04548030 39550.87558145 0 -10.15545484 0 4919.35622082 0 -438.10671593 0 -4068.53941173 0 2274
0.04650000 0.04648670 39483.55201598 0 99.99035694 0 5491.10742350 0 -1344.91854194 0 -4152.72159657 0 2311
0.04750000 0.04749250 40599.43734094 0 1196.18559087 0 4628.81122557 0 -1576.11454233 0 -4523.00120668 0 2568
0.04850000 0.04851840 37860.24443064 0 222.46833751 0 5844.43968468 0 -1468.58538791 0 -5394.79146921 0 2493
0.04950000 0.04949480 38586.27418287 0 291.79719139 0 8204.19165619 0 3363.54966011 0 -4667.16458462 0 2644
0.05050000 0.05050630 38927.99396084 0 373.29530657 0 9363.56556439 0 -1018.16966161 0 -3572.95145849 0 2829
0.05150000 0.05149060 37381.77019429 0 888.08433996 0 7734.27982389 0 -296.26472552 0 -2848.86266573 0 2784
0.05250000 0.05249300 36695.66875107 0 1380.44364577 0 11706.64746688 0 -231.91249171 0 -492.98152195 0 3055
0.05350000 0.05348950 33798.42628426 0 1310.87965851 0 11587.52801166 0 -2532.23117525 0 -891.69230633 0 3009
0.05450000 0.05448610 33308.19537915 0 1086.51583544 0 14165.78765424 0 1096.76188318 0 2488.80913920 0 3336
0.05550000 0.05550870 31953.07293601 0 -357.41271254 0 11559.68910732 0 3733.65181107 0 358.86676846 0 3349
0.05650000 0.05647670 33261.27961606 0 -178.03700253 0 10100.44250723 0 763.43925042 0 872.88274542 0 3324
0.05750000 0.05747970 33085.70596836 0 129.25459100 0 9820.66706421 0 1411.85391552 0 634.43532047 0 3639
0.05850000 0.05849280 32114.67167555 0 504.21690446 0 9156.34873180 0 -744.93469743 0 23.65064655 0 3846
0.05950000 0.05951020 32225.47273306 0 230.42627132 0 8218.85421856 0 -602.93964850 0 634.95217025 0 3787
0.06050000 0.06049470 32261.29729920 0 -403.07406125 0 7339.86576921 0 1873.70244764 0 -1847.51613165 0 3930
0.06150000 0.06148310 32463.48981957 0 -1019.40300271 0 6231.27845184 0 3564.75506395 0 735.96524646 0 4083
0.06250000 0.06249100 32317.30784379 0 37.90871296 0 5225.21815906 0 274.21875335 0 377.94917281 0 4303
0.06350000 0.06350600 32614.55192200 0 504.51636678 0 3321.74693881 0 778.86266889 0 -1135.05091329 0 4470
0.06450000 0.06451750 31801.12353782 0 1079.02373190 0 4449.65512126 0 -1313.28644825 0 575.83941788 0 4479
0.06550000 0.06550280 30516.65201925 0 667.67009213 0 4336.51382119 0 -1212.35655602 0 -434.13163095 0 4636
0.06650000 0.06648880 29216.20917707 0 713.07967067 0 5340.48896895 0 -358.43088442 0 -319.35216109 0 4653
0.06750000 0.06749660 28953.45872137 0 384.93995424 0 4318.00261349 0 465.60068405 0 -1708.04433003 0 5220
0.06850000 0.06852730 28590.99840510 0 -36.78950028 0 6668.51561794 0 795.15009161 0 -106.87288829 0 5029
0.06950000 0.06949320 28678.06430114 0 386.72896431 0 4760.31954778 0 -581.98615922 0 -2216.46479813 0 5040
0.07050000 0.07048030 27939.83423227 0 319.79026337 0 6567.38608416 0 -489.63087136 0 -131.62034330 0 5475
0.07150000 0.07148790 28171.75116045 0 497.91044988 0 7353.62994463 0 -2332.48980941 0 -1619.62530796 0 5509
0.07250000 0.07249820 27702.81535348 0 457.95552199 0 7961.51626696 0 -1365.01579081 0 -2138.54913957 0 5916
0.07350000 0.07351270 26915.45128213 0 613.10140314 0 12037.05422397 0 -1210.87033563 0 -3254.72283565 0 5721
0.07450000 0.07449140 26810.52855900 0 517.70823643 0 10321.33478565 0 -973.95127761 0 -4141.89658834 0 6028
0.07550000 0.07549160 27019.81944541 0 -153.89035766 0 12134.21310923 0 1544.49353983 0 -2334.97423752 0 6183
0.07650000 0.07648840 26965.25075643 0 -528.94029158 0 10306.70549688 0 2051.78270585 0 -2516.13784848 0 6330
0.07750000 0.07749960 27284.56631657 0 -54.96331377 0 9911.63706158 0 1140.39687022 0 -1538.19373996 0 6583
0.07850000 0.07848650 26866.42819162 0 817.26039273 0 8652.18728332 0 -122.92928138 0 -2597.61378126 0 6549
0.07950000 0.07947320 25650.16753428 0 701.01466663 0 9620.00512903 0 -801.37779870 0 -1504.85360193 0 6828
0.08050000 0.08048110 25554.56141658 0 232.56798145 0 9677.40207323 0 187.07300069 0 -1460.66627329 0 7147
0.08150000 0.08149960 25009.20726264 0 -55.69000900 0 8736.90184561 0 540.96093083 0 -3289.28300534 0 7386
0.08250000 0.08250610 24598.72206358 0 515.63640084 0 8948.43315381 0 -544.19068738 0 -3477.38970559 0 7227
0.08350000 0.08350160 23665.17601645 0 675.46498534 0 8112.06817434 0 143.55003474 0 -3943.08688305 0 7798
0.08450000 0.08449610 22982.29102035 0 343.20488925 0 8351.76003159 0 1026.72097445 0 -2310.79542818 0 7371
0.08550000 0.08548940 22593.65547929 0 764.35427417 0 8203.25999565 0 557.70974734 0 -4450.53132582 0 8256
0.08650000 0.08650700 21622.17753859 0 757.17605150 0 8718.15772277 0 -406.42914833 0 -1552.82302874 0 8037
0.08750000 0.08749060 20402.03496232 0 485.70902412 0 8694.40037891 0 421.58970544 0 -2537.47731141 0 8155
0.08850000 0.08849210 20075.95377204 0 397.96101946 0 9202.02228083 0 201.92522252 0 1159.27408742 0 8718
0.08950000 0.08949900 19952.06510213 0 -16.39578371 0 8257.93959660 0 672.60456565 0 -797.28292879 0 8571
0.09050000 0.09049190 20259.40216956 0 -218.36126728 0 8473.71883323 0 1340.71497830 0 1214.36406266 0 8932
0.09150000 0.09150830 20116.54755287 0 -226.49333288 0 8148.42511794 0 690.22736848 0 1559.71066204 0 9285
0.09250000 0.09250820 20383.73448735 0 350.74690317 0 6577.90053887 0 533.42335339 0 1500.58349111 0 9204
0.09350000 0.09350330 19734.01217013 0 400.42770166 0 7805.82913540 0 -404.76103231 0 1505.10869946 0 9349
0.09450000 0.09448040 19422.23862391 0 546.84148345 0 8405.79634312 0 -26.56330578 0 2562.89833481 0 9564
0.09550000 0.09549270 18611.91577487 0 342.73684073 0 8180.05721163 0 516.57249786 0 2474.26858000 0 10155
0.09650000 0.09649430 18336.85409056 0 610.11676204 0 8038.61117695 0 264.39638933 0 2225.39321168 0 9913
0.09750000 0.09749140 17364.82159002 0 420.07797529 0 8473.66337725 0 -304.49550278 0 2334.04257698 0 10476
0.09850000 0.09850240 16702.67713221 0 340.42543529 0 8312.51937678 0 424.31148517 0 1734.66320270 0 10575
0.09950000 0.09950330 16613.61482071 0 271.55575696 0 8292.47758390 0 -28.79618555 0 2210.06517749 0 10882
0.10050000 0.10051200 16057.83494164 0 73.87635554 0 7672.72368083 0 36.65585135 0 866.06387754 0 10875
0.10150000 0.10150300 16178.95081231 0 -188.42612671 0 7254.51900870 0 971.98813575 0 1285.93555657 0 11118
0.10250000 0.10250800 16638.68092582 0 -518.67760704 0 5989.70109112 0 853.81586875 0 1104.23513169 0 11575
0.10350000 0.10349800 16945.46343340 0 -7.23554197 0 5681.77619024 0 381.86880181 0 -770.06624059 0 11364
0.10450000 0.10450100 17063.25194499 0 116.52855162 0 4685.74233950 0 -556.67161131 0 -912.31638705 0 12093
0.10550000 0.10551000 16934.92679630 0 308.13563362 0 5549.46930185 0 -516.67564600 0 -1095.00503759 0 12067
0.10650000 0.10649700 16516.56684742 0 144.03804741 0 5701.44088243 0 -225.40417734 0 -1508.48042334 0 12054
0.10750000 0.10749900 16185.27279457 0 287.46718810 0 6057.19102455 0 -313.29082196 0 -2245.25754541 0 12807
0.10850000 0.10850100 15737.18843786 0 459.55598171 0 6230.72389200 0 -405.28675504 0 -1849.26854077 0 12736
0.10950000 0.10950300 15476.21257367 0 289.58227936 0 6809.85074065 0 615.95073164 0 -1621.55517622 0 12933
0.11050000 0.11050200 15022.91535440 0 155.22019217 0 6823.22672417 0 535.07594173 0 -1294.03213034 0 13428
0.11150000 0.11150900 14951.15531014 0 231.75277847 0 6283.29616553 0 12.46628355 0 -562.02644120 0 13453
0.11250000 0.11250000 14555.08866712 0 306.75145224 0 6534.16794930 0 170.93309089 0 -901.46143260 0 13668
0.11350000 0.11349100 14294.66736278 0 -4.47019602 0 5871.20274292 0 171.56972559 0 525.62735105 0 13791
0.11450000 0.11448600 14395.37543107 0 -138.11867560 0 6396.23782406 0 1060.69331071 0 182.36811494 0 14205
0.11550000 0.11549300 14801.97871119 0 -347.90090203 0 4680.50729454 0 1221.14078400 0 766.09559209 0 14776
0.11650000 0.11649800 15056.63259312 0 -195.92377585 0 4144.60284040 0 628.53924018 0 194.24124127 0 14553
0.11750000 0.11747300 14968.23575344 0 249.28906997 0 4492.52259747 0 -286.29706682 0 1209.25102087 0 14568
0.11850000 0.11849100 14666.44428448 0 488.93212595 0 4439.11848416 0 -828.03438144 0 386.72785519 0 16015
0.11950000 0.11950300 14024.59671709 0 463.78505511 0 5270.45915142 0 -427.97823488 0 74.43213542 0 15270
0.12050000 0.12050700 13803.77098585 0 111.89243129 0 5127.11652206 0 -25.37022572 0 169.07309716 0 15999
0.12150000 0.12150000 13391.84393119 0 94.54380285 0 5439.89936719 0 679.17942720 0 90.34911216 0 15670
0.12250000 0.12250700 13576.06871250 0 18.96029027 0 4831.56939698 0 314.56630961 0 55.71651696 0 16887
0.12350000 0.12352200 13341.48989705 0 -41.56148776 0 4669.53810076 0 492.03877021 0 134.03489688 0 16407
0.12450000 0.12449800 13147.72668636 0 395.65626873 0 4607.54940102 0 118.96417847 0 876.95986942 0 16306
0.12550000 0.12549900 13036.59289294 0 127.32139537 0 4232.30093467 0 45.00275344 0 916.78724854 0 17523
0.12650000 0.12650100 12809.66700338 0 -62.96672149 0 4697.22172834 0 582.83241755 0 1082.25681581 0 17154
0.12750000 0.12750600 12699.53141768 0 143.23282651 0 4113.70276570 0 81.03738685 0 887.55418075 0 18007
0.12850000 0.12850300 12520.18676303 0 153.41898179 0 3895.72747208 0 20.97478437 0 1057.08423522 0 17496
0.12950000 0.12949900 12649.73194339 0 13.29612690 0 4089.11358207 0 347.87982876 0 1536.39696606 0 18405
0.13050000 0.13049000 12464.39804238 0 -88.22503704 0 3457.41445988 0 579.84777645 0 817.15613548 0 18100
0.13150000 0.13148800 12489.79688339 0 138.05101929 0 3608.02182324 0 95.13574003 0 1605.39530227 0 19059
0.13250000 0.13249300 12211.40783999 0 261.04906609 0 3194.67509538 0 -374.88356597 0 649.11784699 0 18957
0.13350000 0.13349100 12022.30293203 0 145.40004639 0 3482.13673788 0 20.71868864 0 1099.78645259 0 19468
0.13450000 0.13450700 11995.68405935 0 -46.52990035 0 3568.45952373 0 69.82662680 0 381.47284608 0 19953
0.13550000 0.13551000 12260.20910657 0 -89.68330761 0 3072.16173389 0 157.85767880 0 216.93604847 0 19956
0.13650000 0.13649900 12000.56418601 0 12.16748670 0 3099.37953120 0 11.74890493 0 -398.90266208 0 19723
0.13750000 0.13749600 12297.25370437 0 27.55130960 0 2619.98472550 0 -80.73825727 0 -280.35662174 0 20946
0.13850000 0.13851100 11905.73445210 0 173.06814630 0 3135.39264769 0 -10.80948055 0 -380.68758933 0 20955
0.13950000 0.13949800 11951.76291944 0 368.93646617 0 2644.77355068 0 -136.47717845 0 -820.09086619 0 20506
0.14050000 0.14048300 11330.32315443 0 155.65053061 0 3355.59727190 0 -112.88952990 0 -148.07302486 0 21447
0.14150000 0.14148400 11113.82299000 0 132.38674501 0 3048.90349388 0 353.86352951 0 -282.94641623 0 21771
0.14250000 0.14249400 11276.64176120 0 52.86397201 0 3227.29430560 0 602.46383615 0 187.67968916 0 22470
0.14350000 0.14350900 11051.44609836 0 34.03400331 0 2592.47855707 0 55.22928068 0 330.29695424 0 22519
0.14450000 0.14449900 11048.76202870 0 87.19621761 0 2965.64187839 0 -1.72982744 0 715.21805345 0 22218
0.14550000 0.14550500 10861.99736329 0 181.88897523 0 2816.13254353 0 -227.74331078 0 590.98333819 0 23559
0.14650000 0.14650700 10791.20225317 0 169.13520786 0 3321.05928460 0 -354.42474408 0 175.41393445 0 23044
0.14750000 0.14750500 10426.30187357 0 262.93235133 0 3851.35159309 0 -315.62108244 0 318.10218319 0 23649
0.14850000 0.14849900 10471.58723071 0 76.98599443 0 3778.23842281 0 269.92424189 0 414.13753021 0 23640
0.14950000 0.14949500 10255.44198458 0 -15.48941110 0 3853.08181981 0 161.48228197 0 476.36025421 0 24457
0.15050000 0.15050000 10220.52689659 0 173.58832344 0 3507.70194684 0 376.14463506 0 752.42569185 0 24591
0.15150000 0.15149900 10068.44440404 0 17.51666008 0 3266.35750125 0 453.12752396 0 793.89678636 0 25020
0.15250000 0.15250500 9931.94504319 0 155.80137089 0 3215.09398896 0 -17.57832713 0 826.43613996 0 25297
0.15350000 0.15350100 9693.72831514 0 346.72079868 0 3337.10824658 0 -450.63311377 0 662.33522640 0 25452
0.15450000 0.15450400 9367.89113120 0 195.07197193 0 3425.07252958 0 -4.39970037 0 691.84779236 0 26061
0.15550000 0.15549900 9197.81871719 0 -88.29646434 0 3292.05580458 0 226.83383263 0 778.59204369 0 26128
0.15650000 0.15649500 9332.41039216 0 -74.75655293 0 2938.71245220 0 662.12560277 0 775.72164192 0 26331
0.15750000 0.15749700 9452.62787588 0 -32.04235707 0 2794.19415597 0 369.69732228 0 643.48240982 0 27345
0.15850000 0.15849900 9351.06578543 0 96.94282875 0 2579.06929996 0 107.38563432 0 1064.95676681 0 26980
0.15950000 0.15949700 9315.24121928 0 79.99492525 0 2454.77025576 0 -40.57015658 0 1040.06368438 0 27777
0.16050000 0.16050000 9021.65723606 0 167.99836017 0 2737.24085964 0 -192.47663184 0 1156.02436672 0 28224
0.16150000 0.16150500 8979.77687639 0 162.50932681 0 2849.18431044 0 -244.19377409 0 693.59243764 0 28075
0.16250000 0.16249700 8818.16704565 0 31.44997624 0 2837.73819519 0 212.10139572 0 724.51247649 0 28590
0.16350000 0.16349900 8697.41718448 0 41.63968070 0 2630.57681859 0 248.54485065 0 767.23465801 0 29163
0.16450000 0.16449100 8807.77459411 0 39.50761991 0 2352.70906144 0 317.24816103 0 968.28700333 0 28996
0.16550000 0.16550500 8522.36482304 0 69.14396363 0 2087.57399840 0 239.61310975 0 890.67968005 0 30777
0.16650000 0.16650700 8640.98517441 0 25.14939999 0 2131.09585522 0 383.15427153 0 1297.49258379 0 29211
0.16750000 0.16749900 8556.09315296 0 -60.58111594 0 1707.85577968 0 261.55593379 0 1411.45463243 0 30922
0.16850000 0.16850800 8593.75885780 0 58.96590493 0 1574.16249166 0 16.73084877 0 1265.67193975 0 30867
0.16950000 0.16949900 8468.39505869 0 105.37934771 0 1700.33594815 0 -61.32500252 0 1383.05007705 0 30852
0.17050000 0.17049200 8399.24144572 0 119.84260126 0 1823.08222477 0 -359.83613907 0 1400.54089464 0 31257
0.17150000 0.17149500 8359.87878775 0 140.58313956 0 2014.27227777 0 -94.28759620 0 1038.28243815 0 32608
0.17250000 0.17250900 8316.50111649 0 104.95333483 0 2416.18398158 0 -324.27554341 0 819.55294314 0 32361
0.17350000 0.17350400 8157.39789627 0 53.85164310 0 2545.38533483 0 -165.24552509 0 915.16016995 0 32508
0.17450000 0.17449800 8100.34477916 0 158.52869622 0 2958.09986447 0 -202.36887040 0 548.34766800 0 32791
0.17550000 0.17549800 8066.94918515 0 94.62998145 0 2789.13657016 0 -168.86014618 0 305.61238631 0 33633
0.17650000 0.17650100 7998.60522956 0 63.81187070 0 3050.65590300 0 134.26337554 0 786.58879669 0 33984
0.17750000 0.17750300 7726.89308672 0 163.69941224 0 3066.80468576 0 141.44603468 0 615.40615387 0 34069
0.17850000 0.17849800 7704.77724001 0 74.28684074 0 2983.48761428 0 203.39147876 0 1089.80659358 0 34536
