### header ###
fiducial parameters:
Omega_m = 0.31
Omega_nu = 0
Omega_de = 0.69
Omega_k = 0
H_0 = 100
w_de = -1
zeff = 0
beta = 0
fgrowth = 0
b_1 = 2
gamma = 0.55
Lx = 3500 Ly = 3500 Lz = 3500
nx = 700 ny = 700 nz = 700
xoffset = 1379.75464 yoffset = 22.6059522 zoffset = 368.141391
bins = 400 dk = 0.001
kx_ny = 0.628318531 ky_ny = 0.628318531 kz_ny = 0.628318531
############################
A(data) = 3.36618122 (not used)
A(ran) = 3.3711055 (used)
Ngal = 189024
weighted Ngal = 0
Nran = 9399747
weighted Nran = 0
SN(data) = 6553.64366
SN(ran) = 134.087012
SN(data+ran) = 6687.73068
############################
13 columns: k_central k_mean P_0(k) sigma^{lin}_{P_0(k)} P^img_1(k) sigma^{lin}_{P_1(k)} P_2(k) sigma^{lin}_{P_2(k)} P^img_3(k) sigma^{lin}_{P_3(k)} P_4(k) sigma^{lin}_{P_4(k)} N_modes
### header ###
0.00050000 0 0 0 0 0 0 0 0 0 0 0 0
0.00150000 0.00179520 144632.53556391 0 -107928.10476725 0 -137246.90751609 0 183549.32741583 0 177704.26662412 0 3
0.00250000 0.00253879 190053.20530627 0 -77333.48163345 0 -12991.00807348 0 -184656.22887126 0 -75571.20135035 0 6
0.00350000 0.00331552 221589.91470884 0 -2217.39645868 0 -102109.21920033 0 -81244.23767739 0 80776.85463800 0 7
0.00450000 0.00420575 214702.28140400 0 36838.85610367 0 -31853.14125151 0 -107989.43908637 0 2113.63831123 0 24
0.00550000 0.00557378 141927.39262824 0 39671.76962819 0 23443.24116552 0 -31235.80522937 0 22238.84808891 0 45
0.00650000 0.00659388 105098.85133772 0 12519.29946728 0 56396.07459444 0 37163.16270244 0 -40380.71893712 0 40
0.00750000 0.00754703 102213.80918755 0 -13086.94692709 0 36760.66316519 0 35905.19914457 0 -9759.75421057 0 57
0.00850000 0.00846663 100020.63590301 0 1148.17179928 0 -5541.01780977 0 10178.34707460 0 -36433.47285522 0 75
0.00950000 0.00948925 106170.81552277 0 9442.75671060 0 -2187.45022692 0 -28113.63328845 0 -24103.38920788 0 112
0.01050000 0.01054430 80854.49301663 0 13736.89106825 0 29884.78652911 0 -24482.48631957 0 -30428.03335563 0 105
0.01150000 0.01145670 68966.94812753 0 13532.03666062 0 18317.99905575 0 -60.80282897 0 -9336.49195264 0 144
0.01250000 0.01249090 65598.66252632 0 -6641.87456287 0 21890.91724065 0 24958.74231652 0 -22453.13001395 0 169
0.01350000 0.01339930 70505.18623228 0 -12024.85390732 0 -5619.62112254 0 32736.22235253 0 -7075.64018432 0 180
0.01450000 0.01448870 76822.06654217 0 -3308.02712819 0 -21872.83858962 0 9021.28013537 0 -118.27430602 0 267
0.01550000 0.01550050 79252.25870549 0 -798.44084975 0 -22772.44557409 0 -2222.39858850 0 -3806.58752221 0 238
0.01650000 0.01653350 77800.42102497 0 -300.26421114 0 -30681.24538196 0 -3410.76488552 0 4660.58750482 0 315
0.01750000 0.01747870 76850.01635848 0 1553.26667661 0 -26119.32516519 0 -14514.71671023 0 -365.86198637 0 297
0.01850000 0.01844180 72436.71818081 0 2299.70423123 0 -14659.23500647 0 -17225.84889225 0 -7385.39513269 0 388
0.01950000 0.01947590 71891.69676278 0 1823.23750153 0 -7801.59229817 0 2526.34174967 0 -6324.92142768 0 399
0.02050000 0.02045430 67178.93626751 0 2869.60320402 0 -6510.45497023 0 -8066.82718199 0 4117.21867513 0 462
0.02150000 0.02154770 71038.67280549 0 -452.64727513 0 5625.00035306 0 5454.55083836 0 3536.69433567 0 571
0.02250000 0.02255340 70543.11812584 0 -264.41635349 0 -773.20283109 0 -1491.04506173 0 10652.99484800 0 510
0.02350000 0.02348930 68187.56971798 0 2541.33704794 0 11925.03313479 0 -1310.05890993 0 18223.94570562 0 555
0.02450000 0.02439640 65840.67244373 0 2762.92807177 0 14234.99672320 0 -4633.91317616 0 11282.63100755 0 592
0.02550000 0.02547300 61916.27422754 0 4779.71805125 0 25036.04795925 0 -7253.87571927 0 15274.13096528 0 837
0.02650000 0.02652900 60263.35314635 0 3378.70023514 0 32479.68296711 0 -5539.48722459 0 -352.00242667 0 723
0.02750000 0.02749970 57090.71625931 0 1882.32030767 0 42882.44932076 0 2447.70516331 0 16121.83114803 0 826
0.02850000 0.02848090 56298.13932539 0 -1688.90092409 0 29471.97217869 0 7706.39655476 0 -2720.17150754 0 831
0.02950000 0.02946900 60376.81609113 0 -2364.09972071 0 32233.90204274 0 6520.66996262 0 11048.10764808 0 996
0.03050000 0.03053250 60985.61189162 0 271.41378964 0 24239.14545852 0 1189.77487903 0 -2761.37530420 0 1041
0.03150000 0.03150510 59600.09956885 0 2426.78716586 0 27059.52593049 0 -858.80690738 0 5767.64423701 0 1036
0.03250000 0.03246190 56459.62715296 0 2278.83059857 0 23916.72436324 0 -1150.76713936 0 1340.10496247 0 1059
0.03350000 0.03345080 55599.83756553 0 1829.10474472 0 28071.26491610 0 2554.21392760 0 -2436.71378713 0 1302
0.03450000 0.03451200 52168.44305369 0 494.92026318 0 23886.88904345 0 2840.56645041 0 -2553.60391177 0 1339
0.03550000 0.03553350 51856.89133141 0 1199.55731474 0 21633.82329539 0 5639.79600979 0 -1695.36709191 0 1365
0.03650000 0.03647120 49591.84709065 0 428.62817902 0 19891.72899073 0 448.82968514 0 1526.81417189 0 1308
0.03750000 0.03744890 48093.87003082 0 2199.68381715 0 18494.68182313 0 127.71402374 0 -4697.12190757 0 1579
0.03850000 0.03847530 46352.77393389 0 1489.35919980 0 19486.56756621 0 70.20849671 0 1721.77523185 0 1662
0.03950000 0.03950240 44311.21731163 0 657.53384724 0 21866.73843130 0 3055.31420572 0 3021.40841665 0 1683
0.04050000 0.04050350 42563.24467259 0 951.45833020 0 18776.50913758 0 391.96955487 0 424.49781728 0 1822
0.04150000 0.04152450 43788.37828749 0 788.76821689 0 20893.70772303 0 3255.39939867 0 5434.74196061 0 1887
0.04250000 0.04250150 39498.52513186 0 1883.14105625 0 19838.49124538 0 -759.91779539 0 -132.91690423 0 1920
0.04350000 0.04349210 39446.17468226 0 1968.92037345 0 23121.70736599 0 1507.32693885 0 12395.29988539 0 2005
0.04450000 0.04448520 37016.20434288 0 396.61787551 0 22698.46729045 0 1577.30130040 0 6280.24608637 0 2151
0.04550000 0.04548030 37104.93391846 0 1220.34221782 0 24115.25678861 0 1830.42459715 0 13242.88915618 0 2274
0.04650000 0.04648670 35180.72215991 0 510.14847659 0 22927.16777152 0 768.74638816 0 7517.45801475 0 2311
0.04750000 0.04749250 35343.98457899 0 321.19773626 0 21702.47780450 0 -220.23457044 0 6214.20909974 0 2568
0.04850000 0.04851840 35635.12849888 0 -397.87783548 0 22691.81257228 0 1042.83981098 0 6913.25396980 0 2493
0.04950000 0.04949480 35919.61770061 0 -851.98803949 0 19582.17368390 0 1299.28935770 0 93.95929677 0 2644
0.05050000 0.05050630 36693.78324759 0 379.59621555 0 21843.55782968 0 528.77836010 0 5881.50646489 0 2829
0.05150000 0.05149060 35626.03371739 0 780.68384343 0 15858.08248460 0 1874.03518355 0 -15.09833549 0 2784
0.05250000 0.05249300 35600.41305244 0 915.97980941 0 19597.47953569 0 1171.36349210 0 6299.53367786 0 3055
0.05350000 0.05348950 33201.94171238 0 730.43406654 0 17295.16887318 0 1464.30418589 0 -96.79110118 0 3009
0.05450000 0.05448610 33433.08225678 0 868.04032884 0 17518.32375578 0 1701.48943263 0 5788.45132249 0 3336
0.05550000 0.05550870 31918.57931350 0 292.09332635 0 18047.15202627 0 2032.96094462 0 5660.20381218 0 3349
0.05650000 0.05647670 31098.82894706 0 -86.88266947 0 14668.66252387 0 892.62618511 0 5366.38691382 0 3324
0.05750000 0.05747970 33246.41741214 0 -480.64589271 0 16735.50707517 0 2401.12213612 0 7049.62023628 0 3639
0.05850000 0.05849280 32061.10119429 0 -87.50876754 0 13922.66861713 0 -78.42618636 0 2271.34404063 0 3846
0.05950000 0.05951020 33261.83417590 0 780.75260885 0 15374.39538569 0 -1130.09314825 0 6540.62302593 0 3787
0.06050000 0.06049470 31140.64275956 0 419.01322039 0 15530.33761478 0 -952.13489322 0 1675.55821416 0 3930
0.06150000 0.06148310 32720.91650074 0 245.33616737 0 17457.10034862 0 604.94604603 0 4897.24037411 0 4083
0.06250000 0.06249100 31261.98045417 0 438.92746451 0 17367.15074137 0 819.90120672 0 3795.93997314 0 4303
0.06350000 0.06350600 31219.27934592 0 133.43929960 0 15945.48111655 0 1969.14219738 0 5911.46378784 0 4470
0.06450000 0.06451750 31390.74925074 0 -48.20644568 0 14172.44237241 0 2735.55499770 0 4430.61153610 0 4479
0.06550000 0.06550280 31620.22611560 0 286.14068095 0 15064.28551901 0 957.89344267 0 5748.17918637 0 4636
0.06650000 0.06648880 29982.38906225 0 488.76353976 0 12773.62061330 0 439.94563639 0 4648.32064100 0 4653
0.06750000 0.06749660 29391.67191279 0 1027.83785799 0 14548.65577289 0 -932.08977297 0 5735.04720918 0 5220
0.06850000 0.06852730 28161.87999517 0 756.92539045 0 13070.53195560 0 406.00213725 0 5169.92854228 0 5029
0.06950000 0.06949320 26835.04010426 0 846.56444419 0 14835.91777385 0 -115.44715991 0 2719.83877163 0 5040
0.07050000 0.07048030 26653.25538627 0 457.43312662 0 13059.44075865 0 1440.95721632 0 3485.18681704 0 5475
0.07150000 0.07148790 25815.53728077 0 -44.48279813 0 12201.86941062 0 1429.35582431 0 798.07594937 0 5509
0.07250000 0.07249820 26083.38968707 0 -371.31663703 0 10932.02718082 0 1845.67499296 0 5280.06412797 0 5916
0.07350000 0.07351270 25925.34013056 0 83.09070015 0 9195.62266020 0 1272.85903537 0 2645.52775207 0 5721
0.07450000 0.07449140 26478.01447449 0 -178.05585757 0 9415.07308301 0 1277.05150782 0 4221.26519371 0 6028
0.07550000 0.07549160 25348.37606532 0 240.94516250 0 8542.55080149 0 138.34604513 0 3519.32552125 0 6183
0.07650000 0.07648840 25491.89615383 0 738.18015849 0 8384.60106575 0 -790.49178889 0 3999.95144980 0 6330
0.07750000 0.07749960 24468.84414732 0 740.10669940 0 10231.38517840 0 -623.89091953 0 4771.15564720 0 6583
0.07850000 0.07848650 24300.03612977 0 596.10858030 0 12181.57252020 0 -400.73160046 0 3880.94290655 0 6549
0.07950000 0.07947320 23536.62904382 0 194.79247376 0 11899.07973393 0 157.91535303 0 5929.75317161 0 6828
0.08050000 0.08048110 23287.40984840 0 24.45742021 0 11226.39863902 0 616.09491720 0 2505.93394728 0 7147
0.08150000 0.08149960 23812.57802389 0 261.99181783 0 13315.20376028 0 -260.66198332 0 4759.93135589 0 7386
0.08250000 0.08250610 23045.28901902 0 561.47077223 0 12472.82735206 0 -634.07818393 0 2390.98478211 0 7227
0.08350000 0.08350160 22837.55090018 0 96.04455271 0 12746.44718078 0 61.94799505 0 3079.85902457 0 7798
0.08450000 0.08449610 22896.00150809 0 -139.25441416 0 12039.93793517 0 1068.39171051 0 2929.76185627 0 7371
0.08550000 0.08548940 22968.09428826 0 24.99711786 0 11153.86221098 0 949.27669176 0 240.05232115 0 8256
0.08650000 0.08650700 22377.82078667 0 250.78859979 0 10468.10459487 0 144.31643645 0 1433.18228726 0 8037
0.08750000 0.08749060 22117.62130627 0 599.10763995 0 9840.88631625 0 8.09146073 0 -982.39278761 0 8155
0.08850000 0.08849210 21537.44079391 0 482.90627865 0 11126.68877846 0 12.63875166 0 655.15256725 0 8718
0.08950000 0.08949900 20483.33343595 0 435.61896046 0 9184.07672417 0 821.99744294 0 -568.88412827 0 8571
0.09050000 0.09049190 20255.63116260 0 -14.18408813 0 9262.56912498 0 1079.41857851 0 42.49625384 0 8932
0.09150000 0.09150830 19656.15196755 0 177.92054496 0 7867.77347036 0 876.82012034 0 -407.93089640 0 9285
0.09250000 0.09250820 19736.00858558 0 286.12848063 0 5568.31324546 0 782.64920353 0 -767.53522945 0 9204
0.09350000 0.09350330 19264.96545118 0 -20.01395398 0 6550.60510318 0 918.09933714 0 642.27790584 0 9349
0.09450000 0.09448040 18570.65652223 0 417.20424616 0 4378.70473439 0 33.57593687 0 -1928.85897007 0 9564
0.09550000 0.09549270 18400.18482513 0 313.04903386 0 5053.28242397 0 151.41147514 0 -947.51873705 0 10155
0.09650000 0.09649430 17751.12797972 0 83.62407581 0 3809.27159187 0 139.17344843 0 -2575.56448173 0 9913
0.09750000 0.09749140 17644.76340099 0 360.98075060 0 4844.19117911 0 -484.41246319 0 -1378.97960777 0 10476
0.09850000 0.09850240 17148.87598543 0 469.50145802 0 4048.39779807 0 -548.92884672 0 -3077.81824433 0 10575
0.09950000 0.09950330 16930.93396540 0 105.92226180 0 5103.05971588 0 495.87632436 0 -2313.22440031 0 10882
0.10050000 0.10051200 16453.56884875 0 100.83262243 0 4718.69428564 0 315.43918681 0 -2768.30730229 0 10875
0.10150000 0.10150300 16387.57622691 0 247.40356649 0 4011.31992667 0 218.75722301 0 -1927.55020883 0 11118
0.10250000 0.10250800 15920.85865933 0 475.11914927 0 4766.87444518 0 146.97943284 0 -1835.42672698 0 11575
0.10350000 0.10349800 15569.04589213 0 289.62886239 0 5122.48040173 0 -389.52172770 0 -1346.74858944 0 11364
0.10450000 0.10450100 14979.65968630 0 252.29700258 0 4624.88494185 0 280.50635290 0 -1055.88194947 0 12093
0.10550000 0.10551000 14998.73654505 0 126.53170214 0 5187.84082535 0 385.37251092 0 -432.25500042 0 12067
0.10650000 0.10649700 14614.98113064 0 25.96748668 0 4191.15259399 0 922.58128983 0 124.39442849 0 12054
0.10750000 0.10749900 14741.64259979 0 -2.42278324 0 4234.50808286 0 529.80651406 0 283.48766664 0 12807
0.10850000 0.10850100 14536.23363231 0 -69.50054561 0 3300.31874631 0 808.83108305 0 1277.82789160 0 12736
0.10950000 0.10950300 14818.39368267 0 -156.17736247 0 3173.03617013 0 884.73923496 0 1357.00794662 0 12933
0.11050000 0.11050200 15037.22299846 0 -45.62940607 0 2493.61162747 0 202.10600903 0 1644.25885638 0 13428
0.11150000 0.11150900 14788.55836288 0 200.78393835 0 2748.44296856 0 -136.73227598 0 2237.54916353 0 13453
0.11250000 0.11250000 14677.64639340 0 77.88726510 0 2809.36691339 0 -97.37982191 0 1322.90251600 0 13668
0.11350000 0.11349100 14641.60000332 0 101.01374168 0 3037.25773709 0 -195.45239998 0 1272.33774911 0 13791
0.11450000 0.11448600 14727.66769164 0 114.46004339 0 3361.93034535 0 -107.16325583 0 1142.72602158 0 14205
0.11550000 0.11549300 14195.51206206 0 262.58963335 0 3612.83540272 0 -484.74076262 0 1531.64993376 0 14776
0.11650000 0.11649800 14205.71596325 0 180.85194832 0 3361.81943338 0 -13.59791837 0 651.69211380 0 14553
0.11750000 0.11747300 13852.79407636 0 153.97908723 0 4253.74021837 0 -176.85468094 0 1077.88688422 0 14568
0.11850000 0.11849100 13876.41832586 0 202.35999744 0 4002.93498178 0 77.01106054 0 383.46149769 0 16015
0.11950000 0.11950300 13573.62864917 0 193.12324862 0 4086.20768847 0 -218.21153612 0 477.76994534 0 15270
0.12050000 0.12050700 13396.61314588 0 206.77096647 0 3923.41109966 0 -128.88525414 0 655.43095630 0 15999
0.12150000 0.12150000 12958.84360233 0 213.02751066 0 4335.62652544 0 257.17491100 0 299.35140563 0 15670
0.12250000 0.12250700 13006.09210133 0 5.02669682 0 3953.31296663 0 351.77616625 0 823.02670602 0 16887
0.12350000 0.12352200 12876.65783295 0 -8.93843999 0 3999.34143397 0 508.51585240 0 283.83593022 0 16407
0.12450000 0.12449800 13183.88398841 0 -97.44903098 0 3335.92148851 0 457.80024523 0 689.73713758 0 16306
0.12550000 0.12549900 12785.59910600 0 221.08193789 0 3585.70633498 0 -168.59617569 0 501.32099294 0 17523
0.12650000 0.12650100 12691.76757982 0 256.48392943 0 3349.28638083 0 -189.30787687 0 867.78523131 0 17154
0.12750000 0.12750600 12392.19435025 0 136.33632025 0 3981.83952518 0 -206.60016203 0 690.25509647 0 18007
0.12850000 0.12850300 12342.50578792 0 112.75532642 0 3660.61627917 0 -69.47614498 0 306.13589081 0 17496
0.12950000 0.12949900 12271.63303942 0 41.83688218 0 3862.05459814 0 144.48613176 0 -206.17758743 0 18405
0.13050000 0.13049000 12140.09144362 0 70.81418698 0 3609.87405313 0 59.98407681 0 -27.34501334 0 18100
0.13150000 0.13148800 12074.87520556 0 47.03532619 0 3813.53061150 0 -37.09517367 0 321.21659130 0 19059
0.13250000 0.13249300 12130.77483818 0 57.77881412 0 3651.97623675 0 240.40391209 0 -315.54677142 0 18957
0.13350000 0.13349100 12097.61215930 0 154.92849369 0 3833.12875650 0 -74.81112162 0 108.10966766 0 19468
0.13450000 0.13450700 11969.61974652 0 -47.39479189 0 3259.98006301 0 429.52767509 0 -116.27789057 0 19953
0.13550000 0.13551000 11834.86170360 0 129.54407124 0 3876.30678622 0 110.55128376 0 1131.71246301 0 19956
0.13650000 0.13649900 11780.40392659 0 139.58493183 0 3316.87790335 0 54.04695908 0 614.58762353 0 19723
0.13750000 0.13749600 11724.61520594 0 105.46086801 0 3737.35627085 0 438.30635748 0 990.10671509 0 20946
0.13850000 0.13851100 11396.20486430 0 213.41681168 0 3475.62620527 0 57.56442128 0 1811.27010002 0 20955
0.13950000 0.13949800 11213.42193859 0 126.56941221 0 3704.13813599 0 -157.01142048 0 1914.89515311 0 20506
0.14050000 0.14048300 11011.60651892 0 225.06035023 0 4101.19189554 0 268.11637679 0 1999.84263054 0 21447
0.14150000 0.14148400 10998.61872730 0 49.82487314 0 3810.53598832 0 -127.09291671 0 1516.87645943 0 21771
0.14250000 0.14249400 10965.93296989 0 25.92012727 0 4262.54662875 0 -148.37914189 0 1619.64749035 0 22470
0.14350000 0.14350900 10999.65020861 0 4.03090698 0 4119.83619761 0 -253.87417079 0 1077.83919207 0 22519
0.14450000 0.14449900 10968.49503638 0 -21.32870447 0 4127.65549146 0 -194.48081113 0 781.40477123 0 22218
0.14550000 0.14550500 11084.16512936 0 -7.27835399 0 3902.39328144 0 389.02595120 0 403.26372072 0 23559
0.14650000 0.14650700 11000.03840051 0 1.76452070 0 3775.75399469 0 297.98053369 0 71.89047673 0 23044
0.14750000 0.14750500 10925.46119223 0 177.44695085 0 3349.33074562 0 80.64265115 0 387.45765595 0 23649
0.14850000 0.14849900 10557.65491903 0 274.85760629 0 3507.12520460 0 230.38412477 0 116.88236080 0 23640
0.14950000 0.14949500 10208.59276867 0 277.11355575 0 3035.28350403 0 -37.78160784 0 557.35704728 0 24457
0.15050000 0.15050000 9884.05325477 0 183.62031108 0 3507.19175179 0 340.44650857 0 178.59378062 0 24591
0.15150000 0.15149900 9707.72540569 0 40.44626791 0 2715.09173933 0 317.17274089 0 1001.41640862 0 25020
0.15250000 0.15250500 9495.75044961 0 25.60214265 0 2585.04745512 0 377.21160821 0 331.26410661 0 25297
0.15350000 0.15350100 9611.58691054 0 44.41081626 0 2191.28778106 0 217.41962466 0 899.11453533 0 25452
0.15450000 0.15450400 9437.77676317 0 26.23256629 0 1936.14588646 0 271.51250129 0 331.31179876 0 26061
0.15550000 0.15549900 9415.74964603 0 82.67367114 0 2032.93876223 0 -149.79437862 0 607.16983102 0 26128
0.15650000 0.15649500 9252.01030548 0 155.27453904 0 1829.43748062 0 -181.82908277 0 404.49262534 0 26331
0.15750000 0.15749700 9122.16566281 0 127.82604483 0 2021.02681671 0 21.97476669 0 319.58063975 0 27345
0.15850000 0.15849900 9161.49504719 0 -31.78326671 0 1916.76956539 0 57.08683434 0 421.58083248 0 26980
0.15950000 0.15949700 8947.59022284 0 135.52111727 0 1962.14365211 0 -100.69997172 0 -505.76412644 0 27777
0.16050000 0.16050000 8928.06971621 0 208.61875988 0 2106.81722510 0 -335.51979888 0 245.25741988 0 28224
0.16150000 0.16150500 8615.78597494 0 178.74794826 0 2515.59437983 0 -431.97661138 0 -488.95319922 0 28075
0.16250000 0.16249700 8556.60334802 0 83.22556910 0 2570.96163499 0 191.88768928 0 -98.25336458 0 28590
0.16350000 0.16349900 8502.06793263 0 10.94357312 0 2317.70524388 0 152.28546146 0 -520.60969355 0 29163
0.16450000 0.16449100 8437.17333929 0 67.13967343 0 2303.94106846 0 65.70203248 0 -205.13168756 0 28996
0.16550000 0.16550500 8355.75286249 0 120.43265294 0 2451.32089351 0 2.07135867 0 -132.67844349 0 30777
0.16650000 0.16650700 8371.55781814 0 50.19920104 0 2551.59640512 0 137.06833925 0 -149.00357628 0 29211
0.16750000 0.16749900 8166.92523445 0 18.32032821 0 2339.68799623 0 226.83272351 0 110.03221574 0 30922
0.16850000 0.16850800 8263.88447817 0 63.28115692 0 2290.56508494 0 138.15194919 0 189.21027434 0 30867
0.16950000 0.16949900 8198.32441301 0 52.77269146 0 2387.11395438 0 -60.03875641 0 355.11794389 0 30852
0.17050000 0.17049200 8069.35597489 0 55.88654501 0 2397.47313233 0 22.38325547 0 366.93672336 0 31257
0.17150000 0.17149500 8053.37356009 0 56.57852478 0 2221.85511985 0 156.82508837 0 247.89823387 0 32608
0.17250000 0.17250900 8178.50444406 0 -1.07907253 0 2365.12011083 0 70.09292644 0 645.39009570 0 32361
0.17350000 0.17350400 8021.34218330 0 66.08767340 0 2439.03184729 0 32.81763174 0 474.34387460 0 32508
0.17450000 0.17449800 8028.56255252 0 106.67513225 0 2401.11104493 0 -5.21918455 0 632.12280591 0 32791
0.17550000 0.17549800 7830.27413348 0 119.96016795 0 2615.41515236 0 27.82215663 0 697.30687949 0 33633
0.17650000 0.17650100 7955.28301428 0 -22.72353340 0 2641.05799970 0 43.19544290 0 1061.68375459 0 33984
0.17750000 0.17750300 7851.63577880 0 -23.52265414 0 2615.11569004 0 338.85714004 0 862.31283473 0 34069
0.17850000 0.17849800 7930.07272362 0 120.44928974 0 2665.38099461 0 -88.21871505 0 1283.14057494 0 34536
