### header ###
fiducial parameters:
Omega_m = 0.31
Omega_nu = 0
Omega_de = 0.69
Omega_k = 0
H_0 = 100
w_de = -1
zeff = 0
beta = 0
fgrowth = 0
b_1 = 2
gamma = 0.55
Lx = 3500 Ly = 3500 Lz = 3500
nx = 700 ny = 700 nz = 700
xoffset = 1379.75464 yoffset = 22.6059522 zoffset = 368.141391
bins = 400 dk = 0.001
kx_ny = 0.628318531 ky_ny = 0.628318531 kz_ny = 0.628318531
############################
A(data) = 3.33212915 (not used)
A(ran) = 3.32981939 (used)
Ngal = 187169
weighted Ngal = 0
Nran = 9399747
weighted Nran = 0
SN(data) = 6680.24738
SN(ran) = 132.444841
SN(data+ran) = 6812.69222
############################
13 columns: k_central k_mean P_0(k) sigma^{lin}_{P_0(k)} P^img_1(k) sigma^{lin}_{P_1(k)} P_2(k) sigma^{lin}_{P_2(k)} P^img_3(k) sigma^{lin}_{P_3(k)} P_4(k) sigma^{lin}_{P_4(k)} N_modes
### header ###
0.00050000 0 0 0 0 0 0 0 0 0 0 0 0
0.00150000 0.00179520 26473.24525980 0 -27549.31318772 0 -51346.91809574 0 56488.90791290 0 -300.54814578 0 3
0.00250000 0.00253879 45892.71108448 0 -21161.56012933 0 -15097.33728592 0 -40149.35656878 0 -13501.75769295 0 6
0.00350000 0.00331552 63340.38391570 0 -19161.04093578 0 -55174.26833863 0 -200.32919928 0 25706.28899083 0 7
0.00450000 0.00420575 64722.56887938 0 -8854.70144840 0 -46732.20378149 0 -20549.54788173 0 7112.09694868 0 24
0.00550000 0.00557378 70022.71916503 0 2338.04649908 0 -55282.18568493 0 -38768.94619660 0 -16446.91413058 0 45
0.00650000 0.00659388 52204.82217968 0 -7351.34515805 0 -32787.35277046 0 -7891.78591175 0 -13398.72047330 0 40
0.00750000 0.00754703 49056.69683790 0 4735.64163457 0 -37066.66928899 0 -36093.08402088 0 -10467.70531178 0 57
0.00850000 0.00846663 57696.62834859 0 -4620.51501025 0 -43668.48244848 0 -10742.74481370 0 -9794.80239293 0 75
0.00950000 0.00948925 76708.49268542 0 -28873.93483925 0 -51656.69522650 0 12006.55343236 0 -29319.13548475 0 112
0.01050000 0.01054430 102693.72527950 0 -15853.53509385 0 -62506.99137701 0 -20167.34523489 0 -40063.84344031 0 105
0.01150000 0.01145670 123181.05154635 0 -7521.93885832 0 -54696.79231001 0 -24078.10127884 0 -41696.68945503 0 144
0.01250000 0.01249090 126698.07009863 0 5818.55283101 0 -27273.47511962 0 -61869.13664051 0 -49593.51077019 0 169
0.01350000 0.01339930 118627.00607941 0 15282.11662708 0 12347.82956246 0 -42198.78794087 0 -52828.14744817 0 180
0.01450000 0.01448870 104584.33071130 0 13257.64044812 0 49398.08387996 0 -25351.70342440 0 -35171.51646645 0 267
0.01550000 0.01550050 98665.29163594 0 8093.71224339 0 70897.14913243 0 -537.40842045 0 -43994.78546270 0 238
0.01650000 0.01653350 88461.72317948 0 4197.92931533 0 78184.95282317 0 12217.84073422 0 -4078.02238512 0 315
0.01750000 0.01747870 92970.84929878 0 2068.03130937 0 66183.61225337 0 35203.68093760 0 -4828.56368261 0 297
0.01850000 0.01844180 82626.20081714 0 2766.96526746 0 56415.70601304 0 14616.42298625 0 14153.36551366 0 388
0.01950000 0.01947590 85036.87247384 0 3101.89723290 0 62586.73708306 0 14768.26147247 0 25680.33558998 0 399
0.02050000 0.02045430 77401.24884681 0 -501.29104671 0 51835.92896918 0 11672.59749225 0 32402.82097226 0 462
0.02150000 0.02154770 79266.34452562 0 150.57519889 0 41220.98801792 0 17034.85848081 0 28689.26641006 0 571
0.02250000 0.02255340 75272.73724047 0 411.33478474 0 39887.60432080 0 10836.95344058 0 39617.31185117 0 510
0.02350000 0.02348930 77116.09417327 0 2958.58787714 0 27383.61070531 0 10973.19770389 0 32923.33084504 0 555
0.02450000 0.02439640 75679.45143256 0 -405.72707556 0 25988.89268908 0 10558.49785000 0 36459.53716804 0 592
0.02550000 0.02547300 71471.56222238 0 780.70713495 0 14181.75897784 0 9896.77485767 0 38331.39847700 0 837
0.02650000 0.02652900 70584.15555455 0 2633.10561149 0 18922.69111336 0 6429.74433004 0 41721.31191225 0 723
0.02750000 0.02749970 68866.68370712 0 2621.50421948 0 10859.35765841 0 -979.93941485 0 36037.62803613 0 826
0.02850000 0.02848090 60041.97285526 0 3799.56679454 0 16358.07364303 0 -798.58059883 0 25081.30004280 0 831
0.02950000 0.02946900 55364.48236629 0 5458.62130764 0 16697.68609358 0 -7540.33915405 0 30691.22745921 0 996
0.03050000 0.03053250 51340.70702544 0 3361.48669748 0 24566.77941637 0 -2538.46442793 0 12656.60848549 0 1041
0.03150000 0.03150510 49561.12447510 0 1582.91344606 0 25461.61718616 0 784.13209656 0 15179.41214334 0 1036
0.03250000 0.03246190 47792.30038580 0 -394.00035303 0 23996.13733339 0 1954.51290861 0 6701.40101689 0 1059
0.03350000 0.03345080 48903.74923198 0 -1387.14272872 0 17937.90373633 0 5708.38397172 0 7534.74919079 0 1302
0.03450000 0.03451200 48431.26424199 0 -277.95094112 0 15506.26971740 0 5734.49264934 0 8613.73410350 0 1339
0.03550000 0.03553350 49953.53102313 0 -1693.68122998 0 11013.21474248 0 7592.43450612 0 8573.37323781 0 1365
0.03650000 0.03647120 51832.82343404 0 -1605.46184945 0 5672.61486156 0 5034.26102121 0 9780.41711049 0 1308
0.03750000 0.03744890 50140.63951565 0 3053.60616139 0 5089.48409081 0 -1712.34771444 0 8090.40706670 0 1579
0.03850000 0.03847530 46905.33736585 0 2284.22092029 0 9654.24365400 0 -1267.45762246 0 13582.39069476 0 1662
0.03950000 0.03950240 44039.15025049 0 1587.82684630 0 7728.57894866 0 -3391.21110530 0 7696.78048701 0 1683
0.04050000 0.04050350 43705.52704629 0 1565.82191156 0 15421.31114878 0 -2030.62070207 0 2144.83784824 0 1822
0.04150000 0.04152450 39543.77721541 0 2549.84399600 0 14775.80348639 0 -4813.30219560 0 4658.21398868 0 1887
0.04250000 0.04250150 38904.48062331 0 588.44456321 0 18937.55331727 0 537.07235718 0 1324.57728674 0 1920
0.04350000 0.04349210 38258.08566517 0 -78.32359279 0 16808.93079897 0 1529.20987043 0 2585.01418153 0 2005
0.04450000 0.04448520 39436.41442895 0 50.98379231 0 18164.05324210 0 1307.71866738 0 -5313.60390755 0 2151
0.04550000 0.04548030 37910.59846478 0 1061.21903344 0 17464.97509846 0 -2443.69015001 0 -633.50587817 0 2274
0.04650000 0.04648670 36035.52070871 0 1068.14659506 0 19038.15047359 0 -1533.39125168 0 -2235.67475125 0 2311
0.04750000 0.04749250 37317.66307593 0 484.44573678 0 20964.13682365 0 -396.19973738 0 -2150.56090587 0 2568
0.04850000 0.04851840 36286.51449565 0 -113.16680982 0 18444.66052489 0 2904.91757510 0 -5023.63565453 0 2493
0.04950000 0.04949480 36772.75256986 0 -457.95884935 0 20226.12857872 0 1606.93697865 0 -5198.18891210 0 2644
0.05050000 0.05050630 37033.95025799 0 190.44694280 0 18003.34179832 0 409.48033661 0 -6126.94356215 0 2829
0.05150000 0.05149060 36427.37269689 0 447.64181795 0 17084.65795510 0 -832.37769417 0 -4068.91651242 0 2784
0.05250000 0.05249300 36500.79642069 0 374.87802037 0 16512.90675242 0 1166.77173656 0 -2834.56611286 0 3055
0.05350000 0.05348950 35655.53630127 0 -681.43537666 0 14924.98008535 0 1809.37350535 0 -4700.89291453 0 3009
0.05450000 0.05448610 36602.50269671 0 -221.58436911 0 12148.74257724 0 4699.28469098 0 -2202.68953152 0 3336
0.05550000 0.05550870 37171.14836424 0 -303.05364717 0 12035.50145639 0 1235.41515447 0 -4236.19394480 0 3349
0.05650000 0.05647670 36226.40020819 0 867.73421180 0 8046.23082925 0 -410.39868772 0 -3664.97511957 0 3324
0.05750000 0.05747970 35400.21694752 0 898.76294438 0 11851.60941099 0 -378.29299991 0 -3061.70273516 0 3639
0.05850000 0.05849280 34235.64126796 0 336.78974093 0 8841.72474797 0 -575.26933035 0 -4309.45130064 0 3846
0.05950000 0.05951020 33946.05011564 0 153.13504714 0 9332.29948019 0 1282.27546158 0 -3871.74830428 0 3787
0.06050000 0.06049470 32981.11598114 0 357.14763293 0 9338.53273287 0 654.01239221 0 -4545.12814459 0 3930
0.06150000 0.06148310 32665.23869206 0 632.60083650 0 6758.02157731 0 1220.00948191 0 -3616.69513926 0 4083
0.06250000 0.06249100 32570.07622224 0 84.50471684 0 8233.88279042 0 2449.30229567 0 126.68143330 0 4303
0.06350000 0.06350600 32188.53904722 0 -426.43766762 0 3803.24907192 0 1762.76829577 0 -319.94775837 0 4470
0.06450000 0.06451750 32236.56393001 0 51.09048962 0 5313.01607411 0 2203.64337446 0 2242.44038139 0 4479
0.06550000 0.06550280 31812.76929462 0 44.81664316 0 3287.84114974 0 851.22163778 0 1126.38868847 0 4636
0.06650000 0.06648880 32156.70731198 0 932.79960958 0 5333.80097719 0 -2333.89839142 0 2113.16138976 0 4653
0.06750000 0.06749660 30453.76493255 0 1362.16535320 0 6110.76150580 0 -2859.95386267 0 843.20159327 0 5220
0.06850000 0.06852730 29368.82404708 0 1074.72589309 0 9193.37114722 0 -1927.62784721 0 1573.36392548 0 5029
0.06950000 0.06949320 27830.14229445 0 813.87535942 0 11008.42334540 0 -546.67622462 0 323.62670839 0 5040
0.07050000 0.07048030 27332.48028738 0 525.30903370 0 11845.95290055 0 958.92048751 0 1693.21539971 0 5475
0.07150000 0.07148790 27333.25667117 0 -162.71784131 0 10111.18987707 0 3033.55327731 0 3031.66777383 0 5509
0.07250000 0.07249820 27189.40384675 0 -556.14810681 0 9254.80528711 0 3024.15903349 0 5425.61390553 0 5916
0.07350000 0.07351270 27673.75641748 0 333.79844511 0 9307.76575254 0 414.42257397 0 5811.45446496 0 5721
0.07450000 0.07449140 27185.63283979 0 834.73679176 0 7949.08303519 0 -455.89699584 0 5391.16464780 0 6028
0.07550000 0.07549160 25865.66949098 0 604.64103811 0 8321.08178083 0 -1131.34645351 0 7481.88854614 0 6183
0.07650000 0.07648840 25866.88952264 0 71.94227262 0 8990.59079341 0 639.09473231 0 4602.74691274 0 6330
0.07750000 0.07749960 25314.54791462 0 -106.23969186 0 8284.48083090 0 1014.08810113 0 3430.30757454 0 6583
0.07850000 0.07848650 25212.50890270 0 431.66383963 0 7462.66750182 0 88.85790073 0 3005.89183212 0 6549
0.07950000 0.07947320 24920.69951099 0 527.93986562 0 8339.78153888 0 -680.87859857 0 2864.13524392 0 6828
0.08050000 0.08048110 23962.30918270 0 527.14906327 0 8873.74503356 0 31.05646057 0 1523.28717126 0 7147
0.08150000 0.08149960 23231.73203972 0 343.75168526 0 7680.79807220 0 -491.24574963 0 1122.15185124 0 7386
0.08250000 0.08250610 23592.86141235 0 113.65038601 0 8421.41274842 0 496.31109928 0 353.43762755 0 7227
0.08350000 0.08350160 22964.43419326 0 -31.68289138 0 7485.87028584 0 959.67357978 0 -588.19833864 0 7798
0.08450000 0.08449610 22702.46012135 0 67.37159036 0 6669.86874396 0 645.29803876 0 491.43540910 0 7371
0.08550000 0.08548940 22846.31294577 0 180.45266523 0 6049.94847294 0 895.87812406 0 -617.74528731 0 8256
0.08650000 0.08650700 22634.02743618 0 -161.94367576 0 4680.70693609 0 788.13269130 0 409.67221432 0 8037
0.08750000 0.08749060 22519.45537170 0 401.53238488 0 5533.12087754 0 272.78687982 0 56.41337686 0 8155
0.08850000 0.08849210 21868.51302281 0 569.05049622 0 3887.49780394 0 -4.50946995 0 1091.01997052 0 8718
0.08950000 0.08949900 21102.66587354 0 84.17741562 0 4385.39272615 0 767.06939918 0 402.86443763 0 8571
0.09050000 0.09049190 20762.94251101 0 399.21321560 0 3335.17837832 0 200.79724779 0 844.76877940 0 8932
0.09150000 0.09150830 20264.39320819 0 344.84971375 0 3420.66932439 0 496.74032860 0 699.75359754 0 9285
0.09250000 0.09250820 19612.67447551 0 340.47978216 0 3713.28837348 0 154.53697444 0 843.83157326 0 9204
0.09350000 0.09350330 19409.59465939 0 601.02530791 0 4174.85962567 0 -1227.30748950 0 417.93404692 0 9349
0.09450000 0.09448040 18726.70966329 0 452.60512858 0 4552.70343211 0 -902.47738624 0 -966.37931746 0 9564
0.09550000 0.09549270 18160.94770696 0 298.80571874 0 5535.78276481 0 -996.93223769 0 -570.44465968 0 10155
0.09650000 0.09649430 18013.98934739 0 272.08037058 0 6109.17546464 0 -266.93627343 0 -1665.05485065 0 9913
0.09750000 0.09749140 18188.23205145 0 -88.78370063 0 5113.98454487 0 721.89495401 0 -1582.33670382 0 10476
0.09850000 0.09850240 17855.49614300 0 -28.64567801 0 5449.63743812 0 1143.65768212 0 -1080.03192171 0 10575
0.09950000 0.09950330 18024.41507253 0 144.43622138 0 4469.41963423 0 534.53469132 0 45.03502882 0 10882
0.10050000 0.10051200 17807.80399613 0 58.55519790 0 4215.97469276 0 883.10439253 0 62.79547341 0 10875
0.10150000 0.10150300 17347.74114671 0 381.80890934 0 3817.52344240 0 285.04819805 0 992.89504200 0 11118
0.10250000 0.10250800 16861.05942463 0 396.68664093 0 4517.82161771 0 15.64812613 0 2055.49825682 0 11575
0.10350000 0.10349800 16330.56747459 0 381.98193202 0 3719.08906948 0 42.76033524 0 1008.01123432 0 11364
0.10450000 0.10450100 15782.99508126 0 341.56893770 0 4675.22788480 0 111.82699323 0 2036.68758680 0 12093
0.10550000 0.10551000 15529.22849508 0 69.94862997 0 4263.57811006 0 233.64271843 0 959.01698092 0 12067
0.10650000 0.10649700 15291.87688039 0 -51.64560403 0 4064.35803048 0 284.43707310 0 2127.08084193 0 12054
0.10750000 0.10749900 15424.74941983 0 267.10596874 0 3574.24912853 0 248.70900037 0 1718.04858967 0 12807
0.10850000 0.10850100 15188.72874877 0 -133.85965597 0 3240.84774827 0 642.50083889 0 2381.61272069 0 12736
0.10950000 0.10950300 15609.63967296 0 -79.55305197 0 3026.00017219 0 729.99374602 0 1761.25989298 0 12933
0.11050000 0.11050200 15330.91789365 0 27.80352342 0 2626.79472043 0 -16.62936432 0 2116.58856961 0 13428
0.11150000 0.11150900 15264.81435984 0 256.40296369 0 2702.52541319 0 -93.71273946 0 1829.84785491 0 13453
0.11250000 0.11250000 14768.92694428 0 283.19818640 0 3535.08611211 0 -942.44784180 0 2060.32292750 0 13668
0.11350000 0.11349100 14662.89510146 0 269.07576532 0 3532.79023434 0 -378.39947540 0 860.00475665 0 13791
0.11450000 0.11448600 14580.70933207 0 210.37116900 0 4476.81746259 0 -568.06005234 0 530.68382774 0 14205
0.11550000 0.11549300 14327.94095362 0 68.75044796 0 4090.57762006 0 -186.64155312 0 826.71231077 0 14776
0.11650000 0.11649800 14359.66177689 0 106.19776713 0 4896.70799666 0 47.99759844 0 -304.96466041 0 14553
0.11750000 0.11747300 14180.20621027 0 24.10261282 0 4428.06056081 0 83.77713432 0 -88.54612719 0 14568
0.11850000 0.11849100 14202.49951614 0 91.96021943 0 4560.99964743 0 144.10459459 0 -460.98452788 0 16015
0.11950000 0.11950300 14159.02202410 0 87.58119305 0 4626.79262772 0 -52.37817759 0 3.53830256 0 15270
0.12050000 0.12050700 13903.03719854 0 298.83677409 0 4191.77370102 0 7.24163104 0 -397.52846278 0 15999
0.12150000 0.12150000 13646.49781312 0 150.16704284 0 4959.09597949 0 -109.51958062 0 -742.20515386 0 15670
0.12250000 0.12250700 13521.16728761 0 131.41626528 0 4787.12697081 0 76.95993012 0 1.83755624 0 16887
0.12350000 0.12352200 13341.48989705 0 142.07046907 0 4677.65685693 0 112.40040811 0 -493.06803329 0 16407
0.12450000 0.12449800 13099.47997964 0 16.10408523 0 4246.49766676 0 728.69607598 0 11.34341077 0 16306
0.12550000 0.12549900 13241.22547664 0 -66.21566581 0 3847.17021184 0 432.41360454 0 -147.26558572 0 17523
0.12650000 0.12650100 13245.99469132 0 47.95633919 0 3673.16042292 0 247.18950639 0 199.67038218 0 17154
0.12750000 0.12750600 13135.08272184 0 299.01534236 0 3350.20695018 0 -319.38543468 0 -617.98818452 0 18007
0.12850000 0.12850300 12754.10010667 0 201.48712024 0 3892.94358164 0 -217.90652820 0 -79.46642972 0 17496
0.12950000 0.12949900 12335.96198172 0 38.46560196 0 3284.32524031 0 242.20844984 0 -299.39133394 0 18405
0.13050000 0.13049000 12657.05213337 0 -144.68022771 0 3486.49557828 0 653.30366472 0 -541.43785230 0 18100
0.13150000 0.13148800 12876.10327310 0 -164.62219982 0 2774.69583173 0 682.81512156 0 -252.48333469 0 19059
0.13250000 0.13249300 12418.14775111 0 225.00933073 0 2630.06662353 0 -182.92045655 0 -181.23681285 0 18957
0.13350000 0.13349100 12453.19593346 0 322.86252492 0 2818.02913821 0 -69.86444778 0 -22.30949901 0 19468
0.13450000 0.13450700 12289.82260242 0 127.19939220 0 2966.27407662 0 -171.27248151 0 241.12927637 0 19953
0.13550000 0.13551000 11784.50766946 0 232.21749962 0 2680.36520169 0 227.62685321 0 -116.66386422 0 19956
0.13650000 0.13649900 11751.78863846 0 181.91337587 0 3344.61698692 0 -268.46464037 0 654.56917029 0 19723
0.13750000 0.13749600 11385.89005114 0 204.96642872 0 2702.42559242 0 -50.62709941 0 -261.30749098 0 20946
0.13850000 0.13851100 11371.58240707 0 28.03765859 0 3129.86923161 0 349.11982458 0 -408.03182629 0 20955
0.13950000 0.13949800 11151.86579553 0 88.85135693 0 2693.77445880 0 -89.52448167 0 -631.49726240 0 20506
0.14050000 0.14048300 10998.94037201 0 190.10866129 0 2487.12327726 0 89.95393282 0 -828.80743787 0 21447
0.14150000 0.14148400 10620.84146804 0 151.47469496 0 2841.19864864 0 -40.53388837 0 -496.39982885 0 21771
0.14250000 0.14249400 10685.78042617 0 42.45366365 0 2251.95662837 0 363.46850607 0 -597.12231570 0 22470
0.14350000 0.14350900 10574.63554156 0 -150.54968914 0 2049.29827773 0 856.41009972 0 -292.47819088 0 22519
0.14450000 0.14449900 10763.26352805 0 16.35995915 0 1592.48514902 0 174.53440254 0 145.19375013 0 22218
0.14550000 0.14550500 10624.29083029 0 15.16088984 0 1349.55466227 0 313.17103703 0 244.88253742 0 23559
0.14650000 0.14650700 10679.01479604 0 177.16967093 0 1746.29786830 0 -198.97274589 0 344.30624510 0 23044
0.14750000 0.14750500 10442.32865316 0 229.41475416 0 1756.08030401 0 -617.92052822 0 549.52998960 0 23649
0.14850000 0.14849900 10122.66926592 0 248.81547586 0 2609.85846269 0 -428.59046895 0 204.38192264 0 23640
0.14950000 0.14949500 9911.08250173 0 257.22814874 0 2482.23205941 0 3.46135183 0 863.15132922 0 24457
0.15050000 0.15050000 9780.62784323 0 6.22231676 0 2753.46728077 0 357.39829398 0 527.03593306 0 24591
0.15150000 0.15149900 9930.20372527 0 -29.04418471 0 2522.62619869 0 514.10914302 0 636.97298633 0 25020
0.15250000 0.15250500 9728.35503201 0 168.65384991 0 2557.35273634 0 81.05679645 0 1276.10875607 0 25297
0.15350000 0.15350100 9374.65676133 0 180.70554452 0 2112.68446829 0 262.12269396 0 1400.65180661 0 25452
0.15450000 0.15450400 9324.55782472 0 12.13887141 0 2307.15751558 0 136.94744520 0 1584.82113193 0 26061
0.15550000 0.15549900 9215.46481154 0 176.74931457 0 2072.45669696 0 88.61311802 0 1246.97218169 0 26128
0.15650000 0.15649500 9026.21571801 0 202.78368116 0 2533.49557170 0 -264.04701663 0 1716.01890063 0 26331
0.15750000 0.15749700 8919.78459209 0 36.89941404 0 2153.22279313 0 7.49422196 0 1344.25307012 0 27345
0.15850000 0.15849900 8845.15192783 0 36.69223048 0 2568.48829807 0 248.08678422 0 1848.82489289 0 26980
0.15950000 0.15949700 8645.45492678 0 64.09658172 0 2087.00834735 0 -57.70017753 0 1182.72087777 0 27777
0.16050000 0.16050000 8951.07285868 0 27.68052205 0 2496.12932918 0 11.70609291 0 1824.21352686 0 28224
0.16150000 0.16150500 8885.72352627 0 -71.17631456 0 2073.14435117 0 60.86693608 0 1171.48549526 0 28075
0.16250000 0.16249700 8876.35146484 0 38.21926648 0 2516.28203404 0 -75.73890025 0 1012.96789024 0 28590
0.16350000 0.16349900 8957.58339129 0 -10.55569178 0 1787.86767446 0 92.31269767 0 913.38225108 0 29163
0.16450000 0.16449100 8897.50237742 0 41.94468862 0 2438.37746667 0 90.44893294 0 1059.53428063 0 28996
0.16550000 0.16550500 8805.54526353 0 116.90565231 0 1738.72258079 0 -142.37547698 0 583.59216454 0 30777
0.16650000 0.16650700 8737.06821357 0 55.15973887 0 1938.18666670 0 208.39804506 0 441.21668756 0 29211
0.16750000 0.16749900 8559.55360641 0 112.44810026 0 1841.29397016 0 -23.26866573 0 629.22134879 0 30922
0.16850000 0.16850800 8434.83309673 0 140.91587547 0 1558.60154235 0 89.28990286 0 168.06379824 0 30867
0.16950000 0.16949900 8292.34448954 0 104.27388811 0 1820.12087519 0 -95.70749123 0 348.07392471 0 30852
0.17050000 0.17049200 8106.61130544 0 166.70845397 0 1645.44561445 0 -120.03226073 0 -408.14939298 0 31257
0.17150000 0.17149500 7823.43086496 0 191.47287852 0 1958.46137472 0 -130.65430005 0 -214.58249648 0 32608
0.17250000 0.17250900 7801.85848689 0 76.78369100 0 1759.09710958 0 -20.94572544 0 156.56222700 0 32361
0.17350000 0.17350400 7747.28979791 0 -21.68661739 0 1858.31895748 0 197.66842113 0 -211.51910788 0 32508
0.17450000 0.17449800 7649.08834013 0 22.64090398 0 1495.84755001 0 191.23219954 0 58.58558778 0 32791
0.17550000 0.17549800 7781.98306196 0 70.36721174 0 1578.67660882 0 221.33370806 0 -89.80775084 0 33633
0.17650000 0.17650100 7629.53455991 0 -67.05937316 0 1419.71757416 0 482.51143204 0 873.48167006 0 33984
0.17750000 0.17750300 7738.88267062 0 22.79473888 0 1289.30728044 0 -15.43218052 0 365.99618986 0 34069
0.17850000 0.17849800 7715.52460985 0 214.53480433 0 1434.83487560 0 -285.27334935 0 927.25068374 0 34536
