### header ###
fiducial parameters:
Omega_m = 0.31
Omega_nu = 0
Omega_de = 0.69
Omega_k = 0
H_0 = 100
w_de = -1
zeff = 0
beta = 0
fgrowth = 0
b_1 = 2
gamma = 0.55
Lx = 3500 Ly = 3500 Lz = 3500
nx = 700 ny = 700 nz = 700
xoffset = 1379.75464 yoffset = 22.6059522 zoffset = 368.141391
bins = 400 dk = 0.001
kx_ny = 0.628318531 ky_ny = 0.628318531 kz_ny = 0.628318531
############################
A(data) = 3.34528491 (not used)
A(ran) = 3.35035488 (used)
Ngal = 188417
weighted Ngal = 0
Nran = 9399747
weighted Nran = 0
SN(data) = 6579.06644
SN(ran) = 133.261648
SN(data+ran) = 6712.32809
############################
13 columns: k_central k_mean P_0(k) sigma^{lin}_{P_0(k)} P^img_1(k) sigma^{lin}_{P_1(k)} P_2(k) sigma^{lin}_{P_2(k)} P^img_3(k) sigma^{lin}_{P_3(k)} P_4(k) sigma^{lin}_{P_4(k)} N_modes
### header ###
0.00050000 0 0 0 0 0 0 0 0 0 0 0 0
0.00150000 0.00179520 51801.98990652 0 -28411.54283848 0 25078.19450766 0 -72816.59167629 0 209168.88324653 0 3
0.00250000 0.00253879 64755.39882235 0 -21482.42845704 0 -43645.52367080 0 15178.41393561 0 -44574.74415112 0 6
0.00350000 0.00331552 84510.04061880 0 -18153.62751697 0 -14269.37943374 0 -34178.07795580 0 16454.78888041 0 7
0.00450000 0.00420575 91940.14436638 0 -9899.71402486 0 -44372.55163075 0 -9680.50760838 0 -8757.72002229 0 24
0.00550000 0.00557378 98231.62583526 0 3927.55920732 0 -22502.81857628 0 -15777.56039476 0 8199.38916791 0 45
0.00650000 0.00659388 63917.12615700 0 9956.40113247 0 -36431.80917567 0 -33630.17282655 0 -19652.60278453 0 40
0.00750000 0.00754703 74825.42926755 0 11076.16837636 0 12648.84464763 0 -26559.09112418 0 10051.77433502 0 57
0.00850000 0.00846663 47761.24503434 0 9162.38234294 0 -873.16446183 0 -7822.35501885 0 -18419.37259585 0 75
0.00950000 0.00948925 42949.55106230 0 4213.98936851 0 30423.81870079 0 -430.50813690 0 -5955.14092142 0 112
0.01050000 0.01054430 50458.29139624 0 -899.68462285 0 12040.27067108 0 486.68948593 0 1927.37274968 0 105
0.01150000 0.01145670 49571.66111220 0 -2203.97611037 0 21135.93946438 0 18433.34750401 0 13479.57529905 0 144
0.01250000 0.01249090 57050.89886227 0 -8348.86522918 0 6913.59779690 0 16112.18180668 0 17941.34200738 0 169
0.01350000 0.01339930 64576.05416770 0 -13012.52499556 0 -4786.65004934 0 28204.47019145 0 25841.49068163 0 180
0.01450000 0.01448870 82322.63475667 0 -7394.29027264 0 -12888.41450171 0 13707.94304422 0 31113.69115097 0 267
0.01550000 0.01550050 86804.03288360 0 -1326.18551030 0 -18287.38735217 0 -24785.16508428 0 9970.40931421 0 238
0.01650000 0.01653350 83631.28508459 0 8547.48638413 0 5287.83905703 0 -15418.31652560 0 30257.78348248 0 315
0.01750000 0.01747870 82557.43539606 0 3203.81424166 0 18227.71671259 0 -17134.12469349 0 12149.07531314 0 297
0.01850000 0.01844180 73703.66560821 0 -61.63866157 0 21029.24214974 0 1029.71670675 0 4335.00541841 0 388
0.01950000 0.01947590 82129.09336992 0 3354.15541629 0 30291.83345711 0 8882.97290942 0 -1611.24036306 0 399
0.02050000 0.02045430 74865.80122444 0 1430.20984647 0 20044.23294877 0 496.17135020 0 10630.41317101 0 462
0.02150000 0.02154770 72725.64386131 0 441.76015621 0 23941.12499652 0 8410.34373387 0 11681.80318572 0 571
0.02250000 0.02255340 73996.58411961 0 2841.12101026 0 27159.90126287 0 9946.34141683 0 20637.05742565 0 510
0.02350000 0.02348930 67001.69894027 0 -90.15623625 0 11030.96065760 0 1620.03568224 0 13615.22063773 0 555
0.02450000 0.02439640 73169.18082727 0 1403.92370971 0 9427.70595634 0 5796.07097479 0 14005.07621046 0 592
0.02550000 0.02547300 64620.19713155 0 1676.72278984 0 16622.82051418 0 1600.11589252 0 23036.97062131 0 837
0.02650000 0.02652900 66499.93319034 0 -1233.44092141 0 13006.86848512 0 12255.43989188 0 27000.07711484 0 723
0.02750000 0.02749970 66898.10716078 0 -2478.93797391 0 3441.65386902 0 11984.59286240 0 30892.53268382 0 826
0.02850000 0.02848090 67705.65721058 0 3886.13358672 0 12114.58169064 0 -1506.82783499 0 29133.13611193 0 831
0.02950000 0.02946900 60761.45880130 0 5738.77385136 0 8117.01484818 0 -2767.18709140 0 36468.96468545 0 996
0.03050000 0.03053250 57790.01622690 0 1428.37979898 0 25154.39103069 0 1910.20357680 0 39718.35265537 0 1041
0.03150000 0.03150510 56017.97569048 0 2013.32952603 0 20948.16550005 0 -3508.84434013 0 30408.29102506 0 1036
0.03250000 0.03246190 52723.00290110 0 2914.91074355 0 30816.22524882 0 -705.66964199 0 30313.57220313 0 1059
0.03350000 0.03345080 51260.73949545 0 1690.64224201 0 30326.54890356 0 -1337.62053435 0 24522.30371661 0 1302
0.03450000 0.03451200 51335.49416288 0 104.84630478 0 35348.64288171 0 1122.30712799 0 26757.29081365 0 1339
0.03550000 0.03553350 52501.17896214 0 421.24255097 0 36846.06538169 0 3115.22885164 0 17222.41062120 0 1365
0.03650000 0.03647120 48227.07530617 0 906.50349073 0 29488.38715018 0 3805.47840251 0 21130.72660181 0 1308
0.03750000 0.03744890 50687.65734913 0 -1266.45941473 0 26470.80519648 0 6948.61270567 0 17571.11785325 0 1579
0.03850000 0.03847530 52186.41079275 0 -2266.90756185 0 18758.31957459 0 10121.93724692 0 17028.42558658 0 1662
0.03950000 0.03950240 53696.25543331 0 72.23574569 0 15265.03618378 0 2719.32857657 0 10194.20748623 0 1683
0.04050000 0.04050350 51005.97470155 0 1019.92207073 0 11681.58136178 0 1640.06638393 0 13852.01769257 0 1822
0.04150000 0.04152450 51071.63458748 0 436.45856407 0 7846.66692257 0 1097.57597704 0 14035.57700207 0 1887
0.04250000 0.04250150 47278.11249528 0 185.95611715 0 8538.35832904 0 -410.03822382 0 5203.98960811 0 1920
0.04350000 0.04349210 48419.39666125 0 2011.22219861 0 4433.66161526 0 -2137.50656706 0 480.36306719 0 2005
0.04450000 0.04448520 45065.86235199 0 2709.57941445 0 10520.71014199 0 -5087.47658416 0 -1729.86071442 0 2151
0.04550000 0.04548030 40693.60160303 0 2902.05604629 0 10392.35171971 0 -5273.14322108 0 -2558.40640005 0 2274
0.04650000 0.04648670 39757.17184469 0 1720.72156814 0 16033.76704426 0 -1234.47240273 0 -3376.09380386 0 2311
0.04750000 0.04749250 37903.05645086 0 -254.07603057 0 15212.24208630 0 2805.78445678 0 -5934.45583912 0 2568
0.04850000 0.04851840 37702.74943397 0 662.15111253 0 15572.26233924 0 4260.62785167 0 -1215.31790560 0 2493
0.04950000 0.04949480 36984.81625551 0 248.67239942 0 10816.68982375 0 2717.85344737 0 1986.74392694 0 2644
0.05050000 0.05050630 36023.20948010 0 39.43763446 0 12096.83577552 0 5073.53494960 0 8041.36179379 0 2829
0.05150000 0.05149060 35569.02496507 0 579.70026353 0 9343.72341305 0 2172.99839729 0 5621.16279892 0 2784
0.05250000 0.05249300 35530.09486378 0 556.70155754 0 10296.86760518 0 1072.45774331 0 12728.03579384 0 3055
0.05350000 0.05348950 33000.30375186 0 1681.74710206 0 8860.42450603 0 -3045.78686754 0 10017.74654279 0 3009
0.05450000 0.05448610 32395.50078228 0 1837.65605756 0 14014.50372787 0 -2716.94396922 0 10278.81113655 0 3336
0.05550000 0.05550870 30827.64918168 0 238.55722780 0 16129.81680983 0 -2722.84448600 0 4813.05818927 0 3349
0.05650000 0.05647670 31096.49979570 0 -290.31762572 0 17374.91457924 0 -1397.02498520 0 3050.11243435 0 3324
0.05750000 0.05747970 31931.77783787 0 -509.55509755 0 17970.62276733 0 171.94128069 0 -879.97223851 0 3639
0.05850000 0.05849280 33217.91303599 0 -761.26648494 0 16650.88124246 0 211.87402618 0 -2567.01316888 0 3846
0.05950000 0.05951020 34115.30178107 0 -392.72486538 0 15777.22765885 0 -986.64404340 0 -3869.18623778 0 3787
0.06050000 0.06049470 35229.07977861 0 181.56400316 0 18036.94812508 0 -267.16697033 0 -7520.02008124 0 3930
0.06150000 0.06148310 33924.42228159 0 959.49722975 0 16535.86553011 0 116.28787264 0 -5928.88805825 0 4083
0.06250000 0.06249100 32295.12544990 0 566.78678293 0 16207.45518847 0 1303.65928929 0 -6422.10249534 0 4303
0.06350000 0.06350600 31713.05943405 0 724.96056084 0 15279.23291587 0 742.75084075 0 -4945.25416570 0 4470
0.06450000 0.06451750 31530.83106819 0 262.28240719 0 13781.81041589 0 2267.53976008 0 -5227.82459035 0 4479
0.06550000 0.06550280 30555.24938463 0 -67.25557644 0 14069.18332882 0 2597.64705485 0 -3034.09674596 0 4636
0.06650000 0.06648880 29819.12664317 0 561.97098521 0 10509.79640420 0 464.60913104 0 -3746.15159003 0 4653
0.06750000 0.06749660 30359.93340637 0 139.10246477 0 11539.72495281 0 120.25075731 0 -2245.93410842 0 5220
0.06850000 0.06852730 29342.20517440 0 355.69246789 0 11874.01362883 0 306.51299150 0 -3312.24178303 0 5029
0.06950000 0.06949320 29098.19884154 0 584.81219621 0 11619.47065887 0 -1668.65948966 0 -3293.48656899 0 5040
0.07050000 0.07048030 28505.04162875 0 72.64223806 0 11580.87329349 0 771.52362387 0 -3326.90434539 0 5475
0.07150000 0.07148790 29128.03416133 0 -114.50551729 0 12575.08818793 0 922.39495772 0 -3775.54326195 0 5509
0.07250000 0.07249820 28955.23331288 0 -190.19073615 0 9491.24742365 0 2256.14910081 0 -2564.12945767 0 5916
0.07350000 0.07351270 28880.81138135 0 214.42389236 0 9135.92983822 0 1575.99253916 0 -3137.40015433 0 5721
0.07450000 0.07449140 28274.45564420 0 747.98255835 0 8123.58083677 0 469.79315649 0 -680.97509199 0 6028
0.07550000 0.07549160 27086.03389119 0 228.20359545 0 7379.47243352 0 999.06063839 0 -1279.69121269 0 6183
0.07650000 0.07648840 26170.12284721 0 531.76300120 0 6986.42259606 0 -12.99145172 0 -1802.92951992 0 6330
0.07750000 0.07749960 25861.56574811 0 928.61933745 0 7335.21855769 0 -121.18130874 0 -312.37025261 0 6583
0.07850000 0.07848650 24623.89908066 0 380.15632100 0 6190.61812383 0 -554.61197604 0 -2821.48959166 0 6549
0.07950000 0.07947320 24782.61410899 0 111.09386511 0 7102.22578340 0 65.76347771 0 -1986.35573505 0 6828
0.08050000 0.08048110 23898.64571221 0 504.72709952 0 6089.49968126 0 -66.18239222 0 -4172.49720072 0 7147
0.08150000 0.08149960 23844.07702323 0 198.56015337 0 6325.84199702 0 141.15211796 0 -3926.42790523 0 7386
0.08250000 0.08250610 23401.53826499 0 439.28016457 0 6648.38509548 0 -756.97862819 0 -2663.71731507 0 7227
0.08350000 0.08350160 22390.68657513 0 782.22219245 0 7634.93597282 0 384.18686197 0 -2801.03742449 0 7798
0.08450000 0.08449610 22112.96300355 0 310.18528681 0 6937.58805590 0 1057.20291103 0 -919.30827761 0 7371
0.08550000 0.08548940 21546.75739934 0 -53.86495254 0 6970.92819393 0 2141.02247649 0 1146.89631163 0 8256
0.08650000 0.08650700 21798.08392219 0 -57.11223318 0 6401.20668029 0 2087.82909593 0 3918.68624976 0 8037
0.08750000 0.08749060 21388.59693086 0 238.99754832 0 5205.12091019 0 983.38544974 0 3373.27663983 0 8155
0.08850000 0.08849210 21123.62823577 0 635.78068266 0 5664.91757088 0 -594.58797720 0 6918.68865630 0 8718
0.08950000 0.08949900 20041.68197347 0 376.26774735 0 7224.52841215 0 -529.79653198 0 5260.37725339 0 8571
0.09050000 0.09049190 19849.02788248 0 503.50706786 0 7592.46777971 0 -109.58224588 0 6034.95317466 0 8932
0.09150000 0.09150830 19200.63650889 0 432.50011588 0 8118.61198054 0 -816.69030521 0 4257.82177885 0 9285
0.09250000 0.09250820 18601.49004974 0 518.33821642 0 8004.19519282 0 -26.01961530 0 4079.79697663 0 9204
0.09350000 0.09350330 18769.96533139 0 269.91093245 0 9051.99165972 0 -2.21888268 0 3643.18091757 0 9349
0.09450000 0.09448040 18167.49151316 0 -118.93090488 0 7974.47078500 0 371.96879941 0 2903.54226668 0 9564
0.09550000 0.09549270 17870.91290676 0 119.47659177 0 8138.84232377 0 691.41856303 0 2575.08756026 0 10155
0.09650000 0.09649430 17875.01664963 0 406.12081305 0 6920.52979499 0 -862.51913100 0 1615.68793304 0 9913
0.09750000 0.09749140 17731.82929703 0 188.76884470 0 7636.79929391 0 271.36720661 0 1658.35576770 0 10476
0.09850000 0.09850240 16916.51540937 0 74.01000447 0 7304.12993265 0 410.54730976 0 405.92782623 0 10575
0.09950000 0.09950330 17383.56571286 0 145.93020561 0 6294.54263924 0 206.39719313 0 660.31773767 0 10882
0.10050000 0.10051200 16958.55104580 0 -253.04122189 0 6120.15574962 0 1123.12787657 0 105.87434783 0 10875
0.10150000 0.10150300 17406.19175463 0 -154.07114417 0 5035.71396801 0 837.83123571 0 -54.40254285 0 11118
0.10250000 0.10250800 17043.06596655 0 344.67890932 0 3918.32024026 0 -91.97607984 0 378.69782860 0 11575
0.10350000 0.10349800 16823.01661909 0 140.70957920 0 4991.61536894 0 -3.91946263 0 -309.02182025 0 11364
0.10450000 0.10450100 16557.71518809 0 264.28325912 0 4492.04567600 0 150.63730959 0 558.07242948 0 12093
0.10550000 0.10551000 15935.16630339 0 247.96699929 0 4522.20264050 0 398.03200312 0 491.03612601 0 12067
0.10650000 0.10649700 16085.56293401 0 152.91322321 0 3650.19055404 0 580.00416233 0 1943.58807962 0 12054
0.10750000 0.10749900 15708.12950186 0 -65.07626715 0 4639.83587533 0 1164.91950667 0 1875.97614302 0 12807
0.10850000 0.10850100 15856.86245293 0 162.56589191 0 3370.35965504 0 145.34791777 0 2673.51084198 0 12736
0.10950000 0.10950300 15536.65959704 0 401.00000742 0 4127.72203864 0 -281.99590065 0 2547.23756472 0 12933
0.11050000 0.11050200 15030.12463241 0 325.00201681 0 4585.61101345 0 -1045.67804828 0 2403.24055474 0 13428
0.11150000 0.11150900 14742.86263146 0 165.95757994 0 4758.72241542 0 -193.87634089 0 2145.12621936 0 13453
0.11250000 0.11250000 15010.71503775 0 0.74613476 0 5822.68984747 0 -245.56131867 0 1335.71284847 0 13668
0.11350000 0.11349100 14883.38809679 0 -56.01320648 0 5422.47509679 0 103.62327850 0 1176.83145219 0 13791
0.11450000 0.11448600 14781.57090880 0 198.65442854 0 4959.75036011 0 -318.24304139 0 -13.27682822 0 14205
0.11550000 0.11549300 14545.10658987 0 440.63661796 0 6271.43967599 0 -845.97217427 0 849.75649067 0 14776
0.11650000 0.11649800 14228.12018109 0 190.99928441 0 6079.79488393 0 -89.69362242 0 -254.36883817 0 14553
0.11750000 0.11747300 14169.00410135 0 29.16064228 0 6132.03442155 0 504.94337786 0 -524.05794668 0 14568
0.11850000 0.11849100 13912.24289200 0 131.67579929 0 6048.10733424 0 -90.85531439 0 -743.57269844 0 16015
0.11950000 0.11950300 13744.32217021 0 225.38310407 0 6012.08312656 0 315.34712987 0 -250.52906579 0 15270
0.12050000 0.12050700 13643.39227798 0 -64.91322655 0 5912.89455225 0 382.54425570 0 -259.95214671 0 15999
0.12150000 0.12150000 13663.13460855 0 -160.39201731 0 4770.40144581 0 1033.79050339 0 306.71152393 0 15670
0.12250000 0.12250700 14108.77890193 0 -332.01165329 0 4278.44031397 0 1102.42283010 0 384.27670067 0 16887
0.12350000 0.12352200 14325.27906635 0 3.71779140 0 3552.18873780 0 432.35593032 0 503.08005678 0 16407
0.12450000 0.12449800 13932.31795848 0 330.60861687 0 3764.09714670 0 -368.20555629 0 929.58648982 0 16306
0.12550000 0.12549900 13835.71363306 0 361.41663464 0 3986.19836559 0 -441.64813512 0 1472.47839804 0 17523
0.12650000 0.12650100 13086.72510315 0 152.17011301 0 4168.50436982 0 376.54169991 0 1215.66173271 0 17154
0.12750000 0.12750600 13032.82188598 0 92.60439615 0 3743.57843234 0 659.80199701 0 1397.00280281 0 18007
0.12850000 0.12850300 13017.07238631 0 139.05477262 0 3835.91264694 0 -142.12148857 0 909.73768376 0 17496
0.12950000 0.12949900 12514.19751668 0 383.69663106 0 4087.90464160 0 -7.59766955 0 1412.09792186 0 18405
0.13050000 0.13049000 12171.14679507 0 300.46052533 0 3924.99714082 0 -406.23283414 0 913.68614988 0 18100
0.13150000 0.13148800 12119.01816941 0 -106.53150125 0 3759.54975595 0 370.09771449 0 1529.74224789 0 19059
0.13250000 0.13249300 11974.94352106 0 8.10295121 0 3442.00878732 0 460.18928906 0 -119.85036510 0 18957
0.13350000 0.13349100 12012.43176674 0 184.45880557 0 2978.31911651 0 81.53715619 0 519.26765872 0 19468
0.13450000 0.13450700 11818.33582015 0 -23.85128630 0 2958.48805636 0 -28.08446344 0 125.73535420 0 19953
0.13550000 0.13551000 11824.10324256 0 -218.00634897 0 2601.59552096 0 725.12027408 0 149.34296691 0 19956
0.13650000 0.13649900 12166.71031629 0 -123.67793717 0 1602.73341500 0 614.39574583 0 159.43373789 0 19723
0.13750000 0.13749600 12150.73899269 0 96.41932425 0 1847.17230454 0 -288.98779120 0 -597.48277960 0 20946
0.13850000 0.13851100 12082.08448358 0 451.82209008 0 2013.36279962 0 -643.27278620 0 61.85105799 0 20955
0.13950000 0.13949800 11420.49458562 0 334.23211091 0 2963.97819885 0 -722.90203469 0 -665.39417851 0 20506
0.14050000 0.14048300 11129.12884179 0 312.33143342 0 3179.77961787 0 -565.72757362 0 -215.57294036 0 21447
0.14150000 0.14148400 11001.49134731 0 75.60536224 0 3616.72841285 0 491.72156198 0 -858.05048774 0 21771
0.14250000 0.14249400 10810.09056157 0 -8.61073948 0 3405.40783739 0 158.73942896 0 -463.35249843 0 22470
0.14350000 0.14350900 10727.70515064 0 189.26129384 0 3024.71359334 0 130.03430214 0 -243.31202393 0 22519
0.14450000 0.14449900 10797.15822593 0 120.97390335 0 3363.83803123 0 15.53388680 0 -106.75166151 0 22218
0.14550000 0.14550500 10311.21961404 0 132.67511613 0 3049.72424246 0 408.86588430 0 -68.50666345 0 23559
0.14650000 0.14650700 10153.38079027 0 213.40682960 0 2938.18007475 0 247.45347687 0 394.24214112 0 23044
0.14750000 0.14750500 10031.12252631 0 -11.36437313 0 2533.29593016 0 457.45419989 0 630.16299141 0 23649
0.14850000 0.14849900 9947.38398935 0 85.57490644 0 2489.30824306 0 191.16565236 0 359.79288340 0 23640
0.14950000 0.14949500 9793.06107501 0 235.04575485 0 2333.43256115 0 -153.14502922 0 290.98087930 0 24457
0.15050000 0.15050000 9492.72255285 0 169.93155580 0 2534.38286746 0 -341.56117386 0 984.95818147 0 24591
0.15150000 0.15149900 9475.38701202 0 31.21927935 0 2802.36836812 0 35.87514200 0 504.64835202 0 25020
0.15250000 0.15250500 9393.56725213 0 40.43306939 0 2798.71936432 0 -200.55435058 0 63.60291255 0 25297
0.15350000 0.15350100 9266.26249356 0 130.08088517 0 2868.25007799 0 10.33466640 0 38.24300164 0 25452
0.15450000 0.15450400 9402.76185440 0 60.16275599 0 3036.63663006 0 93.28184646 0 476.28261583 0 26061
0.15550000 0.15549900 9311.71421865 0 -48.14267130 0 3163.07627527 0 -17.54028433 0 131.14564007 0 26128
0.15650000 0.15649500 9291.88315851 0 146.65889725 0 3104.17092828 0 131.39408289 0 281.56999869 0 26331
0.15750000 0.15749700 9351.24324458 0 103.10653963 0 3265.80294140 0 -227.05122009 0 304.70845376 0 27345
0.15850000 0.15849900 8930.33232039 0 145.26140643 0 3288.27370642 0 -130.16406914 0 182.10969005 0 26980
0.15950000 0.15949700 8944.59559967 0 177.08759607 0 3490.52168277 0 128.96067428 0 137.02286534 0 27777
0.16050000 0.16050000 8668.67989319 0 105.14798534 0 3653.22954200 0 -75.48291542 0 423.77688948 0 28224
0.16150000 0.16150500 8531.70361088 0 60.71343392 0 3247.61337841 0 379.07492930 0 208.11854690 0 28075
0.16250000 0.16249700 8665.10852777 0 -127.98464894 0 3133.31859386 0 510.76625626 0 517.29564390 0 28590
0.16350000 0.16349900 8625.46858988 0 -12.03017768 0 2499.57869143 0 297.42708296 0 784.71105704 0 29163
0.16450000 0.16449100 8804.24759348 0 -34.07404253 0 2389.48747053 0 407.23326011 0 992.09980318 0 28996
0.16550000 0.16550500 8788.32063467 0 -55.38666476 0 2261.27323380 0 49.00101903 0 703.70428189 0 30777
0.16650000 0.16650700 8739.25317937 0 142.38767730 0 2004.64511882 0 37.02208268 0 602.09560841 0 29211
0.16750000 0.16749900 8639.82059873 0 168.12479982 0 2241.47544725 0 -248.22320594 0 668.91563355 0 30922
0.16850000 0.16850800 8478.26622398 0 100.65516328 0 2241.02070818 0 31.40727513 0 745.74102745 0 30867
0.16950000 0.16949900 8243.39903740 0 187.38355420 0 2436.83579030 0 -190.08204242 0 443.90186634 0 30852
0.17050000 0.17049200 8099.53512179 0 212.38865772 0 2743.85121302 0 -112.54903015 0 164.87840647 0 31257
0.17150000 0.17149500 7841.66479274 0 92.99746817 0 2596.74866790 0 -117.20178727 0 119.89805725 0 32608
0.17250000 0.17250900 7889.35693962 0 15.94747753 0 2696.29216051 0 91.89400499 0 147.57281187 0 32361
0.17350000 0.17350400 7939.20077870 0 -116.98218157 0 2301.57864351 0 495.70662904 0 97.01935801 0 32508
0.17450000 0.17449800 8125.37761068 0 -164.25840856 0 1858.68496698 0 371.56618896 0 188.37177985 0 32791
0.17550000 0.17549800 8117.18121613 0 42.36437951 0 1872.31604803 0 139.23888649 0 -229.44026391 0 33633
0.17650000 0.17650100 8023.03913644 0 242.82512039 0 1828.93837676 0 -407.72238189 0 30.00789882 0 33984
0.17750000 0.17750300 7839.85692764 0 159.33391712 0 2077.68065072 0 -243.21442140 0 5.58265416 0 34069
0.17850000 0.17849800 7616.01439083 0 23.29595007 0 2146.95626686 0 114.82716200 0 180.81867473 0 34536
