### header ###
fiducial parameters:
Omega_m = 0.31
Omega_nu = 0
Omega_de = 0.69
Omega_k = 0
H_0 = 100
w_de = -1
zeff = 0
beta = 0
fgrowth = 0
b_1 = 2
gamma = 0.55
Lx = 3500 Ly = 3500 Lz = 3500
nx = 700 ny = 700 nz = 700
xoffset = 1379.75464 yoffset = 22.6059522 zoffset = 368.141391
bins = 400 dk = 0.001
kx_ny = 0.628318531 ky_ny = 0.628318531 kz_ny = 0.628318531
############################
A(data) = 3.36145728 (not used)
A(ran) = 3.35661331 (used)
Ngal = 188098
weighted Ngal = 0
Nran = 9399747
weighted Nran = 0
SN(data) = 6636.07548
SN(ran) = 133.51058
SN(data+ran) = 6769.58606
############################
13 columns: k_central k_mean P_0(k) sigma^{lin}_{P_0(k)} P^img_1(k) sigma^{lin}_{P_1(k)} P_2(k) sigma^{lin}_{P_2(k)} P^img_3(k) sigma^{lin}_{P_3(k)} P_4(k) sigma^{lin}_{P_4(k)} N_modes
### header ###
0.00050000 0 0 0 0 0 0 0 0 0 0 0 0
0.00150000 0.00179520 33854.54774082 0 -33943.16640443 0 -68008.33597529 0 88410.81458549 0 37446.54278447 0 3
0.00250000 0.00253879 54083.22729483 0 -24776.40303870 0 10716.48085933 0 -99916.48956367 0 -40993.61848048 0 6
0.00350000 0.00331552 73631.01826820 0 -19629.64400684 0 -75812.32397200 0 21716.67453659 0 50357.69423992 0 7
0.00450000 0.00420575 82167.13617546 0 -12065.22586422 0 -23571.01175436 0 -37358.81141661 0 -5240.05818058 0 24
0.00550000 0.00557378 108646.48159358 0 -7122.77777135 0 -46356.32311691 0 -35131.36633350 0 10944.02785592 0 45
0.00650000 0.00659388 105772.19790445 0 -484.23722228 0 57851.79419390 0 -21406.78649386 0 -69136.86526478 0 40
0.00750000 0.00754703 104779.42486561 0 14131.95950355 0 -24513.43075905 0 -24858.25607217 0 -14250.19166302 0 57
0.00850000 0.00846663 94842.26695985 0 12924.90453967 0 52860.20100735 0 -18946.53718680 0 -13481.12806663 0 75
0.00950000 0.00948925 76936.19495877 0 14965.24113027 0 50463.94790669 0 -14736.98429707 0 3380.26409391 0 112
0.01050000 0.01054430 73709.54394259 0 -721.86611690 0 59103.32485754 0 34734.96695457 0 -16834.66237589 0 105
0.01150000 0.01145670 69702.95995701 0 -2736.16501354 0 50158.71816667 0 16766.22969072 0 2143.59563418 0 144
0.01250000 0.01249090 75934.54896237 0 -88.32075407 0 46965.67347725 0 6473.52128439 0 2651.33953928 0 169
0.01350000 0.01339930 80114.26653231 0 -5118.55411801 0 33578.37693680 0 27861.53038181 0 9175.28140499 0 180
0.01450000 0.01448870 91085.56764152 0 -12243.46139917 0 16931.48852525 0 16379.70147707 0 18046.81929036 0 267
0.01550000 0.01550050 98592.42247199 0 -5129.20166708 0 18546.69953682 0 5996.72181878 0 -27915.76633489 0 238
0.01650000 0.01653350 108084.37973225 0 3707.95350775 0 5764.53870187 0 -18294.04207034 0 9589.45997263 0 315
0.01750000 0.01747870 104676.38764597 0 8581.86909467 0 29104.18808789 0 -15153.01509460 0 -15610.85970462 0 297
0.01850000 0.01844180 89601.67640182 0 7187.52817913 0 19556.22028305 0 -187.88709454 0 8576.23476662 0 388
0.01950000 0.01947590 88196.19992454 0 3480.43978475 0 49485.37159995 0 3624.60316268 0 -7026.33981388 0 399
0.02050000 0.02045430 80119.70121881 0 3669.98834059 0 22595.20824686 0 9082.83627843 0 3777.58404219 0 462
0.02150000 0.02154770 77296.10429974 0 -532.05137232 0 30774.41143632 0 11307.69711265 0 1419.04101115 0 571
0.02250000 0.02255340 80335.97955930 0 395.18932934 0 24196.00070239 0 5007.12086228 0 3917.79895401 0 510
0.02350000 0.02348930 77876.17390013 0 1298.63497708 0 24711.18680064 0 -1870.16435582 0 2851.41364102 0 555
0.02450000 0.02439640 73742.48479753 0 2787.66144097 0 17154.19975997 0 -1018.01771221 0 -14382.06599473 0 592
0.02550000 0.02547300 70843.80047511 0 3056.61187576 0 22564.15289540 0 -2650.54097310 0 2400.87812979 0 837
0.02650000 0.02652900 64774.58659307 0 3190.22752540 0 20722.45964215 0 6320.97296156 0 -9934.40728892 0 723
0.02750000 0.02749970 63430.11169901 0 2238.58064485 0 19006.42965032 0 4622.40051373 0 8179.86866128 0 826
0.02850000 0.02848090 58003.07812027 0 544.38256509 0 13665.24193597 0 6966.64699191 0 3485.24227302 0 831
0.02950000 0.02946900 59375.17009474 0 917.56474145 0 14844.45799550 0 6857.62052590 0 9828.70818200 0 996
0.03050000 0.03053250 55504.12053587 0 2029.93304786 0 14109.11163783 0 -1695.77746620 0 11399.64313535 0 1041
0.03150000 0.03150510 52073.83514372 0 2262.64854223 0 8337.54111710 0 1989.83837089 0 7444.35593566 0 1036
0.03250000 0.03246190 50277.94853387 0 392.96887171 0 13933.20525424 0 -3493.84904186 0 9630.29775979 0 1059
0.03350000 0.03345080 48847.84959936 0 1333.23951155 0 16890.22927260 0 -641.50595853 0 2643.64224859 0 1302
0.03450000 0.03451200 51258.29943212 0 356.22262710 0 14581.04206798 0 75.73501833 0 -141.89300992 0 1339
0.03550000 0.03553350 48364.38432439 0 -458.97480299 0 13308.32721817 0 1756.40194872 0 -1602.92196535 0 1365
0.03650000 0.03647120 48638.78053689 0 -524.13114858 0 8469.61509036 0 910.46859364 0 650.31680538 0 1308
0.03750000 0.03744890 50053.12997173 0 -192.77276680 0 10184.22540898 0 408.33794332 0 -6856.31176466 0 1579
0.03850000 0.03847530 50444.31648809 0 1354.27951217 0 7857.99103465 0 720.78139783 0 -3206.33194337 0 1662
0.03950000 0.03950240 48626.58022024 0 813.29196246 0 9891.04070885 0 -507.79492460 0 -1618.81565058 0 1683
0.04050000 0.04050350 47060.83594706 0 -286.16064510 0 6958.10677026 0 231.33020387 0 -4536.66556132 0 1822
0.04150000 0.04152450 47480.74866352 0 1830.14731723 0 8734.88324777 0 -3334.41308573 0 -8530.59449118 0 1887
0.04250000 0.04250150 43788.15646355 0 2206.08343779 0 11357.05293907 0 -1062.95036929 0 -7599.76578730 0 1920
0.04350000 0.04349210 42432.03581269 0 344.21751553 0 10911.65265202 0 909.82752246 0 -1836.08110760 0 2005
0.04450000 0.04448520 42695.89538809 0 145.12387559 0 11513.10608013 0 4118.79362510 0 -6172.73911435 0 2151
0.04550000 0.04548030 42241.93269700 0 -570.05979515 0 10262.30743549 0 2364.33263585 0 -2284.93075689 0 2274
0.04650000 0.04648670 42859.60145505 0 777.65705579 0 7535.73630732 0 -1001.40864478 0 -4436.10167859 0 2311
0.04750000 0.04749250 40375.28425061 0 2304.71745225 0 11958.52854957 0 -1831.48935206 0 826.96408094 0 2568
0.04850000 0.04851840 38676.33470209 0 1079.70805875 0 12412.15850476 0 -451.43167995 0 3833.35058044 0 2493
0.04950000 0.04949480 37637.53319592 0 615.29856926 0 16911.08072286 0 601.69521620 0 562.44347020 0 2644
0.05050000 0.05050630 37929.12076368 0 409.27514947 0 13216.82484335 0 882.09731185 0 2811.88461510 0 2829
0.05150000 0.05149060 36024.09677586 0 629.85021965 0 16704.22989978 0 1903.80395616 0 3164.41831010 0 2784
0.05250000 0.05249300 37244.35026410 0 321.09347901 0 12457.07785240 0 1938.79668253 0 10121.87069974 0 3055
0.05350000 0.05348950 35898.87716231 0 -722.35967516 0 13246.10560329 0 4604.92078734 0 6547.38865607 0 3009
0.05450000 0.05448610 36486.71060057 0 -295.74343927 0 11214.08741041 0 1883.78434567 0 11062.61493369 0 3336
0.05550000 0.05550870 36676.59189232 0 515.88928013 0 7080.77540850 0 1955.68857549 0 8933.30476117 0 3349
0.05650000 0.05647670 36044.06093036 0 352.83981204 0 8129.88063664 0 -1282.68583586 0 9162.38234294 0 3324
0.05750000 0.05747970 34345.99867759 0 860.77115836 0 8936.49902589 0 -162.51930888 0 7995.42205603 0 3639
0.05850000 0.05849280 33661.33908998 0 1202.49648193 0 10404.87368107 0 -2053.44638539 0 2428.71703413 0 3846
0.05950000 0.05951020 32830.94117446 0 933.58264808 0 11710.19664990 0 -2516.73677311 0 5993.83810758 0 3787
0.06050000 0.06049470 31219.72299380 0 584.65359209 0 10014.37481891 0 1482.72666402 0 -57.74997701 0 3930
0.06150000 0.06148310 31502.54851598 0 -342.07802364 0 11427.81477560 0 1010.66424863 0 2552.53915686 0 4083
0.06250000 0.06249100 31752.87683110 0 -171.50761489 0 9976.19891902 0 1577.48985075 0 1079.27882943 0 4303
0.06350000 0.06350600 31442.54514049 0 581.58909437 0 11384.78093144 0 -154.73439774 0 3092.56953627 0 4470
0.06450000 0.06451750 31277.06448202 0 -58.75672495 0 8145.13103244 0 1990.35965715 0 2571.74910998 0 4479
0.06550000 0.06550280 30997.78814286 0 -543.89011595 0 8380.77460280 0 696.22881515 0 3406.62786906 0 4636
0.06650000 0.06648880 32268.39566525 0 -795.45509953 0 7459.57305788 0 2242.15201026 0 3050.61153821 0 4653
0.06750000 0.06749660 31967.04784417 0 18.80146433 0 5192.73204320 0 920.38523283 0 2876.30228698 0 5220
0.06850000 0.06852730 32130.86482309 0 417.57801950 0 5109.21533018 0 -278.84378248 0 4266.68364521 0 5029
0.06950000 0.06949320 31528.83465274 0 766.23755941 0 5201.88228069 0 -504.53965829 0 2642.21148419 0 5040
0.07050000 0.07048030 30961.96357672 0 659.06110506 0 6924.67790265 0 -562.26490193 0 3564.15613931 0 5475
0.07150000 0.07148790 29447.46063344 0 860.74010300 0 7526.51952265 0 -1916.63647103 0 342.21111800 0 5509
0.07250000 0.07249820 29293.18208389 0 818.32071116 0 8480.59537534 0 -581.43936322 0 1275.07727476 0 5916
0.07350000 0.07351270 28027.67651210 0 234.01871001 0 8574.42690152 0 1140.70742373 0 2150.62745305 0 5721
0.07450000 0.07449140 27739.85995129 0 -62.63853297 0 7546.30621801 0 2003.35853997 0 2660.16813205 0 6028
0.07550000 0.07549160 28221.77245869 0 233.94439899 0 6501.55983028 0 2607.66240569 0 3421.96699444 0 6183
0.07650000 0.07648840 26828.27447412 0 760.04645327 0 7642.72199308 0 -686.82237102 0 3108.50758628 0 6330
0.07750000 0.07749960 25878.42436747 0 2050.01920553 0 8989.21548499 0 -2837.93783673 0 4912.00275725 0 6583
0.07850000 0.07848650 23827.77296371 0 944.78919348 0 8970.56009172 0 -1291.24823991 0 3283.32703258 0 6549
0.07950000 0.07947320 23053.27468082 0 -56.73069601 0 10836.08832722 0 -111.62180609 0 2247.85288550 0 6828
0.08050000 0.08048110 22925.61500395 0 235.52378543 0 10441.79627571 0 616.10046280 0 498.27091378 0 7147
0.08150000 0.08149960 23059.92939899 0 260.89489845 0 10372.47629478 0 -442.82491112 0 691.28435955 0 7386
0.08250000 0.08250610 22844.76017819 0 134.90111936 0 10211.44320629 0 832.50857029 0 198.98716445 0 7227
0.08350000 0.08350160 22225.31682863 0 -177.90612641 0 9812.25993693 0 985.69574606 0 -320.55888332 0 7798
0.08450000 0.08449610 22627.70545392 0 249.24026870 0 9086.45200863 0 22.64334404 0 215.66499730 0 7371
0.08550000 0.08548940 22089.22784208 0 262.86136767 0 8362.07484475 0 332.83462010 0 -1468.75175587 0 8256
0.08650000 0.08650700 22238.40444103 0 -137.82032240 0 8711.41427503 0 593.49660342 0 847.11567667 0 8037
0.08750000 0.08749060 21989.40706955 0 525.38223560 0 9076.55866096 0 -386.82767596 0 -1727.72011341 0 8155
0.08850000 0.08849210 21547.97743101 0 308.88096205 0 8468.99398333 0 -1001.26113186 0 -1026.67882791 0 8718
0.08950000 0.08949900 21058.85564559 0 595.00389708 0 9811.26172920 0 -314.49421683 0 -1388.42930757 0 8571
0.09050000 0.09049190 20686.30234010 0 374.14378313 0 9959.37357325 0 -206.28295380 0 -1291.38133427 0 8932
0.09150000 0.09150830 20244.98361353 0 232.01453072 0 11003.62085712 0 776.93501886 0 -208.12409249 0 9285
0.09250000 0.09250820 20297.00132722 0 74.72294661 0 9362.56735666 0 1586.79536499 0 311.76689150 0 9204
0.09350000 0.09350330 20124.64412664 0 -210.05063340 0 9841.05268420 0 1082.61727971 0 1963.68532849 0 9349
0.09450000 0.09448040 19902.93109965 0 166.99017037 0 8837.74300827 0 214.76550123 0 1033.66295462 0 9564
0.09550000 0.09549270 20429.65204272 0 143.31268313 0 9272.00773358 0 416.45004477 0 2696.58053163 0 10155
0.09650000 0.09649430 19325.96703440 0 269.68023556 0 8292.89904938 0 160.63491452 0 543.02167523 0 9913
0.09750000 0.09749140 19414.03113817 0 426.65172773 0 8322.62345720 0 400.53972275 0 2408.09849900 0 10476
0.09850000 0.09850240 18548.14139242 0 134.77689796 0 7212.74956099 0 152.54055899 0 239.91035383 0 10575
0.09950000 0.09950330 18328.64660482 0 254.74704799 0 7262.54903529 0 1511.57486729 0 2530.48985733 0 10882
0.10050000 0.10051200 17935.68549694 0 -5.63406186 0 4998.76919097 0 1743.30324512 0 1180.69118873 0 10875
0.10150000 0.10150300 17707.09592784 0 -66.97696557 0 4546.65872977 0 1266.52596191 0 1474.24189836 0 11118
0.10250000 0.10250800 17425.49043732 0 264.93653062 0 3057.01115885 0 527.86666372 0 1560.71996096 0 11575
0.10350000 0.10349800 16961.10202110 0 364.57208017 0 3007.42241730 0 -372.81062126 0 1176.47653389 0 11364
0.10450000 0.10450100 16217.99182557 0 575.05527025 0 3627.29832354 0 -1017.83581658 0 972.48058490 0 12093
0.10550000 0.10551000 15864.84811474 0 422.99385097 0 3990.06919332 0 -573.19860388 0 77.90833837 0 12067
0.10650000 0.10649700 15539.21057234 0 101.38163668 0 4716.04348957 0 -188.85424692 0 363.02042171 0 12054
0.10750000 0.10749900 15707.02038216 0 51.31286812 0 4561.21038017 0 -606.77387528 0 -1038.64290205 0 12807
0.10850000 0.10850100 15483.42185169 0 51.80653730 0 5286.14210390 0 -94.97170123 0 -615.06121764 0 12736
0.10950000 0.10950300 15641.69323214 0 150.30790104 0 5655.21277355 0 -466.76525973 0 -591.34934769 0 12933
0.11050000 0.11050200 15564.16576547 0 76.17722435 0 5754.29043589 0 197.72498624 0 -740.09117172 0 13428
0.11150000 0.11150900 15444.15901449 0 180.60905110 0 5835.35599438 0 581.80870007 0 -317.52765919 0 13453
0.11250000 0.11250000 15299.08615841 0 143.85171530 0 5792.02268791 0 -226.83826910 0 -508.95395468 0 13668
0.11350000 0.11349100 15110.31398635 0 193.95841575 0 6197.35048038 0 487.52465306 0 262.26022480 0 13791
0.11450000 0.11448600 14951.59895802 0 294.16516194 0 5936.36352499 0 -440.66434595 0 -445.18955430 0 14205
0.11550000 0.11549300 14610.87738777 0 102.94294447 0 5499.80292191 0 305.19757554 0 89.53734746 0 14776
0.11650000 0.11649800 14356.11259387 0 177.62551913 0 6287.08935489 0 -78.78909032 0 -518.00437139 0 14553
0.11750000 0.11747300 14220.68907913 0 168.13367278 0 5876.20487274 0 -276.34160844 0 -790.20563601 0 14568
0.11850000 0.11849100 14216.25260035 0 -29.40797597 0 6117.67132150 0 873.24764580 0 130.49347769 0 16015
0.11950000 0.11950300 14325.27906635 0 -236.32235162 0 5314.26937936 0 497.61875140 0 183.04467795 0 15270
0.12050000 0.12050700 14398.14823030 0 -108.21115211 0 4858.88701506 0 1275.14382194 0 939.53418436 0 15999
0.12150000 0.12150000 14618.64122564 0 179.44780278 0 4426.80725555 0 419.42026732 0 1346.43803592 0 15670
0.12250000 0.12250700 13852.35042848 0 297.62672451 0 4267.31584343 0 1.72062175 0 2723.87596732 0 16887
0.12350000 0.12352200 13858.11785090 0 423.69814198 0 4653.96606025 0 300.94853799 0 2469.86537481 0 16407
0.12450000 0.12449800 13351.58288627 0 210.48540832 0 4784.27653319 0 177.69872103 0 3375.77215915 0 16306
0.12550000 0.12549900 12932.44655360 0 178.36641108 0 4482.54052022 0 121.10810684 0 2674.15413140 0 17523
0.12650000 0.12650100 12843.49515407 0 130.70753780 0 4799.63784096 0 26.64826435 0 3336.73114589 0 17154
0.12750000 0.12750600 12515.08481244 0 68.98136668 0 4592.47646437 0 -177.34823920 0 2868.26116919 0 18007
0.12850000 0.12850300 12786.48640176 0 61.48748855 0 4743.02837174 0 220.11478551 0 2425.89987011 0 17496
0.12950000 0.12949900 12905.49494501 0 -99.70986056 0 4521.47062150 0 14.14138702 0 2097.26770453 0 18405
0.13050000 0.13049000 12568.43346976 0 -5.69786952 0 4551.77177157 0 32.49033052 0 2021.84756528 0 18100
0.13150000 0.13148800 12988.23527425 0 30.06457483 0 4779.59604808 0 -215.28013277 0 1910.32557997 0 19059
0.13250000 0.13249300 12893.18371640 0 50.82973558 0 4303.53969267 0 101.99952726 0 1021.77430062 0 18957
0.13350000 0.13349100 12910.59689561 0 53.67573672 0 4905.73623097 0 -34.31017411 0 1536.04204775 0 19468
0.13450000 0.13450700 12930.78287405 0 125.39485446 0 4922.08465527 0 -447.65401827 0 915.50954265 0 19953
0.13550000 0.13551000 12529.39245650 0 264.59714000 0 4685.93088985 0 -134.34434127 0 766.88195795 0 19956
0.13650000 0.13649900 12407.27837810 0 198.02555767 0 5074.77716366 0 -2.40402803 0 457.46418197 0 19723
0.13750000 0.13749600 12091.73382492 0 192.80049479 0 4949.72391807 0 276.75087361 0 281.78849527 0 20946
0.13850000 0.13851100 11976.82902454 0 79.88656426 0 4540.44765948 0 576.16549907 0 730.46401277 0 20955
0.13950000 0.13949800 11639.32390140 0 106.93488808 0 4333.38610366 0 226.17168817 0 921.90694505 0 20506
0.14050000 0.14048300 11591.63175453 0 158.74497456 0 4192.22844010 0 382.03960624 0 1020.64965325 0 21447
0.14150000 0.14148400 11524.75183693 0 72.13570310 0 3764.58515936 0 289.60667999 0 931.30895271 0 21771
0.14250000 0.14249400 11155.85862643 0 183.47501640 0 3596.25406328 0 299.68303242 0 1240.07345719 0 22470
0.14350000 0.14350900 10903.91099655 0 89.39471467 0 3319.46215224 0 -76.45894075 0 984.59549933 0 22519
0.14450000 0.14449900 11061.35053723 0 -99.30181543 0 3080.86832349 0 460.13937867 0 1421.10397378 0 22218
0.14550000 0.14550500 11138.00179934 0 -121.50628081 0 2953.51920013 0 381.10572746 0 573.38271775 0 23559
0.14650000 0.14650700 11203.88350922 0 -31.52339997 0 2494.37692006 0 29.43559305 0 625.82855164 0 23044
0.14750000 0.14750500 11136.00538389 0 194.16027554 0 2331.75779041 0 -413.52640526 0 500.80303404 0 23649
0.14850000 0.14849900 10882.42734807 0 289.56120609 0 2786.41922691 0 -262.37335501 0 379.45535735 0 23640
0.14950000 0.14949500 10607.63185248 0 134.11918998 0 2952.57644839 0 97.99660337 0 201.37953563 0 24457
0.15050000 0.15050000 10478.72996154 0 232.85857081 0 3012.24708797 0 -32.34947231 0 258.73211505 0 24591
0.15150000 0.15149900 10049.85555795 0 276.32940813 0 3176.27479964 0 289.35269158 0 917.02681840 0 25020
0.15250000 0.15250500 9899.55874811 0 126.20118448 0 3073.39285675 0 211.96275576 0 726.51776490 0 25297
0.15350000 0.15350100 9665.30157736 0 126.42189929 0 3136.19121387 0 226.49555112 0 1313.28644825 0 25452
0.15450000 0.15450400 9623.85377437 0 -32.26074274 0 2806.90466767 0 340.88571996 0 1463.60544048 0 26061
0.15550000 0.15549900 9441.85832364 0 40.73142258 0 2934.20942624 0 164.70427468 0 1317.06854640 0 26128
0.15650000 0.15649500 9507.38511521 0 186.08477504 0 2525.89810179 0 -94.03737880 0 1223.51430015 0 26331
0.15750000 0.15749700 9215.95282420 0 67.80192880 0 2718.77401672 0 -54.15376731 0 720.40984274 0 27345
0.15850000 0.15849900 9161.83887429 0 77.30497726 0 2623.78900606 0 -2.81103059 0 1046.11171408 0 26980
0.15950000 0.15949700 9206.89131630 0 29.04207738 0 2563.03142917 0 42.62014251 0 669.48017547 0 27777
0.16050000 0.16050000 9151.29114599 0 -54.64388730 0 2260.55230600 0 373.56038617 0 487.60672791 0 28224
0.16150000 0.16150500 9338.71019202 0 49.23637423 0 2230.33988552 0 -157.64805518 0 207.93776039 0 28075
0.16250000 0.16249700 9064.13652037 0 114.64859373 0 1954.01380475 0 -98.27088867 0 178.60265358 0 28590
0.16350000 0.16349900 9015.24652423 0 184.46213292 0 2314.43334078 0 -82.06487534 0 639.60603649 0 29163
0.16450000 0.16449100 8912.30912535 0 15.05696533 0 2372.12974730 0 110.60762704 0 435.16976698 0 28996
0.16550000 0.16550500 8839.77269731 0 12.12556198 0 2314.16715205 0 322.03955811 0 647.89226973 0 30777
0.16650000 0.16650700 8988.91602267 0 -50.42535054 0 2206.16107617 0 397.63161091 0 1035.00055298 0 29211
0.16750000 0.16749900 8906.41969977 0 67.27088229 0 2181.74935168 0 55.82631981 0 1178.48404054 0 30922
0.16850000 0.16850800 8994.01797327 0 46.77512671 0 2454.87007653 0 -133.79421791 0 1300.48720697 0 30867
0.16950000 0.16949900 8796.84976512 0 165.93761578 0 2527.07376867 0 -298.75026276 0 1544.19407751 0 30852
0.17050000 0.17049200 8798.21398234 0 128.41609651 0 2858.31236553 0 -276.39928267 0 1008.77763603 0 31257
0.17150000 0.17149500 8608.21068742 0 117.91051476 0 3012.52436789 0 -294.95263692 0 744.76389300 0 32608
0.17250000 0.17250900 8540.80948357 0 153.13837450 0 3180.54491046 0 -149.39620465 0 874.15046923 0 32361
0.17350000 0.17350400 8358.85839763 0 27.63848641 0 3180.80000799 0 177.89614433 0 384.62496425 0 32508
0.17450000 0.17449800 8423.83062936 0 -23.63656073 0 2961.19430842 0 393.45133878 0 621.80688363 0 32791
0.17550000 0.17549800 8401.58168828 0 5.83132989 0 2574.17808211 0 114.36798645 0 -71.42775199 0 33633
0.17650000 0.17650100 8345.44914052 0 130.64099061 0 2298.69493231 0 127.65745863 0 368.17782829 0 33984
0.17750000 0.17750300 8023.19441319 0 97.65565998 0 2214.29092353 0 -43.26232282 0 -19.30334099 0 34069
0.17850000 0.17849800 8068.85687103 0 73.23106971 0 2333.46583474 0 38.24311255 0 -73.38324093 0 34536
