### header ###
fiducial parameters:
Omega_m = 0.31
Omega_nu = 0
Omega_de = 0.69
Omega_k = 0
H_0 = 100
w_de = -1
zeff = 0
beta = 0
fgrowth = 0
b_1 = 2
gamma = 0.55
Lx = 3500 Ly = 3500 Lz = 3500
nx = 700 ny = 700 nz = 700
xoffset = 1379.75464 yoffset = 22.6059522 zoffset = 368.141391
bins = 400 dk = 0.001
kx_ny = 0.628318531 ky_ny = 0.628318531 kz_ny = 0.628318531
############################
A(data) = 3.32236806 (not used)
A(ran) = 3.3209598 (used)
Ngal = 186654
weighted Ngal = 0
Nran = 9399747
weighted Nran = 0
SN(data) = 6683.55805
SN(ran) = 132.092447
SN(data+ran) = 6815.6505
############################
13 columns: k_central k_mean P_0(k) sigma^{lin}_{P_0(k)} P^img_1(k) sigma^{lin}_{P_1(k)} P_2(k) sigma^{lin}_{P_2(k)} P^img_3(k) sigma^{lin}_{P_3(k)} P_4(k) sigma^{lin}_{P_4(k)} N_modes
### header ###
0.00050000 0 0 0 0 0 0 0 0 0 0 0 0
0.00150000 0.00179520 5338.86965419 0 -17605.50056379 0 2749.64081783 0 -52777.01703024 0 -27849.88462502 0 3
0.00250000 0.00253879 30325.77251977 0 -38302.11771705 0 -52400.24906991 0 18490.35625632 0 13146.39574273 0 6
0.00350000 0.00331552 49024.19963084 0 -33725.55712031 0 -11329.54677064 0 -82204.40259720 0 -57409.14452369 0 7
0.00450000 0.00420575 80399.19938191 0 -10677.69494360 0 -44104.14466461 0 -34067.94237010 0 -12954.96168340 0 24
0.00550000 0.00557378 86599.40029991 0 5129.74513573 0 357.34949271 0 -50481.47199787 0 2934.20942624 0 45
0.00650000 0.00659388 77034.01931585 0 23075.23525078 0 48675.38148682 0 -42385.00913763 0 -24101.94735227 0 40
0.00750000 0.00754703 58263.05577674 0 16340.66046382 0 82441.08874008 0 6165.00855008 0 -3299.38708576 0 57
0.00850000 0.00846663 56578.30296030 0 3968.67427441 0 76728.45683993 0 35625.59006951 0 -746.52295683 0 75
0.00950000 0.00948925 68899.84638599 0 -21450.81854574 0 55274.97640692 0 58453.49162834 0 35657.42180475 0 112
0.01050000 0.01054430 91328.46485469 0 -6890.06227698 0 61125.58279711 0 15146.91493628 0 7830.59577819 0 105
0.01150000 0.01145670 100146.41007640 0 2127.31375706 0 16260.47110988 0 12110.25612383 0 28533.76782884 0 144
0.01250000 0.01249090 94570.86537053 0 2028.28045951 0 57216.93408058 0 2531.28842351 0 43517.19852211 0 169
0.01350000 0.01339930 95321.73940393 0 1054.62198950 0 40122.73769610 0 8679.59363098 0 41427.06245721 0 180
0.01450000 0.01448870 90479.98828815 0 5547.65034555 0 61006.01969400 0 9960.99288800 0 44145.51482922 0 267
0.01550000 0.01550050 83590.24765588 0 3021.99625009 0 26205.28194153 0 24380.55821961 0 9355.74627054 0 238
0.01650000 0.01653350 84753.93603969 0 -960.71615230 0 59289.76787824 0 17467.74789769 0 52844.00785981 0 315
0.01750000 0.01747870 94967.48657340 0 -3566.70711461 0 14204.16319568 0 11032.25832764 0 28437.71806327 0 297
0.01850000 0.01844180 89119.20933457 0 425.58697282 0 28438.60535903 0 4927.56370657 0 47798.40054412 0 388
0.01950000 0.01947590 90384.49308243 0 4267.21602266 0 31201.20069489 0 -19998.20448143 0 14015.72375953 0 399
0.02050000 0.02045430 80023.09689340 0 7349.22673944 0 30609.37442574 0 -3577.04411017 0 2970.91019694 0 462
0.02150000 0.02154770 77167.00276726 0 3269.95104906 0 41359.07341992 0 6043.51557871 0 3917.67695084 0 571
0.02250000 0.02255340 69546.46316807 0 2227.83327500 0 42513.33428632 0 -4769.07050218 0 6447.36824199 0 510
0.02350000 0.02348930 70154.03893690 0 650.75158030 0 34760.25488361 0 13168.57813662 0 -5017.55767860 0 555
0.02450000 0.02439640 69149.73105324 0 592.39081108 0 28020.91088196 0 12181.68343217 0 1657.21337441 0 592
0.02550000 0.02547300 66932.37895935 0 1049.26715961 0 23687.13658641 0 6848.68102116 0 11725.05885381 0 837
0.02650000 0.02652900 59725.09735845 0 3493.67158271 0 15074.82215612 0 8259.48127298 0 8412.21814615 0 723
0.02750000 0.02749970 62512.09332760 0 -38.36212109 0 17009.68146373 0 3934.18065190 0 16083.45560659 0 826
0.02850000 0.02848090 53697.91911285 0 1992.68880851 0 4313.23339880 0 -1347.31424048 0 -5975.33799107 0 831
0.02950000 0.02946900 53823.02781443 0 4956.86664890 0 13297.79058107 0 -8512.67111691 0 5466.82879339 0 996
0.03050000 0.03053250 47546.85219734 0 674.66531004 0 8694.18964617 0 2218.37248401 0 -195.08417224 0 1041
0.03150000 0.03150510 49667.59996581 0 -1457.76037969 0 8172.38210334 0 3549.31611779 0 -7332.39030247 0 1036
0.03250000 0.03246190 50367.45449324 0 399.11672218 0 6488.30584992 0 -1181.87794680 0 -10464.79941818 0 1059
0.03350000 0.03345080 48072.57493268 0 2591.46925815 0 7684.94617986 0 -6342.20151252 0 -16312.37791160 0 1302
0.03450000 0.03451200 45244.65244679 0 1676.29023316 0 13111.68029628 0 -2741.37787610 0 -6868.15716301 0 1339
0.03550000 0.03553350 44975.91274474 0 -295.78336757 0 13072.19563514 0 3692.14855209 0 -12837.17317181 0 1365
0.03650000 0.03647120 46884.04226771 0 -1981.04305171 0 11452.32632086 0 5041.34829606 0 -1515.86716050 0 1308
0.03750000 0.03744890 47501.60011379 0 -628.41501877 0 10405.76097682 0 6753.29672741 0 -2337.53630402 0 1579
0.03850000 0.03847530 48335.21447642 0 912.24540339 0 11549.59611809 0 2881.52624074 0 7704.06740340 0 1662
0.03950000 0.03950240 45623.63864651 0 411.13181584 0 4695.22531289 0 1952.46103717 0 10570.88671699 0 1683
0.04050000 0.04050350 46089.91256622 0 535.33325750 0 8556.84735436 0 2570.06324804 0 13684.98426653 0 1822
0.04150000 0.04152450 45120.54195294 0 210.67506779 0 9868.66976460 0 -929.66080084 0 12884.08893490 0 1887
0.04250000 0.04250150 45048.89282066 0 988.65376829 0 6059.97491498 0 607.48814837 0 6700.14771163 0 1920
0.04350000 0.04349210 41742.60701039 0 2088.69420929 0 7787.95012592 0 -3373.64264933 0 6067.45038172 0 2005
0.04450000 0.04448520 40813.38653007 0 2103.07949173 0 10477.39901791 0 -5075.23190273 0 2170.82452269 0 2151
0.04550000 0.04548030 37671.69408252 0 1369.50772558 0 9294.92214647 0 -327.56741067 0 -362.73426883 0 2274
0.04650000 0.04648670 35245.82748600 0 921.26032827 0 9303.91710720 0 791.60867243 0 -5275.74965236 0 2311
0.04750000 0.04749250 35024.66901885 0 485.68905996 0 8863.38585561 0 1871.62839382 0 -3590.06517538 0 2568
0.04850000 0.04851840 33877.72834244 0 627.84825861 0 7707.50567446 0 1640.99804447 0 -2415.42978019 0 2493
0.04950000 0.04949480 31564.32648298 0 1085.18045533 0 6119.53464259 0 189.81696281 0 -3825.95275208 0 2644
0.05050000 0.05050630 31024.96157539 0 548.99761214 0 7419.30092176 0 -672.11100739 0 -2405.50315892 0 2829
0.05150000 0.05149060 30370.80277938 0 649.82435624 0 10110.32476371 0 -1617.27397420 0 -3856.08753419 0 2784
0.05250000 0.05249300 30580.09366579 0 469.66893509 0 10189.27190359 0 -2076.34970709 0 -1262.73277256 0 3055
0.05350000 0.05348950 30544.15818768 0 -456.29627893 0 11687.01604828 0 252.53546331 0 -2650.38569634 0 3009
0.05450000 0.05448610 31674.24024473 0 -633.30512750 0 13044.24581884 0 1653.00981077 0 498.29753265 0 3336
0.05550000 0.05550870 32658.47306192 0 426.02507510 0 14233.00030775 0 269.59483334 0 1804.43792270 0 3349
0.05650000 0.05647670 31397.84761678 0 601.88820303 0 12557.23136084 0 409.30620482 0 2875.75881833 0 3324
0.05750000 0.05747970 32452.73135853 0 81.23758296 0 17661.17837247 0 1264.15244576 0 9167.21810481 0 3639
0.05850000 0.05849280 32071.63783139 0 -567.80384569 0 13987.66303125 0 1752.02092593 0 6441.63409316 0 3846
0.05950000 0.05951020 33743.74668330 0 -96.17919984 0 16695.46785419 0 1259.51632544 0 10943.80603198 0 3787
0.06050000 0.06049470 32991.54170627 0 79.43737078 0 13093.04708541 0 60.46754208 0 5090.77066966 0 3930
0.06150000 0.06148310 33365.64777934 0 665.77349745 0 19561.87679349 0 -1449.34216121 0 10412.98134604 0 4083
0.06250000 0.06249100 32970.69025601 0 811.69704834 0 16619.93680297 0 -142.70932201 0 5282.22691138 0 4303
0.06350000 0.06350600 32064.76128928 0 -6.87452351 0 17731.49656112 0 -431.06491499 0 3662.67924180 0 4470
0.06450000 0.06451750 31804.33998494 0 768.30606764 0 17821.88981625 0 -1083.12414742 0 2583.99379141 0 4479
0.06550000 0.06550280 31857.02317044 0 546.70617085 0 18336.63226662 0 292.64234060 0 1922.98063569 0 4636
0.06650000 0.06648880 30859.48091692 0 -333.60767653 0 15868.06456185 0 2030.49869890 0 -472.89092780 0 4653
0.06750000 0.06749660 30951.64876356 0 353.40989956 0 16471.64749977 0 664.44477206 0 -648.60654281 0 5220
0.06850000 0.06852730 30700.98771253 0 312.34807022 0 12779.38803571 0 2054.99915296 0 259.18685412 0 5029
0.06950000 0.06949320 29277.54349619 0 353.95225909 0 14083.04732501 0 1799.71307280 0 90.05075897 0 5040
0.07050000 0.07048030 29516.89152634 0 60.66130529 0 10383.58967412 0 1660.08599442 0 1920.58493715 0 5475
0.07150000 0.07148790 28692.26103323 0 262.59296071 0 10293.06332463 0 2126.06045181 0 920.71131402 0 5509
0.07250000 0.07249820 28353.42496647 0 204.61040130 0 8763.42089752 0 1205.25818997 0 3142.54646972 0 5916
0.07350000 0.07351270 27815.28009054 0 212.81677792 0 8258.60506842 0 1253.66017345 0 2784.33408188 0 5721
0.07450000 0.07449140 27071.28259925 0 636.61030419 0 8188.09832942 0 -1068.77213856 0 2526.23083770 0 6028
0.07550000 0.07549160 26371.09533591 0 916.70406457 0 9151.53515233 0 -1220.34221782 0 1863.52072885 0 6183
0.07650000 0.07648840 25552.78682507 0 672.76316977 0 9605.53111701 0 -360.78443641 0 954.55166503 0 6330
0.07750000 0.07749960 24961.84785167 0 123.60251703 0 9861.83758728 0 417.95844756 0 1326.62915817 0 6583
0.07850000 0.07848650 24780.39586960 0 -195.23833988 0 9242.22786977 0 1710.68403490 0 1297.29294225 0 6549
0.07950000 0.07947320 24664.82559740 0 -95.83637094 0 6700.62463310 0 2258.11224267 0 1616.85250872 0 6828
0.08050000 0.08048110 24545.26249429 0 205.13723316 0 6695.67795926 0 407.20775036 0 602.44719935 0 7147
0.08150000 0.08149960 24437.01241208 0 769.75790532 0 6699.60424298 0 -13.08151224 0 4081.01700830 0 7386
0.08250000 0.08250610 22823.57599202 0 715.30567390 0 6613.59201065 0 -517.07381997 0 1233.76256613 0 7227
0.08350000 0.08350160 22288.98029912 0 975.31327660 0 7607.62944594 0 -1744.76728312 0 1754.58299242 0 7798
0.08450000 0.08449610 21544.76098389 0 329.01924835 0 8352.07058510 0 -451.15550914 0 1165.54061370 0 7371
0.08550000 0.08548940 20900.91700105 0 -71.31462179 0 9085.03233543 0 62.45508458 0 237.93612077 0 8256
0.08650000 0.08650700 21613.19366906 0 -106.10460108 0 8283.56026155 0 1107.30739324 0 318.63456065 0 8037
0.08750000 0.08749060 21505.83088260 0 -200.90150504 0 7881.64855774 0 811.96434619 0 -404.34954890 0 8155
0.08850000 0.08849210 21438.84005304 0 106.47327246 0 7663.81744968 0 169.71971394 0 1085.66070416 0 8718
0.08950000 0.08949900 21451.92766544 0 389.85224537 0 7037.79702033 0 418.30671114 0 -1079.28881151 0 8571
0.09050000 0.09049190 21518.36393516 0 170.50940716 0 7462.53440746 0 -773.69638936 0 561.69592353 0 8932
0.09150000 0.09150830 20580.93596909 0 175.68566878 0 7167.44202146 0 279.32735866 0 -1309.24925256 0 9285
0.09250000 0.09250820 20443.18330299 0 555.04231448 0 7480.50214652 0 76.64427466 0 -1379.25688769 0 9204
0.09350000 0.09350330 19803.66488696 0 428.75129131 0 6673.04082629 0 -673.37429472 0 -1608.14591911 0 9349
0.09450000 0.09448040 19171.13392500 0 283.98898874 0 6947.05993809 0 482.44266661 0 -2344.93413238 0 9564
0.09550000 0.09549270 18725.48963162 0 272.67707697 0 7065.60265108 0 190.11642513 0 -2461.44715633 0 10155
0.09650000 0.09649430 18473.71946090 0 319.38099820 0 5709.04944354 0 126.72912545 0 -3498.27442944 0 9913
0.09750000 0.09749140 17809.24585173 0 339.12554701 0 6337.72066896 0 359.82061139 0 -2857.46943456 0 10476
0.09850000 0.09850240 17240.37836026 0 258.07884355 0 5531.05791491 0 71.87982918 0 -3154.39186806 0 10575
0.09950000 0.09950330 17144.55041862 0 186.48849461 0 5579.64844874 0 753.12221902 0 -1892.38002331 0 10882
0.10050000 0.10051200 16866.05046325 0 276.44808393 0 5433.68829690 0 575.31480426 0 -2042.54373879 0 10875
0.10150000 0.10150300 16169.52329491 0 353.16367499 0 5549.42493706 0 52.21979530 0 -485.96966724 0 11118
0.10250000 0.10250800 16148.89366858 0 -8.90749555 0 5138.17444542 0 947.44664427 0 452.50863517 0 11575
0.10350000 0.10349800 16332.12024217 0 -272.65933106 0 5731.83076207 0 818.72553985 0 1205.65747306 0 11364
0.10450000 0.10450100 16414.52783549 0 1.84706139 0 4496.80379949 0 368.37746984 0 1305.28969525 0 12093
0.10550000 0.10551000 16281.98803196 0 329.39413081 0 5589.95217071 0 -172.24961596 0 1827.44106517 0 12067
0.10650000 0.10649700 16186.60373821 0 194.86345742 0 5375.47060412 0 -714.45719733 0 1843.19056484 0 12054
0.10750000 0.10749900 15937.49545475 0 265.79942574 0 6609.99846284 0 -634.06820185 0 1133.45378093 0 12807
0.10850000 0.10850100 15972.32181317 0 262.35671821 0 6543.41800756 0 -353.26793224 0 1754.06170616 0 12736
0.10950000 0.10950300 15469.33603156 0 61.13279208 0 6154.31663622 0 400.32566265 0 -140.21158446 0 12933
0.11050000 0.11050200 15520.46644950 0 -52.36930463 0 6332.24161766 0 366.02946345 0 963.10963260 0 13428
0.11150000 0.11150900 15652.11895727 0 -99.18768701 0 5246.21379489 0 1446.83555070 0 407.84660330 0 13453
0.11250000 0.11250000 15961.78517607 0 -107.42999911 0 4911.60347416 0 848.29356179 0 1480.68588378 0 13668
0.11350000 0.11349100 15178.19211167 0 275.88021465 0 4146.46616149 0 -227.50041356 0 564.53859731 0 13791
0.11450000 0.11448600 15096.67181410 0 503.59579743 0 4403.98157223 0 -383.56131846 0 856.81603752 0 14205
0.11550000 0.11549300 14695.28139655 0 276.31942605 0 4832.46778393 0 -97.02091078 0 1143.58004374 0 14776
0.11650000 0.11649800 14044.11722372 0 213.34915538 0 4516.43521809 0 361.08389873 0 474.70101114 0 14553
0.11750000 0.11747300 13919.67399396 0 255.71198212 0 4757.76857249 0 -67.01245740 0 657.75678030 0 14568
0.11850000 0.11849100 13719.03424116 0 103.83545309 0 4541.16858728 0 -270.47214702 0 398.25160882 0 16015
0.11950000 0.11950300 13266.84614159 0 169.97813883 0 4625.46168409 0 451.22649280 0 -108.06652291 0 15270
0.12050000 0.12050700 13578.28695189 0 79.39844068 0 4282.91006634 0 259.31551201 0 491.29122354 0 15999
0.12150000 0.12150000 13106.35652175 0 -140.10954545 0 3600.85691001 0 565.35269116 0 -603.15703596 0 15670
0.12250000 0.12250700 13459.83296849 0 -118.12790222 0 3208.22853805 0 741.49088078 0 446.25652745 0 16887
0.12350000 0.12352200 13385.85468484 0 69.40161214 0 2669.72874382 0 18.22416753 0 -690.20962257 0 16407
0.12450000 0.12449800 13069.64465985 0 273.02201320 0 2312.12637181 0 -280.84019793 0 195.07973576 0 16306
0.12550000 0.12549900 12932.89020147 0 226.80721375 0 2437.27943817 0 -14.72788952 0 -677.33939763 0 17523
0.12650000 0.12650100 12957.17992279 0 -124.47539423 0 2306.75823249 0 8.81797850 0 -345.90226834 0 17154
0.12750000 0.12750600 12774.50790905 0 -3.77968028 0 2303.02049912 0 42.66117994 0 -651.18968258 0 18007
0.12850000 0.12850300 12854.69726299 0 3.73028009 0 2622.61333918 0 -256.15895736 0 -974.35277894 0 17496
0.12950000 0.12949900 12990.56442561 0 250.02441633 0 2310.35178030 0 -60.03842367 0 -1027.36426388 0 18405
0.13050000 0.13049000 12579.52466670 0 304.10952912 0 3319.09614274 0 -505.51790187 0 -689.06944752 0 18100
0.13150000 0.13148800 12307.56851753 0 305.25414065 0 3502.89945857 0 -225.92435448 0 -489.95362519 0 19059
0.13250000 0.13249300 12154.73182359 0 18.14242541 0 3958.14872850 0 442.07292796 0 -158.58637044 0 18957
0.13350000 0.13349100 11959.19402139 0 179.90143274 0 4012.20722243 0 -320.35147793 0 -199.38090194 0 19468
0.13450000 0.13450700 11896.41784666 0 318.53584899 0 4259.47436719 0 94.58240022 0 173.44524700 0 19953
0.13550000 0.13551000 11475.17418657 0 103.09323019 0 4365.93876670 0 -14.38561518 0 71.37817434 0 19956
0.13650000 0.13649900 11294.83132419 0 233.89005212 0 4341.40503905 0 -87.05336299 0 467.33534725 0 19723
0.13750000 0.13749600 11172.38450988 0 129.78364109 0 4451.76244868 0 152.73243670 0 -598.53422507 0 20946
0.13850000 0.13851100 10918.34064378 0 66.23795912 0 4028.98820341 0 274.71342073 0 226.19165232 0 20955
0.13950000 0.13949800 10839.51550707 0 -21.72588023 0 3379.18824781 0 580.95911439 0 -527.98533952 0 20506
0.14050000 0.14048300 10860.23386297 0 -55.72949366 0 3383.84655052 0 530.46089468 0 294.82730640 0 21447
0.14150000 0.14148400 10924.44080211 0 -35.45678205 0 2529.75783833 0 444.28229439 0 -241.89235072 0 21771
0.14250000 0.14249400 10826.73844819 0 10.48979898 0 2255.43926421 0 295.58816251 0 626.67259173 0 22470
0.14350000 0.14350900 10953.47755572 0 54.26479019 0 2238.70264801 0 98.93225675 0 123.02355655 0 22519
0.14450000 0.14449900 10832.59460018 0 93.60637488 0 2297.07561755 0 -265.34690491 0 -38.44530507 0 22218
0.14550000 0.14550500 10656.95440531 0 261.08677616 0 2716.95506042 0 -521.30843896 0 -2.12542825 0 23559
0.14650000 0.14650700 10451.36797867 0 125.04215439 0 2914.75546680 0 -123.87979695 0 -163.38553136 0 23044
0.14750000 0.14750500 10395.03578937 0 18.42214540 0 3135.74756599 0 -29.36727128 0 4.03932520 0 23649
0.14850000 0.14849900 10590.41831481 0 17.34008822 0 3304.11193566 0 183.73233217 0 -128.49595312 0 23640
0.14950000 0.14949500 10279.27696682 0 166.97464270 0 3039.02123740 0 206.78205766 0 227.73665606 0 24457
0.15050000 0.15050000 10239.42629619 0 104.97762456 0 3164.51813087 0 206.11214937 0 702.51863294 0 24591
0.15150000 0.15149900 9906.33546944 0 215.57072213 0 3003.98414624 0 146.05775437 0 581.31403269 0 25020
0.15250000 0.15250500 9871.47583743 0 130.03873862 0 2826.66918063 0 209.63804088 0 1063.49161970 0 25297
0.15350000 0.15350100 9616.66667874 0 -68.24757309 0 2503.58261353 0 470.02385339 0 1007.98905193 0 25452
0.15450000 0.15450400 9693.66176796 0 -36.74058810 0 2542.72344756 0 322.42331352 0 1165.47406652 0 26061
0.15550000 0.15549900 9641.08949442 0 152.21669604 0 2067.67639107 0 18.97481974 0 1054.25043440 0 26128
0.15650000 0.15649500 9472.48111842 0 158.84812269 0 2226.22505145 0 -213.82274949 0 992.96380742 0 26331
0.15750000 0.15749700 9223.57247651 0 113.84226372 0 2399.21445025 0 6.32111715 0 936.13473250 0 27345
0.15850000 0.15849900 9232.24579252 0 47.34942889 0 2394.02377008 0 -170.85101603 0 903.35469992 0 26980
0.15950000 0.15949700 9178.75294964 0 73.26933434 0 2552.82752798 0 -201.03681764 0 437.01977863 0 27777
0.16050000 0.16050000 9355.96809448 0 -71.43695769 0 2596.65993832 0 94.51674033 0 475.02154674 0 28224
0.16150000 0.16150500 9298.59333266 0 5.17946697 0 2430.63581120 0 -131.53605021 0 43.42358882 0 28075
0.16250000 0.16249700 9293.40265249 0 177.88172578 0 2989.36594867 0 -332.14696589 0 -331.56024157 0 28590
0.16350000 0.16349900 9059.91077434 0 249.12824761 0 2880.79422174 0 -172.26514364 0 -359.52780379 0 29163
0.16450000 0.16449100 8847.64744714 0 179.08068417 0 3183.63935441 0 -261.04130225 0 55.20033265 0 28996
0.16550000 0.16550500 8726.23211415 0 17.14909781 0 3126.33113978 0 288.16260615 0 -357.76652172 0 30777
0.16650000 0.16650700 8725.95483423 0 27.55807523 0 2901.36839208 0 528.54766321 0 -399.22874327 0 29211
0.16750000 0.16749900 8536.81665267 0 75.35414663 0 2788.08290645 0 40.74750482 0 -280.33000287 0 30922
0.16850000 0.16850800 8474.28448427 0 162.75333314 0 2732.76001607 0 -68.90505925 0 72.56459968 0 30867
0.16950000 0.16949900 8404.31012273 0 78.73241430 0 2522.33782757 0 67.38789442 0 137.95674412 0 30852
0.17050000 0.17049200 8174.74452829 0 158.68064562 0 2922.87422296 0 -13.36733239 0 -265.73842416 0 31257
0.17150000 0.17149500 8101.57590203 0 143.81289611 0 2543.13382185 0 -159.40933726 0 137.54193335 0 32608
0.17250000 0.17250900 7883.09041334 0 72.39623531 0 3025.93362500 0 104.02710898 0 28.95933706 0 32361
0.17350000 0.17350400 7858.30158816 0 108.90878840 0 2960.02973274 0 82.24255631 0 -132.03959055 0 32508
0.17450000 0.17449800 7699.64201582 0 119.98789594 0 3043.35789541 0 -23.57433911 0 253.27635527 0 32791
0.17550000 0.17549800 7653.97955798 0 0.22239735 0 2964.75458264 0 212.82565088 0 208.62652372 0 33633
0.17650000 0.17650100 7638.58497662 0 -60.94035981 0 2731.02978935 0 387.03729959 0 588.73293433 0 33984
0.17750000 0.17750300 7744.21753635 0 -9.13537528 0 2426.11060285 0 454.33535531 0 404.30962059 0 34069
0.17850000 0.17849800 7672.46858330 0 52.72976853 0 2320.50022551 0 -39.07595053 0 888.43925826 0 34536
