### header ###
fiducial parameters:
Omega_m = 0.31
Omega_nu = 0
Omega_de = 0.69
Omega_k = 0
H_0 = 100
w_de = -1
zeff = 0
beta = 0
fgrowth = 0
b_1 = 2
gamma = 0.55
Lx = 3500 Ly = 3500 Lz = 3500
nx = 700 ny = 700 nz = 700
xoffset = 1379.75464 yoffset = 22.6059522 zoffset = 368.141391
bins = 400 dk = 0.001
kx_ny = 0.628318531 ky_ny = 0.628318531 kz_ny = 0.628318531
############################
A(data) = 3.34841804 (not used)
A(ran) = 3.34875116 (used)
Ngal = 188329
weighted Ngal = 0
Nran = 9399747
weighted Nran = 0
SN(data) = 6676.46114
SN(ran) = 133.197859
SN(data+ran) = 6809.659
############################
13 columns: k_central k_mean P_0(k) sigma^{lin}_{P_0(k)} P^img_1(k) sigma^{lin}_{P_1(k)} P_2(k) sigma^{lin}_{P_2(k)} P^img_3(k) sigma^{lin}_{P_3(k)} P_4(k) sigma^{lin}_{P_4(k)} N_modes
### header ###
0.00050000 0 0 0 0 0 0 0 0 0 0 0 0
0.00150000 0.00179520 64929.97426232 0 -54485.50500814 0 -109911.98716537 0 139197.84905928 0 17412.84647280 0 3
0.00250000 0.00253879 101324.96066412 0 -39508.17447320 0 -11243.81181823 0 -114978.00228344 0 -28241.07114138 0 6
0.00350000 0.00331552 114058.54205644 0 -5287.47304754 0 -73963.08870483 0 -37446.43187250 0 40673.63744852 0 7
0.00450000 0.00420575 104141.79195306 0 15402.78884987 0 -32353.57605781 0 -65389.48255188 0 14358.21992129 0 24
0.00550000 0.00557378 68514.98185189 0 16757.35673316 0 -18848.04735790 0 -31436.22315823 0 7232.01497009 0 45
0.00650000 0.00659388 58626.84703664 0 -915.21895329 0 5116.56879376 0 22065.82541652 0 -43775.51249903 0 40
0.00750000 0.00754703 49425.14640052 0 -1602.91087415 0 -23134.90589036 0 -6236.48022321 0 -23653.19752375 0 57
0.00850000 0.00846663 62125.56511396 0 -8874.26631982 0 -21284.89423940 0 -11081.64742765 0 -22543.19053317 0 75
0.00950000 0.00948925 64604.78036779 0 923.28890819 0 -15472.21974277 0 -32992.20717809 0 -28097.10740499 0 112
0.01050000 0.01054430 66696.13646435 0 -1795.54278275 0 -613.65929035 0 -10310.43213905 0 -15218.56406856 0 105
0.01150000 0.01145670 67442.35219503 0 -4762.72633752 0 -2465.40671364 0 -1517.16483055 0 -24828.64257632 0 144
0.01250000 0.01249090 79958.65703913 0 -301.36445788 0 9353.56130474 0 -319.13699187 0 -14232.55665987 0 169
0.01350000 0.01339930 77566.72950527 0 1657.71247828 0 15705.35670262 0 541.07849752 0 -611.38337674 0 180
0.01450000 0.01448870 75214.61936846 0 6327.52785896 0 33524.91736751 0 -9060.95334685 0 5782.79481205 0 267
0.01550000 0.01550050 72514.35655945 0 8807.28658145 0 40468.45030498 0 -7362.59163176 0 6247.77106171 0 238
0.01650000 0.01653350 67254.46731872 0 3666.11751286 0 51748.97398511 0 8461.24123666 0 5341.35408231 0 315
0.01750000 0.01747870 57385.07662632 0 3653.69537227 0 54684.81381730 0 2555.70014799 0 4883.60929306 0 297
0.01850000 0.01844180 62562.55827372 0 1390.79173252 0 57948.28760735 0 4854.22871234 0 18328.20295694 0 388
0.01950000 0.01947590 57961.26430778 0 -1675.48057579 0 41992.04802976 0 23055.04927233 0 9093.36182433 0 399
0.02050000 0.02045430 66748.37600198 0 -8565.03265770 0 36811.34993524 0 25537.03732540 0 25118.78828849 0 462
0.02150000 0.02154770 72223.87811137 0 -3685.11673323 0 13690.97351289 0 13506.97055551 0 17639.10689054 0 571
0.02250000 0.02255340 73193.13781268 0 2785.44320158 0 16562.26257884 0 -1955.00092128 0 29791.17682686 0 510
0.02350000 0.02348930 67780.96643786 0 2810.60912745 0 9013.17247040 0 -6151.49947220 0 11468.40855643 0 555
0.02450000 0.02439640 68537.27515776 0 3975.32899258 0 16986.16812620 0 -7534.47191087 0 11253.90480745 0 592
0.02550000 0.02547300 60870.48526730 0 3317.22173046 0 24659.94547074 0 -5018.85534865 0 3792.49061088 0 837
0.02650000 0.02652900 61026.42749639 0 2595.65063940 0 27876.39258572 0 1121.74147695 0 -652.16903527 0 723
0.02750000 0.02749970 57849.57595451 0 -715.24910880 0 33853.43862112 0 569.12702548 0 10095.93948127 0 826
0.02850000 0.02848090 58201.05598580 0 -263.88397603 0 18946.42627483 0 7102.20360101 0 -9831.01515097 0 831
0.02950000 0.02946900 60340.99152499 0 729.33492892 0 31661.92901612 0 2892.66180248 0 13379.19996667 0 996
0.03050000 0.03053250 59729.97748511 0 887.51203420 0 25465.61001706 0 138.32275362 0 1461.70884581 0 1041
0.03150000 0.03150510 57361.34146485 0 2164.06998375 0 32558.31955348 0 -2340.99675747 0 4385.11544622 0 1036
0.03250000 0.03246190 55260.66876285 0 3193.56597568 0 33441.17883056 0 -2171.13507621 0 1118.18120273 0 1059
0.03350000 0.03345080 51787.46043852 0 1896.37285421 0 35184.82590279 0 -2728.26808131 0 307.21617339 0 1302
0.03450000 0.03451200 50274.84299872 0 3091.02785989 0 39952.93147083 0 1723.48327618 0 817.67187614 0 1339
0.03550000 0.03553350 45438.85930536 0 2251.31333894 0 35266.56802429 0 3417.13123257 0 -3118.73366987 0 1365
0.03650000 0.03647120 42949.21832639 0 1567.20831118 0 38053.00943360 0 10013.67607351 0 9051.04890798 0 1308
0.03750000 0.03744890 43398.74453870 0 -583.02540438 0 30227.94816269 0 8050.22366016 0 8150.97609323 0 1579
0.03850000 0.03847530 42297.49959371 0 121.75694186 0 23645.32277392 0 6738.74507701 0 9676.23749755 0 1662
0.03950000 0.03950240 42065.02810568 0 316.19116996 0 24392.53671232 0 2266.65246432 0 11601.94656769 0 1683
0.04050000 0.04050350 40767.35806273 0 249.16706680 0 17094.19638448 0 -1339.58367621 0 6359.96961003 0 1822
0.04150000 0.04152450 41144.45875897 0 325.99135158 0 22672.51388959 0 476.86934015 0 10089.02966557 0 1887
0.04250000 0.04250150 39217.25237725 0 1628.08789123 0 19069.20582505 0 -3012.97910697 0 -2784.79991215 0 1920
0.04350000 0.04349210 38255.64560184 0 1946.80452673 0 24851.15770613 0 -703.00110001 0 2745.20433905 0 2005
0.04450000 0.04448520 38397.16927490 0 153.08735500 0 23858.27375532 0 -322.98563721 0 -3868.13257407 0 2151
0.04550000 0.04548030 36192.01749765 0 -435.76314602 0 22277.55636626 0 2956.28090817 0 -579.64702579 0 2274
0.04650000 0.04648670 38717.48304276 0 -1110.80555676 0 22055.51060336 0 2911.23955736 0 -712.42418093 0 2311
0.04750000 0.04749250 38921.56106661 0 -34.80461967 0 17625.13198239 0 2286.30606532 0 -2979.46150979 0 2568
0.04850000 0.04851840 39192.51900806 0 132.22259530 0 17437.46893003 0 -15.34744378 0 -740.78215329 0 2493
0.04950000 0.04949480 39370.08907120 0 283.32906252 0 17649.53261568 0 -1043.92231180 0 -6795.92019728 0 2644
0.05050000 0.05050630 36605.60823185 0 2582.42993264 0 16957.77466202 0 -638.32722148 0 -2453.21748819 0 2829
0.05150000 0.05149060 34951.79985490 0 1803.97209243 0 20955.81842594 0 -1280.53414366 0 -5880.00915330 0 2784
0.05250000 0.05249300 32412.13757770 0 602.10337225 0 18375.45145594 0 3743.81134748 0 -2537.83222971 0 3055
0.05350000 0.05348950 32767.38861595 0 -379.19915070 0 16843.75715739 0 3252.24949873 0 -3283.11629984 0 3009
0.05450000 0.05448610 31859.79596968 0 353.22245833 0 14913.99980037 0 1971.80408465 0 -726.74291619 0 3336
0.05550000 0.05550870 31926.56497531 0 -100.38475990 0 12704.74428025 0 663.76488168 0 -667.81205945 0 3349
0.05650000 0.05647670 31061.11887744 0 268.22174316 0 14012.50731241 0 -254.01059251 0 525.74159038 0 3324
0.05750000 0.05747970 31474.04413982 0 40.92019476 0 12816.32172155 0 507.69177647 0 -1054.56320615 0 3639
0.05850000 0.05849280 32151.93809729 0 -385.56106127 0 12815.54533776 0 1749.23703549 0 -1984.89169705 0 3846
0.05950000 0.05951020 32221.59081413 0 1.17730837 0 10070.40754590 0 1232.13216017 0 -1963.90715242 0 3787
0.06050000 0.06049470 32085.50182757 0 -360.70347067 0 10038.64235784 0 1118.51393864 0 -475.44190310 0 3930
0.06150000 0.06148310 32241.88770454 0 -11.48482353 0 8869.84093224 0 957.60618067 0 -942.21603579 0 4083
0.06250000 0.06249100 32476.79925591 0 514.35758583 0 9105.07412831 0 52.35599519 0 -3255.63231380 0 4303
0.06350000 0.06350600 31581.96148612 0 604.66432962 0 8470.31383577 0 -438.44499744 0 797.81197888 0 4470
0.06450000 0.06451750 30193.01089230 0 690.01330838 0 9656.55062297 0 -545.61146971 0 -2651.58354561 0 4479
0.06550000 0.06550280 30089.08637689 0 991.58849900 0 10883.70283572 0 -1455.70850826 0 -834.87321348 0 4636
0.06650000 0.06648880 28977.74844268 0 461.58123427 0 11140.22003873 0 1157.16676000 0 -1878.85985423 0 4653
0.06750000 0.06749660 28501.82518163 0 -414.42811957 0 10485.50668288 0 1012.33458289 0 653.52881602 0 5220
0.06850000 0.06852730 29081.34022218 0 -228.38549108 0 10901.84803392 0 1722.24106212 0 145.43997470 0 5029
0.06950000 0.06949320 30154.41352692 0 406.36814675 0 10411.71694958 0 -808.54049369 0 -810.39937830 0 5040
0.07050000 0.07048030 28592.99482055 0 210.58966558 0 9603.45706318 0 255.39588301 0 1063.27534136 0 5475
0.07150000 0.07148790 28472.10077381 0 498.01803449 0 10866.18983573 0 -956.94847269 0 422.06884515 0 5509
0.07250000 0.07249820 28858.29625155 0 203.05985197 0 11446.44798647 0 -765.15173123 0 -660.83126009 0 5916
0.07350000 0.07351270 28009.26512516 0 280.05937766 0 10149.34359458 0 368.57932962 0 -2123.15455821 0 5721
0.07450000 0.07449140 27848.55368138 0 421.55865009 0 11810.01742244 0 -344.38721084 0 -2876.61284049 0 6028
0.07550000 0.07549160 27675.30918505 0 443.32512410 0 10253.01301245 0 -573.90954961 0 -3365.75680830 0 6183
0.07650000 0.07648840 27048.32382157 0 120.65891336 0 11225.62225524 0 1300.18774465 0 -3581.53604493 0 6330
0.07750000 0.07749960 25999.54023815 0 637.28243073 0 10657.23168523 0 -598.70946598 0 -4185.92864023 0 6583
0.07850000 0.07848650 25967.81941487 0 736.52978838 0 12018.08827719 0 166.51435802 0 -3155.97790922 0 6549
0.07950000 0.07947320 25016.08380475 0 224.03108716 0 10544.56730663 0 827.28794389 0 -2487.55583394 0 6828
0.08050000 0.08048110 24906.72460284 0 324.45300257 0 10351.23665262 0 666.57539099 0 -2923.57296837 0 7147
0.08150000 0.08149960 23795.27575666 0 419.01322039 0 10288.64902825 0 508.26408223 0 -842.48177459 0 7386
0.08250000 0.08250610 23626.02409123 0 411.43460551 0 10730.55558825 0 582.14143598 0 -641.46270286 0 7227
0.08350000 0.08350160 23456.32877792 0 315.33825691 0 10637.96627613 0 793.68938097 0 61.93734750 0 7798
0.08450000 0.08449610 22583.78431400 0 275.95230743 0 9667.83037027 0 431.97772050 0 398.27157297 0 7371
0.08550000 0.08548940 22276.77998247 0 239.65414718 0 9557.75024056 0 968.96800283 0 -584.17445238 0 8256
0.08650000 0.08650700 21888.14444141 0 459.17777190 0 9725.07203772 0 -107.30001028 0 942.51993458 0 8037
0.08750000 0.08749060 21363.08717788 0 324.31768996 0 9400.05560235 0 405.26900913 0 580.34798944 0 8155
0.08850000 0.08849210 21045.76803319 0 63.64073353 0 8836.87789491 0 827.71051849 0 1177.66329196 0 8718
0.08950000 0.08949900 20792.66691883 0 101.19352998 0 7305.83797698 0 933.56046569 0 -28.01081789 0 8571
0.09050000 0.09049190 20584.26332818 0 87.88487003 0 7215.30053629 0 523.67862775 0 403.61420254 0 8932
0.09150000 0.09150830 20518.27070633 0 221.83946664 0 6515.77874476 0 -62.58684800 0 -574.15022858 0 9285
0.09250000 0.09250820 20019.72140351 0 453.98154613 0 7185.77577001 0 794.52787546 0 145.70838167 0 9204
0.09350000 0.09350330 19677.11432978 0 -78.74317277 0 5910.86486321 0 165.46291255 0 153.67629756 0 9349
0.09450000 0.09448040 18970.60508418 0 564.73934797 0 6460.45585439 0 -176.53192711 0 149.97960161 0 9564
0.09550000 0.09549270 18607.92294397 0 856.25925944 0 7100.30700633 0 -221.15513979 0 413.30458132 0 10155
0.09650000 0.09649430 17868.91649131 0 266.90965456 0 6902.30695841 0 -140.22156654 0 433.98855451 0 9913
0.09750000 0.09749140 17495.03224219 0 126.70028834 0 7897.36478382 0 621.57951409 0 1841.67107086 0 10476
0.09850000 0.09850240 17312.91478830 0 208.71636241 0 6491.18956113 0 556.22241783 0 1367.06766225 0 10575
0.09950000 0.09950330 17355.61589655 0 -174.21719430 0 7088.55033756 0 1101.83388755 0 2089.49277547 0 10882
0.10050000 0.10051200 17394.76782178 0 99.30736103 0 6029.41866739 0 736.19927071 0 2214.70129782 0 10875
0.10150000 0.10150300 17299.49443999 0 176.47868936 0 5768.78663030 0 313.66237705 0 2249.88257454 0 11118
0.10250000 0.10250800 16863.94313583 0 215.52524822 0 5389.77824819 0 53.43328315 0 2782.23784566 0 11575
0.10350000 0.10349800 16162.64675280 0 441.00595482 0 5513.34527339 0 -238.53060893 0 1392.98778952 0 11364
0.10450000 0.10450100 15854.97694945 0 232.99499253 0 5376.65736220 0 -455.53764106 0 1173.95883218 0 12093
0.10550000 0.10551000 16037.09440334 0 -175.14330925 0 5787.19801723 0 647.71148322 0 563.04572220 0 12067
0.10650000 0.10649700 16042.19635394 0 -99.84583864 0 4374.41244117 0 729.24398111 0 273.97918349 0 12054
0.10750000 0.10749900 16147.45181298 0 35.14977772 0 3156.45483069 0 252.95692880 0 -695.88609716 0 12807
0.10850000 0.10850100 15549.30356156 0 74.33142736 0 3013.48930203 0 75.52240008 0 -835.56308593 0 12736
0.10950000 0.10950300 15615.73983128 0 385.79286729 0 3233.48319350 0 -268.77741213 0 -1016.50487295 0 12933
0.11050000 0.11050200 15059.29448039 0 272.30663099 0 3319.19596351 0 159.88071313 0 -1322.25922658 0 13428
0.11150000 0.11150900 14748.85187781 0 181.92335794 0 3375.16214331 0 441.71579142 0 -1097.22327698 0 13453
0.11250000 0.11250000 14225.23646988 0 131.90427795 0 2462.44536405 0 -250.15972893 0 -1286.66757557 0 13668
0.11350000 0.11349100 14459.14981352 0 88.28271126 0 3478.26591014 0 409.76870773 0 -245.71437719 0 13791
0.11450000 0.11448600 14295.55465853 0 204.91430010 0 3141.91427149 0 -104.95488760 0 -549.11739707 0 14205
0.11550000 0.11549300 14221.90911080 0 92.31014670 0 3495.14671190 0 -356.37235826 0 42.55681178 0 14776
0.11650000 0.11649800 14133.06862324 0 -39.93263458 0 3282.40646324 0 31.80323087 0 -315.75639504 0 14553
0.11750000 0.11747300 14128.74305643 0 250.30169625 0 4389.26355388 0 -487.85849808 0 -236.60961362 0 14568
0.11850000 0.11849100 13865.21621694 0 269.50943112 0 4190.65349013 0 -553.24443145 0 -860.43287685 0 16015
0.11950000 0.11950300 13843.03382305 0 290.80674750 0 5772.99019394 0 -725.19458510 0 -931.95446037 0 15270
0.12050000 0.12050700 13448.51994760 0 354.14857327 0 5715.81507368 0 -640.22825264 0 -770.20266232 0 15999
0.12150000 0.12150000 13136.63548941 0 177.58448170 0 6578.77674343 0 40.76048152 0 -815.35270685 0 15670
0.12250000 0.12250700 12898.39657897 0 7.48583701 0 6180.34767546 0 587.92327695 0 -493.00259523 0 16887
0.12350000 0.12352200 13251.54028980 0 -78.90299691 0 6103.07530632 0 730.19560580 0 -832.12814224 0 16407
0.12450000 0.12449800 13258.97139175 0 -28.32647336 0 5338.44818871 0 469.68113541 0 -352.49709405 0 16306
0.12550000 0.12549900 12872.77591402 0 187.95142348 0 5264.99119132 0 -142.19801783 0 -74.78649917 0 17523
0.12650000 0.12650100 13106.91108159 0 17.94733125 0 4676.95811152 0 194.51186648 0 -73.85361859 0 17154
0.12750000 0.12750600 12737.01966337 0 102.88393931 0 5094.54167662 0 350.54282515 0 -1081.63459966 0 18007
0.12850000 0.12850300 12825.74923896 0 85.49327523 0 4571.97993241 0 -89.31996000 0 -709.27539012 0 17496
0.12950000 0.12949900 12323.20710523 0 229.23285853 0 4511.81018896 0 325.46895621 0 -605.05363064 0 18405
0.13050000 0.13049000 12210.40963227 0 173.23673249 0 4474.15557532 0 371.96436293 0 -385.77401225 0 18100
0.13150000 0.13148800 11998.01321071 0 125.89839480 0 4336.05908212 0 -143.52896147 0 -299.52775566 0 19059
0.13250000 0.13249300 12101.27225430 0 -1.59469230 0 4174.00560351 0 330.82822257 0 -412.99402780 0 18957
0.13350000 0.13349100 11609.71040555 0 148.12404436 0 3919.05225926 0 192.39677522 0 -549.05528637 0 19468
0.13450000 0.13450700 11827.87424952 0 142.66828458 0 4013.92635796 0 -404.75992319 0 -658.47548986 0 19953
0.13550000 0.13551000 11577.43502243 0 60.52699090 0 4357.42072744 0 78.66564530 0 -803.87220889 0 19956
0.13650000 0.13649900 11589.08077923 0 74.38289051 0 3995.44842384 0 239.25375497 0 -754.97777627 0 19723
0.13750000 0.13749600 11406.40876549 0 156.65095658 0 3982.16116990 0 -176.10269778 0 -1144.62261625 0 20946
0.13850000 0.13851100 11202.99621346 0 60.82068579 0 3759.35011440 0 601.46341019 0 3.84365430 0 20955
0.13950000 0.13949800 11287.40022224 0 25.85058546 0 3858.19486161 0 529.76880399 0 47.64855847 0 20506
0.14050000 0.14048300 11116.70670120 0 -19.18588522 0 3368.26341881 0 341.03434200 0 159.13538469 0 21447
0.14150000 0.14148400 11224.40222357 0 113.18455574 0 3350.04058223 0 62.25511029 0 -22.92062397 0 21771
0.14250000 0.14249400 10929.99749178 0 166.37349982 0 3442.58552956 0 -192.61305356 0 643.03432547 0 22470
0.14350000 0.14350900 10591.74925845 0 256.22217718 0 3226.44028343 0 -65.69815056 0 30.07688606 0 22519
0.14450000 0.14449900 10401.53523079 0 278.84045512 0 3962.95121678 0 -177.49575212 0 477.16547511 0 22218
0.14550000 0.14550500 10241.73326516 0 133.96724058 0 3764.36333542 0 146.43818243 0 342.32313909 0 23559
0.14650000 0.14650700 9880.28224781 0 41.30705571 0 3517.53983854 0 615.16103842 0 335.17819001 0 23044
0.14750000 0.14750500 9889.17738776 0 61.18780441 0 3197.68080975 0 311.33544394 0 783.40895052 0 23649
0.14850000 0.14849900 9870.24471457 0 -35.80438016 0 2601.89498328 0 437.00536008 0 588.98248626 0 23640
0.14950000 0.14949500 9787.41565576 0 29.97240698 0 2677.19311936 0 167.01235277 0 624.28798439 0 24457
0.15050000 0.15050000 9658.02575216 0 137.03284741 0 2286.43915968 0 -92.42438603 0 107.88096718 0 24591
0.15150000 0.15149900 9622.17900363 0 189.70050524 0 2473.55874339 0 -175.75554332 0 172.94059753 0 25020
0.15250000 0.15250500 9260.22888242 0 222.71899856 0 2407.11138248 0 -385.77401225 0 -472.16001792 0 25297
0.15350000 0.15350100 9039.12587126 0 232.37277638 0 2817.56330794 0 -143.91937160 0 -287.40175004 0 25452
0.15450000 0.15450400 8799.03473092 0 59.01470619 0 2832.11495833 0 2.26517734 0 -384.20571700 0 26061
0.15550000 0.15549900 8766.41552069 0 -28.80261844 0 2395.21052815 0 666.10734248 0 -238.90992786 0 26128
0.15650000 0.15649500 8986.84196884 0 -55.77252750 0 2532.09808089 0 214.24865145 0 -9.03069656 0 26331
0.15750000 0.15749700 8799.21219007 0 59.06905306 0 2069.19588505 0 -23.30149567 0 -185.71543818 0 27345
0.15850000 0.15849900 8985.51102521 0 66.59121374 0 2477.09683522 0 -94.66159136 0 179.34909113 0 26980
0.15950000 0.15949700 8829.00314507 0 94.35103785 0 2234.21071325 0 -441.38083727 0 -423.13470917 0 27777
0.16050000 0.16050000 8768.88885761 0 73.39399939 0 2641.61255955 0 -87.20952704 0 -288.75376695 0 28224
0.16150000 0.16150500 8804.71342376 0 74.00590073 0 2852.42293995 0 -110.09887383 0 -590.31897549 0 28075
0.16250000 0.16249700 8601.87761397 0 24.29083044 0 2449.18029250 0 106.28438938 0 -555.03676888 0 28590
0.16350000 0.16349900 8723.01566704 0 18.65860971 0 2624.98685533 0 480.66474774 0 -198.88179808 0 29163
0.16450000 0.16449100 8523.62921950 0 40.28522373 0 2450.43359776 0 241.66719942 0 -233.91112540 0 28996
0.16550000 0.16550500 8453.38866922 0 182.05312495 0 2226.18068666 0 80.22772948 0 196.43286179 0 30777
0.16650000 0.16650700 8203.51509318 0 221.34369014 0 2687.69648287 0 -61.00324689 0 307.22171899 0 29211
0.16750000 0.16749900 8122.70463221 0 51.93663704 0 2251.98990196 0 186.75246509 0 556.67272043 0 30922
0.16850000 0.16850800 8034.41870450 0 -49.02453237 0 2277.46638135 0 233.17356080 0 528.25263737 0 30867
0.16950000 0.16949900 8069.50016045 0 -8.90349162 0 2194.81478169 0 67.06225688 0 515.32141085 0 30852
0.17050000 0.17049200 8041.74998569 0 128.71001323 0 2188.80335294 0 -41.34864769 0 146.42930947 0 31257
0.17150000 0.17149500 7994.92295217 0 92.68369821 0 2055.68680717 0 -123.21432514 0 346.03092623 0 32608
0.17250000 0.17250900 7820.76897769 0 16.08556293 0 2068.89642274 0 26.78701522 0 222.18440287 0 32361
0.17350000 0.17350400 7975.11407442 0 20.74907851 0 2025.33020112 0 154.45489958 0 38.05977506 0 32508
0.17450000 0.17449800 7778.13441662 0 37.78460247 0 1684.36462454 0 160.66264251 0 -45.09813774 0 32791
0.17550000 0.17549800 7769.50546540 0 76.63285072 0 1767.63733123 0 46.35743224 0 -178.23775320 0 33633
0.17650000 0.17650100 7802.21340520 0 62.21928573 0 1675.18111347 0 -97.60197858 0 -19.08828268 0 33984
0.17750000 0.17750300 7611.87737437 0 52.59390137 0 1560.80869054 0 124.85249493 0 -343.74059406 0 34069
0.17850000 0.17849800 7510.91420855 0 136.64132816 0 1716.65109886 0 -164.12975068 0 -220.70594631 0 34536
