### header ###
fiducial parameters:
Omega_m = 0.31
Omega_nu = 0
Omega_de = 0.69
Omega_k = 0
H_0 = 100
w_de = -1
zeff = 0
beta = 0
fgrowth = 0
b_1 = 2
gamma = 0.55
Lx = 3500 Ly = 3500 Lz = 3500
nx = 700 ny = 700 nz = 700
xoffset = 1379.75464 yoffset = 22.6059522 zoffset = 368.141391
bins = 400 dk = 0.001
kx_ny = 0.628318531 ky_ny = 0.628318531 kz_ny = 0.628318531
############################
A(data) = 3.32111764 (not used)
A(ran) = 3.31255003 (used)
Ngal = 186320
weighted Ngal = 0
Nran = 9399747
weighted Nran = 0
SN(data) = 6718.24591
SN(ran) = 131.757946
SN(data+ran) = 6850.00386
############################
13 columns: k_central k_mean P_0(k) sigma^{lin}_{P_0(k)} P^img_1(k) sigma^{lin}_{P_1(k)} P_2(k) sigma^{lin}_{P_2(k)} P^img_3(k) sigma^{lin}_{P_3(k)} P_4(k) sigma^{lin}_{P_4(k)} N_modes
### header ###
0.00050000 0 0 0 0 0 0 0 0 0 0 0 0
0.00150000 0.00179520 96334.69842121 0 -45016.72834951 0 -59572.03884057 0 56046.59097861 0 -284299.54225409 0 3
0.00250000 0.00253879 151409.25689927 0 -45976.11688553 0 -25029.28232911 0 -43773.62699555 0 173400.88220821 0 6
0.00350000 0.00331552 160886.68469153 0 -19023.84282953 0 -49646.97033948 0 -60523.33080282 0 -82471.03497184 0 7
0.00450000 0.00420575 165155.68639690 0 6231.13426628 0 -34012.04273748 0 -56440.77211815 0 31612.12954182 0 24
0.00550000 0.00557378 134897.79200245 0 17974.39377429 0 -5721.20539539 0 -37226.49343701 0 -19486.23483030 0 45
0.00650000 0.00659388 118993.01557870 0 28395.46060290 0 14666.77702039 0 -5383.58936029 0 49866.35421512 0 40
0.00750000 0.00754703 91207.12716007 0 12793.36294387 0 10825.23004540 0 3631.92335266 0 -51757.95785464 0 57
0.00850000 0.00846663 74201.21670330 0 6476.22753645 0 31974.47894612 0 3832.59637905 0 13315.42558422 0 75
0.00950000 0.00948925 69855.35300308 0 2739.31491347 0 22840.98917123 0 7763.34985109 0 -19114.56882057 0 112
0.01050000 0.01054430 62447.20982546 0 3585.71742618 0 3943.81890205 0 5105.22249928 0 -3734.90511633 0 105
0.01150000 0.01145670 66110.41035351 0 -2018.46475021 0 8615.57524220 0 12536.26899861 0 1244.83158068 0 144
0.01250000 0.01249090 67311.25424710 0 -6007.42482384 0 -8339.62626213 0 11614.14688433 0 -2380.55905698 0 169
0.01350000 0.01339930 73459.65927535 0 -1098.21704822 0 5041.39266085 0 1576.54709901 0 12887.30538202 0 180
0.01450000 0.01448870 73560.70007954 0 5485.86128735 0 -3584.02047305 0 -6449.79721412 0 8027.89708070 0 267
0.01550000 0.01550050 64334.82063407 0 7342.50547409 0 17553.59376207 0 -3810.87981542 0 7956.82469065 0 238
0.01650000 0.01653350 61395.09888295 0 2635.84513714 0 24777.62307036 0 -6000.08245146 0 17045.61694185 0 315
0.01750000 0.01747870 59921.30063247 0 474.39600323 0 31650.06143539 0 9164.02384009 0 21378.72576558 0 297
0.01850000 0.01844180 59608.86161444 0 -1606.50442197 0 34817.37454789 0 12635.86794720 0 43116.25175243 0 388
0.01950000 0.01947590 63174.79234526 0 -2330.21611403 0 29730.72980350 0 13679.10593215 0 31332.63137873 0 399
0.02050000 0.02045430 72816.25894038 0 -2307.70098423 0 26468.25422118 0 9969.11164417 0 38976.12975560 0 462
0.02150000 0.02154770 69122.33579677 0 124.54637789 0 27044.55281461 0 4171.89827609 0 49307.02515302 0 571
0.02250000 0.02255340 72989.61434868 0 53.92972513 0 20705.82284673 0 8871.26060544 0 35961.09877719 0 510
0.02350000 0.02348930 68161.06175727 0 3500.17102412 0 37792.03356940 0 -7191.04408856 0 39112.10783018 0 555
0.02450000 0.02439640 67245.92709707 0 4926.08857737 0 27400.35841271 0 -2956.95747118 0 22862.83882922 0 592
0.02550000 0.02547300 61531.40969344 0 2159.71114335 0 37024.41182862 0 4206.96864084 0 38290.13922435 0 837
0.02650000 0.02652900 59522.57210218 0 904.65347908 0 31063.78076470 0 8496.06759508 0 15190.61425226 0 723
0.02750000 0.02749970 62064.34170680 0 -1766.40620837 0 27278.79889415 0 14347.35054828 0 34612.07649238 0 826
0.02850000 0.02848090 58422.32536492 0 1228.90462186 0 23948.99974636 0 4003.71136557 0 12574.86636399 0 831
0.02950000 0.02946900 57709.93778493 0 4122.67554403 0 21579.80916625 0 -5857.63820905 0 28326.36244591 0 996
0.03050000 0.03053250 52230.77558054 0 3499.42791392 0 22353.64197733 0 -514.33540344 0 16623.70780993 0 1041
0.03150000 0.03150510 46000.40660684 0 2337.45866564 0 26547.44536739 0 -846.63653697 0 11362.04397770 0 1036
0.03250000 0.03246190 47585.89321059 0 1513.03890528 0 24712.18500837 0 -326.92301213 0 8776.63051308 0 1059
0.03350000 0.03345080 45275.15323840 0 -538.13156649 0 23871.25045575 0 3413.43786398 0 -732.56912195 0 1302
0.03450000 0.03451200 44203.74361320 0 581.06448076 0 23855.39004412 0 542.13437947 0 1289.56237797 0 1339
0.03550000 0.03553350 44415.80729885 0 876.23228690 0 20497.64108001 0 -1920.46293398 0 -4273.82637604 0 1365
0.03650000 0.03647120 42229.06690854 0 1078.56677459 0 23070.46603609 0 -270.06953657 0 -2653.48014029 0 1308
0.03750000 0.03744890 43927.46189722 0 832.64166466 0 21920.97438438 0 2983.88689737 0 -6888.24332068 0 1579
0.03850000 0.03847530 43273.30310122 0 -1223.31465860 0 22869.38263542 0 1207.57625013 0 -2348.18385309 0 1662
0.03950000 0.03950240 44621.21626633 0 -1105.38417969 0 18982.80540082 0 2618.96433538 0 -4120.16893352 0 1683
0.04050000 0.04050350 45922.87914018 0 1128.05236801 0 23264.67289465 0 -2049.52010167 0 -6471.86869605 0 1822
0.04150000 0.04152450 44491.44926204 0 547.01894261 0 20974.78437272 0 -2377.60879859 0 -3530.62745094 0 1887
0.04250000 0.04250150 43929.01466479 0 698.09546360 0 23134.68406642 0 3678.38437668 0 -7446.19707436 0 1920
0.04350000 0.04349210 45977.66965310 0 -786.49784887 0 23257.13088073 0 2935.04126601 0 -121.40424180 0 2005
0.04450000 0.04448520 44045.91588063 0 554.68517794 0 21828.58471380 0 1268.56674215 0 -3491.48661691 0 2151
0.04550000 0.04548030 42621.02980869 0 2716.58905092 0 22718.76418086 0 -34.30884317 0 2033.74841961 0 2274
0.04650000 0.04648670 39723.56551794 0 2635.61222200 0 25158.27294962 0 -4232.67803537 0 -2375.57910955 0 2311
0.04750000 0.04749250 37356.70408919 0 2303.77470051 0 29242.82804974 0 -1160.32775113 0 -381.53606590 0 2568
0.04850000 0.04851840 36020.10394496 0 368.59263906 0 30145.09692148 0 1966.71322525 0 2152.55732132 0 2493
0.04950000 0.04949480 35626.14462936 0 -1187.49009246 0 25330.51923823 0 6394.59632691 0 -149.85538021 0 2644
0.05050000 0.05050630 37060.12548279 0 -1475.50629481 0 22818.14130552 0 4602.05925853 0 3045.23230769 0 2829
0.05150000 0.05149060 37690.77094127 0 256.01255356 0 18696.31978365 0 1471.40255194 0 -2270.87821036 0 2784
0.05250000 0.05249300 37223.38790187 0 1882.83050273 0 21929.73642996 0 -2233.37887348 0 424.06969708 0 3055
0.05350000 0.05348950 33912.11105298 0 1458.44803390 0 19217.05148037 0 -3668.75721773 0 -4034.35634273 0 3009
0.05450000 0.05448610 33337.91978697 0 775.10497137 0 21802.52040097 0 1768.36935023 0 -782.23550189 0 3336
0.05550000 0.05550870 33388.38473308 0 -1383.46045134 0 18695.76522380 0 5742.48940234 0 -3584.88558641 0 3349
0.05650000 0.05647670 34393.69082447 0 -648.70303623 0 13894.94062476 0 5006.64394081 0 -1286.11301572 0 3324
0.05750000 0.05747970 34321.15439643 0 177.49686124 0 12523.07047424 0 2204.00938396 0 -596.74632412 0 3639
0.05850000 0.05849280 33742.30482770 0 -125.82297466 0 9101.66913085 0 2136.58599771 0 2589.81666980 0 3846
0.05950000 0.05951020 33749.62501769 0 584.26983668 0 11237.26801203 0 176.30233933 0 3964.61489632 0 3787
0.06050000 0.06049470 32594.14411962 0 1260.73635710 0 9537.85263323 0 12.75831476 0 4310.94861223 0 3930
0.06150000 0.06148310 32033.15137798 0 278.62750413 0 11625.57081719 0 434.05288345 0 5115.16021175 0 4083
0.06250000 0.06249100 30725.49925778 0 685.35944214 0 10689.11887646 0 -212.41194923 0 5723.64545872 0 4303
0.06350000 0.06350600 31152.62125226 0 -20.33071857 0 11641.09849292 0 2085.11175268 0 8777.17398173 0 4470
0.06450000 0.06451750 30894.30727534 0 -134.94992063 0 11619.69248281 0 1300.85321647 0 7001.73953905 0 4479
0.06550000 0.06550280 31074.98287362 0 137.52307832 0 11346.62721394 0 766.09670121 0 9473.03567826 0 4636
0.06650000 0.06648880 31394.85299361 0 159.77201940 0 11458.98103903 0 -72.66486410 0 5397.05407338 0 4653
0.06750000 0.06749660 30296.60267180 0 599.92838853 0 11666.60824590 0 -1805.09230332 0 7551.74090451 0 5220
0.06850000 0.06852730 30224.73171557 0 -63.28625887 0 10996.15648157 0 1421.27034173 0 6213.05561526 0 5029
0.06950000 0.06949320 29842.41815677 0 533.62410405 0 13261.85510296 0 -157.07353118 0 4327.59649885 0 5040
0.07050000 0.07048030 29311.37164688 0 1197.78272323 0 13080.18129695 0 -2043.75267926 0 3469.45949977 0 5475
0.07150000 0.07148790 27631.05530923 0 1434.13613019 0 15326.14867896 0 -1913.43111511 0 990.80213314 0 5509
0.07250000 0.07249820 26773.04031331 0 356.52208942 0 15230.09891339 0 -373.50049371 0 2249.11728195 0 5916
0.07350000 0.07351270 26959.92698189 0 -568.14323631 0 15610.74879265 0 1506.77237901 0 217.75568792 0 5721
0.07450000 0.07449140 27372.51950837 0 -350.84006923 0 13615.77519758 0 2404.08348571 0 -795.61481276 0 6028
0.07550000 0.07549160 27251.07090178 0 131.95862481 0 12940.54312737 0 845.10151531 0 -678.56497489 0 6183
0.07650000 0.07648840 26926.98612696 0 381.52164734 0 10686.74536031 0 126.18011120 0 -218.48659780 0 6330
0.07750000 0.07749960 26837.81290349 0 142.65941163 0 11636.44019020 0 1195.36484229 0 1755.69211212 0 6583
0.07850000 0.07848650 26586.15364474 0 97.46234041 0 10088.70802086 0 1458.80295221 0 204.43737863 0 6549
0.07950000 0.07947320 26496.98042127 0 -64.73288369 0 10042.19154086 0 1107.54252662 0 2571.98202511 0 6828
0.08050000 0.08048110 25823.63385455 0 646.17757068 0 9039.84679906 0 -259.64270232 0 503.77991130 0 7147
0.08150000 0.08149960 25295.24923193 0 791.69185640 0 9576.46108981 0 -530.22132483 0 1757.68852757 0 7386
0.08250000 0.08250610 24104.27650363 0 435.93284133 0 9949.26949283 0 -192.89809732 0 408.13719266 0 7227
0.08350000 0.08350160 23127.47478840 0 774.27313160 0 9697.23313338 0 103.77777887 0 -194.57841366 0 7798
0.08450000 0.08449610 23042.95986766 0 914.84517996 0 10383.39003258 0 -98.76422511 0 1262.88804931 0 7371
0.08550000 0.08548940 21119.74631684 0 403.57538335 0 9507.18547367 0 1534.81092489 0 -1372.57998713 0 8256
0.08650000 0.08650700 20964.80229547 0 164.39261205 0 8347.36791760 0 940.69765092 0 1453.65663682 0 8037
0.08750000 0.08749060 20312.19626704 0 340.26128558 0 7979.37309405 0 1004.98666491 0 -519.90318431 0 8155
0.08850000 0.08849210 19659.03567876 0 297.14093008 0 6744.25740190 0 482.99500822 0 572.48987640 0 8718
0.08950000 0.08949900 19269.95648981 0 -68.46895338 0 5327.98918999 0 1028.47671093 0 1005.65768233 0 8571
0.09050000 0.09049190 19647.27900999 0 -379.90455083 0 4903.69545073 0 808.59040407 0 1151.49915836 0 8932
0.09150000 0.09150830 19733.45761028 0 -134.87560961 0 4541.54568798 0 887.09833255 0 -185.21522520 0 9285
0.09250000 0.09250820 19703.73320246 0 212.91216222 0 3516.68581637 0 -322.86252492 0 -736.09612258 0 9204
0.09350000 0.09350330 19517.95565357 0 517.42762915 0 4612.39625408 0 -1046.89253434 0 847.77005729 0 9349
0.09450000 0.09448040 18816.32653463 0 390.78057856 0 4621.40230601 0 -78.92418110 0 317.26036134 0 9564
0.09550000 0.09549270 19055.00909295 0 185.28509974 0 5597.48309344 0 139.38861765 0 849.12540156 0 10155
0.09650000 0.09649430 18336.07770677 0 224.53240926 0 5815.31420150 0 400.52752243 0 1259.63832861 0 9913
0.09750000 0.09749140 18072.43995531 0 356.30581108 0 5763.99523322 0 202.70160631 0 2385.31718047 0 10476
0.09850000 0.09850240 17766.43383151 0 307.27052025 0 6667.82796373 0 77.95192678 0 2553.77027972 0 10575
0.09950000 0.09950330 17601.28590895 0 157.29757336 0 5876.02741359 0 687.92816335 0 3516.64145159 0 10882
0.10050000 0.10051200 17171.94567509 0 82.92477584 0 6049.10554197 0 520.40894289 0 2639.12813144 0 10875
0.10150000 0.10150300 17090.20355358 0 214.09781117 0 5566.36119480 0 221.79732009 0 2875.70336234 0 11118
0.10250000 0.10250800 16693.58235071 0 162.62245701 0 5059.03875519 0 206.03340187 0 2606.48673882 0 11575
0.10350000 0.10349800 16791.62853173 0 -10.19759030 0 4834.88566487 0 161.39577063 0 2250.22640164 0 11364
0.10450000 0.10450100 16425.06447259 0 122.78842317 0 4270.59883773 0 25.74399906 0 1336.69996500 0 12093
0.10550000 0.10551000 16301.84127450 0 204.37637705 0 4419.93071344 0 -285.18794713 0 704.42964617 0 12067
0.10650000 0.10649700 15773.67847582 0 506.73571529 0 4316.20583958 0 17.91494496 0 1666.30815591 0 12054
0.10750000 0.10749900 15520.57736146 0 226.02750261 0 4734.05559341 0 -43.41238671 0 424.86382678 0 12807
0.10850000 0.10850100 15192.72157968 0 416.85265522 0 5629.35919346 0 -621.60835120 0 345.14584871 0 12736
0.10950000 0.10950300 14666.44428448 0 256.19444919 0 5597.51636703 0 -332.10260110 0 482.94287960 0 12933
0.11050000 0.11050200 14480.77764757 0 108.47401348 0 6331.07704198 0 -44.27561457 0 1041.14618521 0 13428
0.11150000 0.11150900 14779.90722926 0 -113.53947404 0 5780.60984625 0 92.36305171 0 389.32097704 0 13453
0.11250000 0.11250000 14939.50955335 0 -152.84334866 0 6258.11914846 0 680.05563176 0 -41.62858951 0 13668
0.11350000 0.11349100 14765.82140914 0 142.43426033 0 5712.89808888 0 -84.71245496 0 621.84681194 0 13791
0.11450000 0.11448600 14865.75309364 0 78.59787809 0 5531.30192125 0 495.78981302 0 550.17882462 0 14205
0.11550000 0.11549300 14694.50501276 0 108.42820684 0 5433.98775922 0 498.14336501 0 1139.07701778 0 14776
0.11650000 0.11649800 14346.46325253 0 233.96436314 0 5278.66663716 0 7.82578220 0 251.63596724 0 14553
0.11750000 0.11747300 14197.39756554 0 330.37126526 0 5333.42387649 0 82.47957519 0 1747.78408869 0 14568
0.11850000 0.11849100 13462.82759166 0 280.76034131 0 4994.88727204 0 58.03646262 0 699.41531603 0 16015
0.11950000 0.11950300 13593.03824383 0 80.30547877 0 5446.89791247 0 24.60371310 0 791.01862075 0 15270
0.12050000 0.12050700 13200.74260777 0 98.05050659 0 4957.39902636 0 -301.14152482 0 28.23874199 0 15999
0.12150000 0.12150000 13446.19079624 0 14.25484997 0 5479.92749698 0 69.56609459 0 -369.79603393 0 15670
0.12250000 0.12250700 13346.48093567 0 -117.71863705 0 4730.38440722 0 332.34882567 0 -0.53965550 0 16887
0.12350000 0.12352200 13472.03328513 0 -82.58017235 0 4476.67327703 0 154.78541725 0 -1140.23050226 0 16407
0.12450000 0.12449800 13781.58859195 0 78.65843602 0 5004.01532713 0 100.09938340 0 -114.22823737 0 16306
0.12550000 0.12549900 13368.99606548 0 238.23447397 0 4674.00785313 0 10.61668227 0 -706.76767049 0 17523
0.12650000 0.12650100 12987.01524258 0 299.20611095 0 5144.49642768 0 76.46681550 0 731.42561955 0 17154
0.12750000 0.12750600 12917.02978984 0 243.16672925 0 4994.31052980 0 -179.30472634 0 67.48904613 0 18007
0.12850000 0.12850300 12579.96831458 0 119.37233451 0 5190.15888551 0 300.09673407 0 282.82330394 0 17496
0.12950000 0.12949900 12479.03842235 0 100.87709813 0 5540.28579077 0 361.81924508 0 437.60539383 0 18405
0.13050000 0.13049000 12271.74395139 0 114.11843452 0 4304.11643491 0 56.66403791 0 257.57086673 0 18100
0.13150000 0.13148800 12265.75470504 0 110.61561270 0 5143.50931115 0 343.35794776 0 1025.33901131 0 19059
0.13250000 0.13249300 11908.83998725 0 102.13095795 0 4166.54122796 0 89.41856074 0 -344.59683446 0 18957
0.13350000 0.13349100 12085.74457857 0 147.92551194 0 5023.86856967 0 -98.34752884 0 815.93721293 0 19468
0.13450000 0.13450700 11670.82290074 0 173.40199133 0 3964.69253470 0 -19.84370411 0 -454.22222510 0 19953
0.13550000 0.13551000 11618.25062720 0 42.76399534 0 4636.30887471 0 287.48604314 0 1049.35256183 0 19956
0.13650000 0.13649900 11344.85262243 0 136.09675039 0 3998.52068539 0 -3.96764279 0 113.84337284 0 19723
0.13750000 0.13749600 11479.49975338 0 21.34722677 0 4542.10024783 0 315.06874083 0 490.66789827 0 20946
0.13850000 0.13851100 11168.39167898 0 144.32198205 0 4253.31875289 0 19.08340256 0 617.31494886 0 20955
0.13950000 0.13949800 11163.51155233 0 104.97241169 0 4376.26467106 0 -0.82405375 0 363.67258409 0 20506
0.14050000 0.14048300 11184.91756244 0 45.00408438 0 4421.43911623 0 -166.86373073 0 563.75444968 0 21447
0.14150000 0.14148400 10916.48841389 0 56.00577537 0 4070.11436170 0 206.33508243 0 45.08760110 0 21771
0.14250000 0.14249400 11081.11505020 0 18.86180044 0 4331.53387376 0 334.94749312 0 508.14207906 0 22470
0.14350000 0.14350900 10879.82091678 0 -126.23113071 0 3595.17821718 0 178.12351387 0 -203.01881454 0 22519
0.14450000 0.14449900 11205.32536482 0 57.59303657 0 3730.69046149 0 423.69925110 0 166.85263953 0 22218
0.14550000 0.14550500 10984.03380331 0 79.91517955 0 3185.43612832 0 -27.33436579 0 -358.55399670 0 23559
0.14650000 0.14650700 10878.57870273 0 115.59356371 0 3227.53831193 0 -120.63562185 0 -331.19866855 0 23044
0.14750000 0.14750500 10773.73361797 0 171.46214098 0 3164.79541080 0 64.39238395 0 -340.52414694 0 23649
0.14850000 0.14849900 10496.38714709 0 123.59918967 0 3070.96388461 0 -169.70640450 0 -844.16320005 0 23640
0.14950000 0.14949500 10431.34836818 0 206.85193220 0 3215.87037274 0 71.40124403 0 -622.45460953 0 24457
0.15050000 0.15050000 10157.11852364 0 68.54304258 0 3057.89845461 0 294.37034908 0 -548.49850828 0 24591
0.15150000 0.15149900 10210.23426582 0 -18.17381350 0 2850.34888612 0 424.37137763 0 -253.19095305 0 25020
0.15250000 0.15250500 10001.60885123 0 62.54547783 0 2448.00462562 0 307.47127092 0 -366.84688466 0 25297
0.15350000 0.15350100 9913.34510591 0 144.24101631 0 2563.10906755 0 -41.58599931 0 -169.60991109 0 25452
0.15450000 0.15450400 9678.59992250 0 251.10469891 0 2448.25972315 0 -244.06622532 0 -144.13343170 0 26061
0.15550000 0.15549900 9636.74174522 0 90.57481802 0 2525.94246658 0 63.20096757 0 -109.54897229 0 26128
0.15650000 0.15649500 9424.72242436 0 65.60742457 0 2691.95550250 0 27.68595673 0 -72.71166895 0 26331
0.15750000 0.15749700 9235.83934033 0 99.26832001 0 2266.39736679 0 98.88600646 0 -631.26989286 0 27345
0.15850000 0.15849900 9070.69141777 0 253.02125774 0 2523.86841275 0 87.43523290 0 -341.36485967 0 26980
0.15950000 0.15949700 8908.89303669 0 181.23681285 0 2350.89010515 0 -111.12270222 0 -371.07373982 0 27777
0.16050000 0.16050000 8597.29694963 0 150.59849040 0 2457.82033492 0 54.73150776 0 -492.76635273 0 28224
0.16150000 0.16150500 8318.43098476 0 199.09253082 0 2606.54219480 0 -38.13075872 0 -614.10959295 0 28075
0.16250000 0.16249700 8183.56202987 0 97.74050763 0 2344.57921408 0 148.56436488 0 -534.21526485 0 28590
0.16350000 0.16349900 8093.04677157 0 -93.55380261 0 2151.34838085 0 470.82020133 0 -135.18838136 0 29163
0.16450000 0.16449100 8183.61748585 0 -40.50139116 0 1893.97715567 0 454.43628520 0 -60.24838003 0 28996
0.16550000 0.16550500 8281.68584927 0 -36.01733115 0 1505.15306425 0 232.64229247 0 177.56229930 0 30777
0.16650000 0.16650700 8333.60374218 0 40.08280939 0 1776.16646168 0 -22.89489239 0 376.71139523 0 29211
0.16750000 0.16749900 8256.39792023 0 10.20239279 0 1376.80573317 0 -76.44796047 0 346.73632635 0 30922
0.16850000 0.16850800 8237.79798294 0 99.87500849 0 1914.31841087 0 -119.69841570 0 326.01020662 0 30867
0.16950000 0.16949900 8266.92346613 0 110.44525191 0 1879.60296442 0 -184.69837542 0 361.02844274 0 30852
0.17050000 0.17049200 8121.22950302 0 173.14467556 0 2272.88571701 0 -170.86765283 0 396.82528089 0 31257
0.17150000 0.17149500 8019.01303194 0 80.73836818 0 2281.33720908 0 -59.67208144 0 294.59660950 0 32608
0.17250000 0.17250900 7944.58000922 0 13.04646406 0 2532.24226645 0 223.28575872 0 594.59352280 0 32361
0.17350000 0.17350400 7765.01353063 0 96.67187081 0 2293.51534333 0 -17.43680346 0 405.23351730 0 32508
0.17450000 0.17449800 7937.70346712 0 -15.77489851 0 2192.15289442 0 266.84199826 0 894.65365591 0 32791
0.17550000 0.17549800 7867.47400804 0 29.91140540 0 1982.16326260 0 303.71357339 0 527.39196049 0 33633
0.17650000 0.17650100 7865.22249506 0 23.06425497 0 1853.31682765 0 90.01460166 0 961.07883444 0 33984
0.17750000 0.17750300 7707.05093538 0 181.38321665 0 2046.83603201 0 -411.38580425 0 285.59055758 0 34069
0.17850000 0.17849800 7545.39673986 0 210.00405038 0 2176.01520286 0 -485.97077636 0 230.76344370 0 34536
