### header ###
fiducial parameters:
Omega_m = 0.31
Omega_nu = 0
Omega_de = 0.69
Omega_k = 0
H_0 = 100
w_de = -1
zeff = 0
beta = 0
fgrowth = 0
b_1 = 2
gamma = 0.55
Lx = 3500 Ly = 3500 Lz = 3500
nx = 700 ny = 700 nz = 700
xoffset = 1379.75464 yoffset = 22.6059522 zoffset = 368.141391
bins = 400 dk = 0.001
kx_ny = 0.628318531 ky_ny = 0.628318531 kz_ny = 0.628318531
############################
A(data) = 3.32725303 (not used)
A(ran) = 3.33038656 (used)
Ngal = 187320
weighted Ngal = 0
Nran = 9399747
weighted Nran = 0
SN(data) = 6646.72355
SN(ran) = 132.467401
SN(data+ran) = 6779.19095
############################
13 columns: k_central k_mean P_0(k) sigma^{lin}_{P_0(k)} P^img_1(k) sigma^{lin}_{P_1(k)} P_2(k) sigma^{lin}_{P_2(k)} P^img_3(k) sigma^{lin}_{P_3(k)} P_4(k) sigma^{lin}_{P_4(k)} N_modes
### header ###
0.00050000 0 0 0 0 0 0 0 0 0 0 0 0
0.00150000 0.00179520 27134.16968595 0 -46888.70057043 0 -67484.05509555 0 64777.91395216 0 58443.50955109 0 3
0.00250000 0.00253879 32326.29171332 0 -34192.82924774 0 -13520.83455170 0 -78765.02242356 0 -58258.61929796 0 6
0.00350000 0.00331552 56804.67429002 0 -13662.13640082 0 -78141.58624310 0 11179.92652381 0 10260.81012391 0 7
0.00450000 0.00420575 68561.78670301 0 -7749.24184857 0 -41801.50126619 0 -45208.60605671 0 -11936.12433174 0 24
0.00550000 0.00557378 76296.45471879 0 -1484.76744426 0 -53033.33459171 0 -34957.01271747 0 1421.51434807 0 45
0.00650000 0.00659388 72362.73989717 0 -3802.46159694 0 -11456.65188767 0 -17044.06417427 0 -39649.58723429 0 40
0.00750000 0.00754703 68757.10268127 0 1592.85115852 0 -35218.21040560 0 -26221.47508908 0 -17806.69487643 0 57
0.00850000 0.00846663 75490.12470066 0 1196.61814755 0 -6479.93199623 0 -28865.61644154 0 -51087.16226321 0 75
0.00950000 0.00948925 68408.95000906 0 4837.19263383 0 6563.85908353 0 -34351.65518804 0 -26335.82532962 0 112
0.01050000 0.01054430 58356.00000716 0 14881.39168134 0 32257.74811618 0 -26257.18874325 0 -55327.77050439 0 105
0.01150000 0.01145670 55269.76354435 0 9771.08941385 0 50876.76225710 0 -18563.77998012 0 -25749.54465893 0 144
0.01250000 0.01249090 52600.22335088 0 -11029.11951890 0 38389.73817294 0 35957.54959417 0 -28511.25269904 0 169
0.01350000 0.01339930 71931.51415982 0 -18671.25367855 0 45660.12868447 0 36804.69521707 0 136.13778782 0 180
0.01450000 0.01448870 86764.32639853 0 2282.35759920 0 14561.18882544 0 -7132.17201516 0 -32643.72176998 0 267
0.01550000 0.01550050 76846.46717546 0 7095.77070678 0 28582.56909542 0 -1250.12208163 0 -10201.78277375 0 238
0.01650000 0.01653350 70619.20373691 0 4606.35155175 0 31394.96390558 0 -6431.94038703 0 10155.41047931 0 315
0.01750000 0.01747870 73917.17114946 0 -1521.63458292 0 43504.99820546 0 7804.72001571 0 12412.04759279 0 297
0.01850000 0.01844180 71510.15958776 0 772.02716421 0 30585.08470442 0 15336.90714000 0 -2721.63554553 0 388
0.01950000 0.01947590 71580.14504050 0 213.31477267 0 26651.48079476 0 -9610.99907710 0 886.55486390 0 399
0.02050000 0.02045430 76909.24335018 0 -1924.06757299 0 35435.93060169 0 3891.43517886 0 3775.13288766 0 462
0.02150000 0.02154770 76421.56342037 0 -161.89931097 0 35167.19089964 0 307.42801525 0 3456.80444405 0 571
0.02250000 0.02255340 80526.19358697 0 1117.23845099 0 46440.72712569 0 -3791.89168625 0 4243.21467247 0 510
0.02350000 0.02348930 79447.57468375 0 5202.65866447 0 40025.91154675 0 -1019.29652722 0 -1644.40304194 0 555
0.02450000 0.02439640 74678.80364389 0 2530.29021578 0 56391.08355582 0 2290.43199058 0 3966.02347834 0 592
0.02550000 0.02547300 75409.71352278 0 -519.33753326 0 49430.35926308 0 9900.70114139 0 23182.15438936 0 837
0.02650000 0.02652900 75898.72439623 0 -1226.86384162 0 47841.32347631 0 16752.58751847 0 9269.82276778 0 723
0.02750000 0.02749970 76648.15657402 0 2948.32851996 0 40148.91292090 0 5560.23885408 0 26279.37113715 0 826
0.02850000 0.02848090 71541.21493921 0 3030.60301892 0 43648.62920594 0 2506.56614551 0 15457.13571492 0 831
0.02950000 0.02946900 69578.18399135 0 2223.14169870 0 47273.01054468 0 4557.36173483 0 31382.09811712 0 996
0.03050000 0.03053250 67099.74512130 0 874.02846607 0 43381.55318343 0 2893.43818626 0 25202.52682545 0 1041
0.03150000 0.03150510 67199.78771777 0 815.28615967 0 30710.63705387 0 4955.18078697 0 15159.78072474 0 1036
0.03250000 0.03246190 63667.46331370 0 573.58125018 0 45084.60647483 0 8954.04529947 0 35043.74587760 0 1059
0.03350000 0.03345080 63877.75240784 0 2334.94096393 0 25980.01973152 0 351.55434231 0 11604.71936693 0 1302
0.03450000 0.03451200 60731.06892166 0 1862.86634823 0 41359.96071568 0 3782.50853363 0 31510.09052990 0 1339
0.03550000 0.03553350 55885.99044680 0 3749.37912835 0 29836.42891041 0 2361.58201900 0 11598.39738466 0 1365
0.03650000 0.03647120 54686.36658488 0 2067.56547910 0 44152.50228330 0 -1949.24459006 0 28433.94705631 0 1308
0.03750000 0.03744890 50684.44090202 0 2632.02976539 0 39300.65817830 0 626.27996336 0 12651.95018278 0 1579
0.03850000 0.03847530 49262.54945326 0 688.20100680 0 38758.07682359 0 4732.19227232 0 17185.92058324 0 1662
0.03950000 0.03950240 48280.86761137 0 -918.05940883 0 32786.35456273 0 7102.36996896 0 14549.43215668 0 1683
0.04050000 0.04050350 49681.02031411 0 -1319.37551537 0 24640.53587608 0 6664.01259198 0 7755.56383083 0 1822
0.04150000 0.04152450 51887.61394696 0 -1550.49387738 0 24918.48127160 0 6478.64541738 0 13921.55949744 0 1887
0.04250000 0.04250150 50815.31702601 0 -279.36395961 0 14769.25968019 0 788.17705609 0 4164.12334703 0 1920
0.04350000 0.04349210 51253.64112940 0 2623.87773563 0 18410.27781435 0 -3083.31947802 0 8014.75401232 0 2005
0.04450000 0.04448520 46192.94978587 0 2292.97187468 0 13548.78436801 0 -1751.93219635 0 -1572.24371459 0 2151
0.04550000 0.04548030 44490.45105431 0 2613.13036579 0 20773.25732417 0 -2899.23888227 0 3402.29121105 0 2274
0.04650000 0.04648670 42151.31761793 0 1327.91573702 0 21059.41020544 0 1152.84119319 0 -2469.44390932 0 2311
0.04750000 0.04749250 39454.60399194 0 1203.67214881 0 21299.53461937 0 -460.79930489 0 -3923.24473171 0 2568
0.04850000 0.04851840 39586.81105957 0 1067.55654338 0 23399.54184954 0 -275.88797849 0 -1208.72973461 0 2493
0.04950000 0.04949480 38276.71887604 0 505.06759927 0 23161.52476303 0 1573.25301351 0 -3061.91346790 0 2644
0.05050000 0.05050630 38663.02526575 0 -330.78385778 0 21834.35213621 0 3263.34069568 0 -916.61755323 0 2829
0.05150000 0.05149060 38441.09041481 0 -678.68586894 0 21141.26323892 0 1827.85143946 0 3644.50077000 0 2784
0.05250000 0.05249300 39129.96465727 0 171.19151578 0 16052.51116710 0 4493.95336187 0 -546.26695945 0 3055
0.05350000 0.05348950 39655.68739261 0 -603.38329638 0 17125.02991199 0 2312.15964540 0 4451.56280714 0 3009
0.05450000 0.05448610 39028.59111716 0 -305.99281437 0 13961.93145433 0 1916.23718794 0 2250.45931678 0 3336
0.05550000 0.05550870 39508.06356123 0 422.04999011 0 13046.90770610 0 1373.46728289 0 3115.46176677 0 3349
0.05650000 0.05647670 38442.64318239 0 754.54521958 0 11648.52959487 0 -173.77798290 0 4233.46551035 0 3324
0.05750000 0.05747970 37151.73876958 0 1141.25089238 0 10822.73452609 0 304.57868675 0 568.32069546 0 3639
0.05850000 0.05849280 36366.26020171 0 1242.50242932 0 11296.71682767 0 536.15289696 0 1570.94604455 0 3846
0.05950000 0.05951020 33115.54128816 0 1279.91303663 0 10511.11625663 0 -334.98076671 0 1444.00729548 0 3787
0.06050000 0.06049470 32249.20789453 0 1575.81508001 0 13112.12394416 0 -951.05904711 0 1364.48341336 0 3930
0.06150000 0.06148310 30613.25634467 0 229.26945948 0 10489.23332505 0 1736.29360865 0 338.60093339 0 4083
0.06250000 0.06249100 30654.18286141 0 -487.07767782 0 10730.04539319 0 3043.40226020 0 2279.83989749 0 4303
0.06350000 0.06350600 30776.74058768 0 -1055.19540438 0 5758.06144285 0 2450.18959142 0 417.12217131 0 4470
0.06450000 0.06451750 31684.77688183 0 -329.94314506 0 4721.12325777 0 2076.83771975 0 2082.12822070 0 4479
0.06550000 0.06550280 31749.88220792 0 243.51388372 0 4332.44335191 0 -420.45174863 0 -315.00773924 0 4636
0.06650000 0.06648880 31639.63571026 0 577.14707000 0 4041.69871511 0 -742.21402682 0 1504.78705475 0 4653
0.06750000 0.06749660 30809.79235459 0 248.18327763 0 3667.10462938 0 454.20447918 0 844.72885109 0 5220
0.06850000 0.06852730 29773.43091175 0 526.93167581 0 5453.19771234 0 -506.94090243 0 1223.88030965 0 5029
0.06950000 0.06949320 30248.46687704 0 481.24814470 0 2602.97082938 0 1598.05292989 0 1383.92628161 0 5040
0.07050000 0.07048030 29080.67475036 0 -314.20030011 0 3419.40492794 0 1906.38820505 0 3476.58004821 0 5475
0.07150000 0.07148790 29235.72968370 0 274.30748292 0 1994.51885600 0 507.51875379 0 2423.26016523 0 5509
0.07250000 0.07249820 28203.47198373 0 814.92347753 0 3526.77880560 0 -521.33173047 0 3504.49659093 0 5916
0.07350000 0.07351270 27354.55176931 0 1202.75157946 0 2538.78607265 0 -936.89115213 0 4288.00092574 0 5721
0.07450000 0.07449140 25879.75531110 0 469.07111957 0 4750.43729130 0 112.98269595 0 3364.25949671 0 6028
0.07550000 0.07549160 25310.77690766 0 169.21950096 0 3927.03792106 0 560.43929091 0 3579.16252878 0 6183
0.07650000 0.07648840 25172.91332959 0 582.55513763 0 4943.93431326 0 -589.72005086 0 2749.29699072 0 6330
0.07750000 0.07749960 24670.59301981 0 950.89489740 0 4237.77998596 0 -1328.22629053 0 2921.60982651 0 6583
0.07850000 0.07848650 23647.43010134 0 393.28053435 0 6228.77184133 0 -725.22564045 0 2221.83293746 0 6549
0.07950000 0.07947320 23499.36262208 0 -95.62131263 0 6177.38632587 0 -123.02022919 0 2187.79405402 0 6828
0.08050000 0.08048110 23646.32098164 0 275.83917722 0 5493.90240514 0 -67.17128334 0 317.75170137 0 7147
0.08150000 0.08149960 23090.09745469 0 234.26715282 0 7614.51707924 0 348.82923522 0 1867.59119813 0 7386
0.08250000 0.08250610 22955.56123571 0 19.95761070 0 5712.58753536 0 -56.07442988 0 367.44026370 0 7227
0.08350000 0.08350160 22601.30840518 0 334.29311250 0 6618.63850526 0 131.54492317 0 -47.82535215 0 7798
0.08450000 0.08449610 22342.77260432 0 815.08873637 0 6823.38200093 0 -53.71122855 0 1908.81717718 0 7371
0.08550000 0.08548940 22071.59283893 0 -59.26281627 0 6376.56204067 0 872.63097525 0 449.44081009 0 8256
0.08650000 0.08650700 21403.01548689 0 -235.05462780 0 6091.11899601 0 459.59036442 0 1376.81682436 0 8037
0.08750000 0.08749060 21990.40527727 0 350.54060691 0 4890.99603023 0 215.85022029 0 -626.55058856 0 8155
0.08850000 0.08849210 21398.68992008 0 277.04035385 0 5756.40885451 0 69.50065652 0 1054.37465581 0 8718
0.08950000 0.08949900 20476.12415793 0 541.76171525 0 4730.48422799 0 -382.05624304 0 -1307.59666421 0 8571
0.09050000 0.09049190 20552.43159293 0 448.69548166 0 6093.84743046 0 -524.94746068 0 -377.38019440 0 8932
0.09150000 0.09150830 19867.10653350 0 210.74605145 0 4990.48406685 0 -39.22934178 0 -1674.13854096 0 9285
0.09250000 0.09250820 19268.29281027 0 250.53128403 0 5579.29353044 0 351.31920893 0 -1132.07847251 0 9204
0.09350000 0.09350330 19237.01563488 0 175.33185960 0 5480.80370154 0 -159.27735201 0 -1370.17319739 0 9349
0.09450000 0.09448040 18968.05410888 0 283.93353275 0 5567.39267611 0 -142.04052284 0 -2630.09989712 0 9564
0.09550000 0.09549270 18516.86421703 0 344.44266683 0 5930.35209625 0 25.14152524 0 -1541.86492615 0 10155
0.09650000 0.09649430 18170.92978421 0 148.16286355 0 5037.56619790 0 -364.18721563 0 -2241.95236872 0 9913
0.09750000 0.09749140 18019.31312193 0 61.45332767 0 6126.08953999 0 399.51156879 0 -793.88014956 0 10476
0.09850000 0.09850240 18591.61888446 0 -16.24006331 0 5609.90523402 0 492.35708757 0 -884.29004148 0 10575
0.09950000 0.09950330 17999.12714348 0 -11.55669448 0 5314.35810894 0 403.01305967 0 -753.75552636 0 10882
0.10050000 0.10051200 18405.39768770 0 207.91668711 0 6350.28699510 0 -279.10997120 0 -968.95358427 0 10875
0.10150000 0.10150300 17741.81137429 0 302.33382849 0 5827.42578857 0 -681.30560966 0 -1101.67417431 0 11118
0.10250000 0.10250800 17695.56108301 0 316.19449732 0 7200.53815315 0 -266.11108838 0 -178.66698252 0 11575
0.10350000 0.10349800 17424.49222960 0 163.45984238 0 6785.35028659 0 -28.62438291 0 -1459.43515043 0 11364
0.10450000 0.10450100 17512.55633337 0 234.04754712 0 7328.07582686 0 128.04786877 0 -473.63403800 0 12093
0.10550000 0.10551000 16908.19701166 0 152.07472872 0 7050.13043133 0 242.63324268 0 -986.96790635 0 12067
0.10650000 0.10649700 16896.99490274 0 389.76351580 0 8327.41485429 0 -490.00686293 0 498.32969712 0 12054
0.10750000 0.10749900 16350.86436501 0 313.80767173 0 7489.47492485 0 7.27114471 0 -1138.58900511 0 12807
0.10850000 0.10850100 16046.52192075 0 290.04810963 0 8222.86923185 0 -88.13930208 0 15.75116335 0 12736
0.10950000 0.10950300 15641.80414411 0 177.16190709 0 8147.93710527 0 190.04655059 0 -570.10859641 0 12933
0.11050000 0.11050200 15747.83598693 0 46.32537868 0 8180.86686901 0 410.94548373 0 -612.04441207 0 13428
0.11150000 0.11150900 15454.47382765 0 84.09212432 0 7956.88014664 0 343.01744802 0 -336.16308830 0 13453
0.11250000 0.11250000 15525.67931206 0 74.67359078 0 6763.57826698 0 708.30380127 0 -1073.67222938 0 13668
0.11350000 0.11349100 15321.26855231 0 -173.22896866 0 6794.78889519 0 798.30331890 0 706.32956821 0 13791
0.11450000 0.11448600 15599.32485980 0 -38.13120237 0 5708.36178933 0 694.16585252 0 -554.58313892 0 14205
0.11550000 0.11549300 15456.69206704 0 76.15160369 0 5839.53737563 0 338.94697874 0 325.62090560 0 14776
0.11650000 0.11649800 15086.35700094 0 257.29580504 0 5642.06970517 0 -157.48279635 0 -255.92936958 0 14553
0.11750000 0.11747300 14762.71587399 0 444.42315260 0 5485.42873067 0 -130.50678713 0 750.87070604 0 14568
0.11850000 0.11849100 14505.40010479 0 20.21481556 0 5314.10301141 0 594.43602780 0 836.24519454 0 16015
0.11950000 0.11950300 14377.96225186 0 108.93540727 0 5302.33525145 0 665.71027763 0 -68.60138228 0 15270
0.12050000 0.12050700 14314.18786941 0 126.22780335 0 4994.88727204 0 -194.97104203 0 650.26467676 0 15999
0.12150000 0.12150000 13934.20346196 0 193.64564400 0 4893.16990483 0 -276.95495163 0 -518.40476360 0 15670
0.12250000 0.12250700 13699.62464651 0 373.35741727 0 5261.66383224 0 -290.36420875 0 82.07674292 0 16887
0.12350000 0.12352200 13359.90128398 0 252.28480226 0 5060.54715797 0 -171.78267657 0 -1162.72344967 0 16407
0.12450000 0.12449800 13020.95430524 0 44.47115237 0 4824.94795240 0 428.10134717 0 -908.17715235 0 16306
0.12550000 0.12549900 13031.49094234 0 68.47904637 0 4812.30398788 0 112.27840495 0 -1189.86360861 0 17523
0.12650000 0.12650100 13004.98298164 0 -25.49300527 0 3787.22229233 0 635.16623035 0 -1006.45070291 0 17154
0.12750000 0.12750600 12907.93500834 0 -58.73321162 0 3697.13959072 0 655.18140436 0 -838.54107231 0 18007
0.12850000 0.12850300 13055.33701578 0 53.25582400 0 3288.67298951 0 154.00348787 0 -878.12999070 0 17496
0.12950000 0.12949900 12811.99615474 0 245.57130075 0 3657.42201445 0 -111.83697531 0 -835.98787878 0 18405
0.13050000 0.13049000 12461.29250724 0 260.12295115 0 3770.67422649 0 -474.39822147 0 -1095.95777140 0 18100
0.13150000 0.13148800 12142.97515482 0 248.33079055 0 4202.70962121 0 -361.81924508 0 -467.76235833 0 19059
0.13250000 0.13249300 12323.65075311 0 -81.36269166 0 4065.55587975 0 506.36416019 0 -949.67264749 0 18957
0.13350000 0.13349100 12336.73836551 0 -92.69057475 0 3888.42946449 0 443.15542878 0 -699.66375885 0 19468
0.13450000 0.13450700 12394.74532555 0 129.49637909 0 3373.66483173 0 46.33292069 0 -931.13593004 0 19953
0.13550000 0.13551000 12063.56218467 0 263.29392435 0 3416.74304067 0 -88.22315153 0 -224.72428697 0 19956
0.13650000 0.13649900 11801.14446488 0 114.82938024 0 3528.59776190 0 476.28816143 0 -165.69804593 0 19723
0.13750000 0.13749600 11390.54835386 0 115.93295434 0 3299.75309526 0 369.65628485 0 -27.89214209 0 20946
0.13850000 0.13851100 11429.92210302 0 261.82434076 0 3197.31480025 0 258.62342132 0 291.45669164 0 20955
0.13950000 0.13949800 11137.44723950 0 84.99383863 0 3229.41272422 0 164.60112655 0 311.88002171 0 20506
0.14050000 0.14048300 10953.16700220 0 152.65258008 0 3385.80969238 0 -284.55020331 0 778.83161354 0 21447
0.14150000 0.14148400 10597.97141994 0 228.12373883 0 3270.31705856 0 76.03204058 0 214.31963511 0 21771
0.14250000 0.14249400 10473.22872786 0 201.38064475 0 3531.89184739 0 -164.29722775 0 554.24374830 0 22470
0.14350000 0.14350900 10371.73318459 0 52.71845551 0 3442.62989435 0 -95.88495038 0 -91.81326107 0 22519
0.14450000 0.14449900 10215.79095549 0 146.04888141 0 3930.53164810 0 -14.85810017 0 215.74263568 0 22218
0.14550000 0.14550500 10236.14330189 0 -0.08546300 0 3205.04536452 0 164.30277335 0 -416.27480386 0 23559
0.14650000 0.14650700 10212.58559958 0 -127.89702849 0 3177.55028729 0 477.50042925 0 -174.17615687 0 23044
0.14750000 0.14750500 10310.62068940 0 -20.23633248 0 2778.54447707 0 203.82847192 0 -128.60908333 0 23649
0.14850000 0.14849900 10421.13337579 0 -67.65186491 0 2260.23066129 0 265.41012473 0 -395.79379958 0 23640
0.14950000 0.14949500 10251.02768820 0 125.51242114 0 2176.55867151 0 -293.53296371 0 -783.63853830 0 24457
0.15050000 0.15050000 10335.45387937 0 146.26294152 0 2536.03545580 0 -326.27861358 0 -1024.17665387 0 24591
0.15150000 0.15149900 10015.59485058 0 154.40720743 0 2400.52321149 0 -253.40834051 0 -995.76544377 0 25020
0.15250000 0.15250500 9939.98616098 0 252.63528409 0 3041.73858066 0 -187.62312405 0 -1549.68422000 0 25297
0.15350000 0.15350100 9594.53974083 0 182.65759518 0 2961.49377074 0 -215.34667995 0 -1462.48522959 0 25452
0.15450000 0.15450400 9456.63179798 0 224.89509140 0 3652.90789729 0 -49.80590719 0 -981.10509965 0 26061
0.15550000 0.15549900 9323.57070819 0 -62.45497366 0 3276.80540878 0 346.02759887 0 -1118.82449215 0 26128
0.15650000 0.15649500 9284.69606289 0 -35.02078710 0 3234.04884454 0 558.86655919 0 -696.54380514 0 26331
0.15750000 0.15749700 9442.44615708 0 71.17553818 0 2906.55907225 0 216.65544119 0 -233.41202154 0 27345
0.15850000 0.15849900 9165.99807315 0 23.85527913 0 2609.83628030 0 480.17562596 0 -68.76464470 0 26980
0.15950000 0.15949700 9327.16425600 0 34.56549347 0 2789.54694445 0 156.73857703 0 217.60373853 0 27777
0.16050000 0.16050000 9067.56370023 0 61.78961276 0 2099.75213265 0 -3.97552863 0 422.86852045 0 28224
0.16150000 0.16150500 8881.71960417 0 251.69585971 0 2575.19847223 0 -27.97144414 0 354.11419056 0 28075
0.16250000 0.16249700 8791.37071383 0 187.75621842 0 2570.00779205 0 -43.23880948 0 152.56274138 0 28590
0.16350000 0.16349900 8578.04263172 0 55.33120878 0 2602.79337023 0 162.82875328 0 624.62182941 0 29163
0.16450000 0.16449100 8462.37253875 0 45.32417633 0 2668.07615547 0 231.23592869 0 848.95903361 0 28996
0.16550000 0.16550500 8448.30890102 0 87.40384481 0 2587.18805613 0 82.75973883 0 913.50425425 0 30777
0.16650000 0.16650700 8475.46015115 0 48.62369651 0 2432.38822032 0 170.14228854 0 1057.31160476 0 29211
0.16750000 0.16749900 8266.23581192 0 98.36361108 0 2736.08737516 0 -15.50527151 0 1481.49554116 0 30922
0.16850000 0.16850800 8260.97858457 0 72.57302899 0 2700.32935620 0 -196.49386337 0 1473.76497689 0 30867
0.16950000 0.16949900 8321.73616145 0 55.33642164 0 3078.31734819 0 -25.26363932 0 1402.39312453 0 30852
0.17050000 0.17049200 8177.17350043 0 76.28924544 0 2949.10490374 0 135.99582050 0 1136.98078156 0 31257
0.17150000 0.17149500 8324.55332547 0 -56.65904687 0 2826.86882218 0 -29.16807338 0 1170.80893225 0 32608
0.17250000 0.17250900 8178.82608877 0 61.27475940 0 2952.95354909 0 142.83576166 0 1028.80501036 0 32361
0.17350000 0.17350400 8082.67650243 0 139.84113848 0 2532.29772243 0 45.71281187 0 916.04968395 0 32508
0.17450000 0.17449800 8000.03599397 0 5.47856328 0 2413.63300628 0 360.61585022 0 865.00023175 0 32791
0.17550000 0.17549800 7983.64320488 0 25.50332009 0 2319.81257130 0 198.11761461 0 671.41448022 0 33633
0.17650000 0.17650100 7887.67107768 0 128.61130157 0 1853.64956356 0 -211.58565506 0 624.27356583 0 33984
0.17750000 0.17750300 7735.76604428 0 130.79737649 0 2114.76961331 0 -73.73693920 0 315.36265755 0 34069
0.17850000 0.17849800 7554.41388298 0 5.49935927 0 1831.95518233 0 -147.34100586 0 207.69597229 0 34536
