### header ###
fiducial parameters:
Omega_m = 0.31
Omega_nu = 0
Omega_de = 0.69
Omega_k = 0
H_0 = 100
w_de = -1
zeff = 0
beta = 0
fgrowth = 0
b_1 = 2
gamma = 0.55
Lx = 3500 Ly = 3500 Lz = 3500
nx = 700 ny = 700 nz = 700
xoffset = 1379.75464 yoffset = 22.6059522 zoffset = 368.141391
bins = 400 dk = 0.001
kx_ny = 0.628318531 ky_ny = 0.628318531 kz_ny = 0.628318531
############################
A(data) = 3.33792602 (not used)
A(ran) = 3.34145617 (used)
Ngal = 187397
weighted Ngal = 0
Nran = 9399747
weighted Nran = 0
SN(data) = 6566.28974
SN(ran) = 132.907698
SN(data+ran) = 6699.19744
############################
13 columns: k_central k_mean P_0(k) sigma^{lin}_{P_0(k)} P^img_1(k) sigma^{lin}_{P_1(k)} P_2(k) sigma^{lin}_{P_2(k)} P^img_3(k) sigma^{lin}_{P_3(k)} P_4(k) sigma^{lin}_{P_4(k)} N_modes
### header ###
0.00050000 0 0 0 0 0 0 0 0 0 0 0 0
0.00150000 0.00179520 99576.65528917 0 -90631.60495043 0 -95147.27487593 0 107738.77803534 0 150718.27532940 0 3
0.00250000 0.00253879 117139.67656865 0 -58653.24408538 0 -17769.65027863 0 -144493.89560205 0 -97265.80440501 0 6
0.00350000 0.00331552 151850.68653781 0 -7743.47442616 0 -100354.48093115 0 -7114.60355919 0 72823.13548249 0 7
0.00450000 0.00420575 158159.35936196 0 643.50348310 0 -62605.03755803 0 -75518.73998878 0 -12045.26170971 0 24
0.00550000 0.00557378 161557.70210689 0 -19069.76038490 0 -66768.22924451 0 -9820.68924661 0 9645.00468695 0 45
0.00650000 0.00659388 171517.59696640 0 -23890.10549056 0 -80341.85789369 0 -7799.92861863 0 -58241.87159057 0 40
0.00750000 0.00754703 204869.93530940 0 -25132.98502058 0 -93223.83950117 0 -37450.64652734 0 -12002.78242540 0 57
0.00850000 0.00846663 198759.79491062 0 13242.11277239 0 -75108.14387776 0 -61107.50414608 0 -51156.59315610 0 75
0.00950000 0.00948925 186123.59422751 0 32276.15950311 0 -34750.38371832 0 -97926.50700722 0 -34383.37601131 0 112
0.01050000 0.01054430 141223.10162202 0 25540.91924434 0 27545.54218076 0 -25773.16890843 0 -23666.50696009 0 105
0.01150000 0.01145670 115971.77353001 0 26214.26581106 0 66679.72149287 0 -19588.27384223 0 -33812.84484029 0 144
0.01250000 0.01249090 96928.52110582 0 14596.01518386 0 76608.67191289 0 6513.27213425 0 -28482.30467501 0 169
0.01350000 0.01339930 90155.23804151 0 2727.22550880 0 104308.15990728 0 26502.74784369 0 827.85692229 0 180
0.01450000 0.01448870 89082.38656070 0 -5073.66804396 0 69051.57396024 0 31264.86416538 0 16575.01745533 0 267
0.01550000 0.01550050 91120.61582388 0 -5251.62629900 0 52317.61965264 0 39481.77742447 0 -3809.64869256 0 238
0.01650000 0.01653350 98181.04997718 0 3693.29094538 0 52729.99035518 0 -4485.42423142 0 4908.46466542 0 315
0.01750000 0.01747870 91582.00961692 0 11500.90576349 0 56129.33130784 0 -5317.86292717 0 20036.91275878 0 297
0.01850000 0.01844180 79644.99798943 0 5704.08058730 0 54708.21624286 0 4344.18892948 0 12622.11486299 0 388
0.01950000 0.01947590 70362.88617543 0 3416.93159102 0 45748.96917203 0 9898.40526362 0 4365.39529805 0 399
0.02050000 0.02045430 77741.08312130 0 3207.94016693 0 54458.10975168 0 15915.86762070 0 9326.53205778 0 462
0.02150000 0.02154770 63344.48765857 0 4540.60293624 0 41831.22567401 0 1451.01693195 0 18964.83766177 0 571
0.02250000 0.02255340 58450.49700516 0 4175.13690560 0 46921.08686552 0 17453.10751772 0 32755.29921128 0 510
0.02350000 0.02348930 59109.42501586 0 -661.50005927 0 38644.61387881 0 11839.74183026 0 22875.15005783 0 555
0.02450000 0.02439640 57133.63919150 0 -2644.42972358 0 28652.66546013 0 12783.82451449 0 18994.45115762 0 592
0.02550000 0.02547300 61146.10151146 0 -738.27665190 0 29707.66011384 0 4112.31636608 0 26156.81341087 0 837
0.02650000 0.02652900 60494.82642666 0 2121.84579697 0 26894.04527202 0 -2786.66323324 0 20263.06226456 0 723
0.02750000 0.02749970 62406.06148478 0 1441.74469130 0 29083.78028551 0 876.29661584 0 25296.80199951 0 826
0.02850000 0.02848090 58680.86116578 0 573.99162446 0 36447.44776337 0 1071.81999949 0 6487.78456367 0 831
0.02950000 0.02946900 59205.58569340 0 891.18765687 0 31994.22127669 0 2780.49652774 0 16808.26532715 0 996
0.03050000 0.03053250 55281.29838918 0 2354.22855543 0 31769.40271455 0 5491.44015941 0 4763.60254208 0 1041
0.03150000 0.03150510 54940.35499499 0 1602.87760056 0 27077.60458151 0 -43.68123732 0 5639.09726438 0 1036
0.03250000 0.03246190 51122.76500541 0 1284.53806576 0 26290.57324607 0 4060.02137247 0 12113.91621882 0 1059
0.03350000 0.03345080 48891.65982731 0 2078.78977041 0 28687.26999461 0 935.78979627 0 -665.13908098 0 1302
0.03450000 0.03451200 47982.07076558 0 1290.38312655 0 16836.88061528 0 4956.36754504 0 5756.54194887 0 1339
0.03550000 0.03553350 44573.19138355 0 -507.80712492 0 18256.55382465 0 4765.76532548 0 4276.58808408 0 1365
0.03650000 0.03647120 46227.77614428 0 -548.06151512 0 12509.31739002 0 3497.05439777 0 3351.89281212 0 1308
0.03750000 0.03744890 44944.41374540 0 1472.25657410 0 13911.46650822 0 1980.20012074 0 1653.49782343 0 1579
0.03850000 0.03847530 42917.60841509 0 1031.96600149 0 9087.29493960 0 -2752.29161390 0 3858.47214153 0 1662
0.03950000 0.03950240 42953.98754108 0 386.68681776 0 14794.32578530 0 2662.90765769 0 7786.50827032 0 1683
0.04050000 0.04050350 42742.14567937 0 -249.18259448 0 13804.65828161 0 -348.84809025 0 3343.88496792 0 1822
0.04150000 0.04152450 43538.49362025 0 1350.54177879 0 16708.33364265 0 2260.00883735 0 8281.59711969 0 1887
0.04250000 0.04250150 40323.26653693 0 1431.57406370 0 17840.85576303 0 -4241.35135138 0 5471.09890421 0 1920
0.04350000 0.04349210 40103.21718947 0 1774.02586067 0 21557.95950826 0 -3626.61066933 0 2721.91282546 0 2005
0.04450000 0.04448520 39100.90572126 0 25.17856984 0 20810.96739380 0 1039.82078717 0 -1645.90035353 0 2151
0.04550000 0.04548030 39196.73366290 0 -343.73726670 0 19951.39963031 0 1085.58195666 0 313.86645508 0 2274
0.04650000 0.04648670 38800.00154806 0 112.05769013 0 18048.92661778 0 -974.26072201 0 -4259.86255909 0 2311
0.04750000 0.04749250 40131.72156563 0 -611.67507522 0 14037.90615343 0 4070.14763529 0 -6660.96251282 0 2568
0.04850000 0.04851840 39167.45290295 0 -646.72547581 0 14611.09921171 0 3015.81845339 0 -5570.97513273 0 2493
0.04950000 0.04949480 40549.41604270 0 1305.24533046 0 10778.54719745 0 227.65790856 0 -5499.00435573 0 2644
0.05050000 0.05050630 38450.40702025 0 789.64885793 0 10973.82990212 0 819.40764846 0 -5342.57411397 0 2829
0.05150000 0.05149060 35493.71573779 0 1439.73718465 0 11203.77259725 0 -1207.62061492 0 -1691.61826735 0 2784
0.05250000 0.05249300 35534.19860665 0 1505.80744487 0 16223.53742404 0 -391.76658596 0 833.47461355 0 3055
0.05350000 0.05348950 33337.36522712 0 1066.81010582 0 14298.32745777 0 -1974.41051593 0 -4645.91385126 0 3009
0.05450000 0.05448610 32903.47760251 0 657.15896478 0 18661.04977735 0 196.95747541 0 1351.70635447 0 3336
0.05550000 0.05550870 32147.72344245 0 31.34716085 0 16958.55104580 0 486.45878903 0 -3535.54085118 0 3349
0.05650000 0.05647670 32886.72989511 0 133.99718681 0 20025.26700199 0 -677.38043506 0 225.95762807 0 3324
0.05750000 0.05747970 32204.84310674 0 142.31114804 0 15616.18347916 0 1238.40977765 0 -5580.32501176 0 3639
0.05850000 0.05849280 32464.93167517 0 550.33188313 0 17506.56708701 0 795.66139579 0 -2735.89882481 0 3846
0.05950000 0.05951020 31413.81894039 0 -33.98786393 0 15551.63271292 0 1603.46543400 0 -3227.07248166 0 3787
0.06050000 0.06049470 31849.25933258 0 224.19856423 0 14405.35750832 0 1111.09392788 0 -3679.18294286 0 3930
0.06150000 0.06148310 30673.92519197 0 61.71408171 0 12850.70443209 0 1319.08714425 0 -5315.33413427 0 4083
0.06250000 0.06249100 30595.28860561 0 865.27529344 0 13533.58942819 0 -695.43801281 0 -5873.95335976 0 4303
0.06350000 0.06350600 29521.43891708 0 970.30449206 0 12901.28029017 0 -1830.49114433 0 -5614.35280399 0 4470
0.06450000 0.06451750 29030.65345213 0 -174.01311628 0 14580.59842010 0 1158.16496773 0 -4951.23232085 0 4479
0.06550000 0.06550280 29176.28086806 0 -404.70335808 0 10768.27674908 0 1748.67138445 0 -4465.11624981 0 4636
0.06650000 0.06648880 30034.85042382 0 -82.63740293 0 12816.09989761 0 1298.92334820 0 -3873.31216305 0 4653
0.06750000 0.06749660 30150.30978405 0 318.49592068 0 11899.19064590 0 987.18751205 0 -2542.30198208 0 5220
0.06850000 0.06852730 29423.50364803 0 24.77296477 0 12375.44664286 0 570.59771820 0 1283.61749641 0 5029
0.06950000 0.06949320 29109.06821455 0 155.61725702 0 11076.46783868 0 2510.04878135 0 879.73045042 0 5040
0.07050000 0.07048030 29993.36934723 0 -152.90767761 0 11299.48962691 0 379.21911486 0 2020.25043292 0 5475
0.07150000 0.07148790 29010.35656171 0 690.85513023 0 12048.92180470 0 25.54014286 0 -471.02871583 0 5509
0.07250000 0.07249820 28501.15970982 0 617.05985133 0 11500.57302758 0 -927.97050243 0 2057.76086100 0 5916
0.07350000 0.07351270 27588.68693689 0 200.87044969 0 10664.20804811 0 -102.93595702 0 -1398.27829046 0 5721
0.07450000 0.07449140 27102.55977465 0 611.29242892 0 10541.36195071 0 677.88508452 0 -1189.18704559 0 6028
0.07550000 0.07549160 26944.73204207 0 418.31669322 0 10378.50990592 0 -659.25520100 0 -1995.51706373 0 6183
0.07650000 0.07648840 26052.33433562 0 219.74988514 0 9387.97728887 0 1270.62970478 0 -3474.41726480 0 6330
0.07750000 0.07749960 25504.98376622 0 438.79437014 0 9663.83753936 0 466.72976790 0 -1411.44354124 0 6583
0.07850000 0.07848650 24211.19564221 0 839.10672336 0 9903.66249098 0 -455.49549451 0 -2072.12396105 0 6549
0.07950000 0.07947320 24476.82980912 0 313.34073234 0 9020.09337729 0 1178.79459405 0 283.41446474 0 6828
0.08050000 0.08048110 23107.06698602 0 454.52945125 0 10339.85708456 0 402.21227525 0 -2278.84168977 0 7147
0.08150000 0.08149960 23345.97136828 0 635.35256246 0 10433.23387166 0 -1430.77549752 0 662.77998339 0 7386
0.08250000 0.08250610 21844.77786134 0 524.52488608 0 10565.39657450 0 327.86576387 0 -1074.20904331 0 7227
0.08350000 0.08350160 22330.90502358 0 -200.62866160 0 11634.77651065 0 1026.17417844 0 1651.24631045 0 7798
0.08450000 0.08449610 22375.82437122 0 -483.03493653 0 8527.73296237 0 2064.49321755 0 -762.10830678 0 7371
0.08550000 0.08548940 23019.11379422 0 -273.75957779 0 8632.24531121 0 1603.05505971 0 222.64579666 0 8256
0.08650000 0.08650700 22613.95236970 0 -6.88191025 0 6804.21641260 0 247.19505198 0 -66.18483229 0 8037
0.08750000 0.08749060 22221.21308576 0 539.36490759 0 6697.36382120 0 129.85906123 0 -389.80344410 0 8155
0.08850000 0.08849210 21870.62035023 0 513.96495746 0 6792.20464630 0 -248.69569093 0 34.85785742 0 8718
0.08950000 0.08949900 20690.51699494 0 491.41433583 0 5091.94633654 0 -353.84134712 0 -2363.78916720 0 8571
0.09050000 0.09049190 20653.91604501 0 446.11123277 0 6480.78601839 0 -285.81127240 0 -2615.04914286 0 8932
0.09150000 0.09150830 19351.92043526 0 602.78437174 0 6224.10244742 0 -674.01980238 0 -3674.73537289 0 9285
0.09250000 0.09250820 18849.48921350 0 481.62968188 0 6567.45263134 0 -45.85023180 0 -2833.82300266 0 9204
0.09350000 0.09350330 18489.02531269 0 162.25090192 0 6401.50614261 0 228.06162813 0 -3624.99135457 0 9349
0.09450000 0.09448040 18446.54602838 0 170.13008823 0 5590.35145380 0 1299.84391754 0 -2517.71279844 0 9564
0.09550000 0.09549270 17907.51385669 0 -0.67421612 0 6206.99982172 0 1012.47433197 0 -844.30184001 0 10155
0.09650000 0.09649430 17920.82329303 0 200.71073645 0 4982.17676034 0 1059.29914725 0 -850.17462879 0 9913
0.09750000 0.09749140 17640.32692221 0 319.98325020 0 5292.57499813 0 302.48355965 0 994.25038627 0 10476
0.09850000 0.09850240 17123.14440851 0 398.16066100 0 4709.91005765 0 -189.63506718 0 395.49988286 0 10575
0.09950000 0.09950330 16710.77370598 0 294.79181457 0 5679.31394452 0 -111.08388303 0 2602.40517834 0 10882
0.10050000 0.10051200 16546.73490311 0 -80.98337273 0 5107.54055944 0 164.77858570 0 301.10714211 0 10875
0.10150000 0.10150300 16695.02420631 0 103.92717729 0 5387.84837992 0 -46.33968632 0 657.08132640 0 11118
0.10250000 0.10250800 16493.94080564 0 190.79631550 0 5149.85347580 0 -341.28167570 0 284.47700141 0 11575
0.10350000 0.10349800 16456.00891208 0 -2.46806860 0 5250.46172332 0 352.23090532 0 821.95085992 0 11364
0.10450000 0.10450100 16692.36231904 0 -151.55566070 0 4841.40728867 0 767.60621311 0 864.25933980 0 12093
0.10550000 0.10551000 16502.92467517 0 100.94741632 0 5504.73850455 0 -108.79976194 0 28.94591671 0 12067
0.10650000 0.10649700 16211.44801937 0 665.19564609 0 5454.60629435 0 -494.10838756 0 1444.02947787 0 12054
0.10750000 0.10749900 15714.67330806 0 420.17779607 0 6548.24267823 0 -475.81678556 0 1094.42829534 0 12807
0.10850000 0.10850100 15316.94298550 0 193.73548269 0 6947.37049161 0 -218.13500686 0 1475.18465010 0 12736
0.10950000 0.10950300 15537.65780477 0 -225.48292484 0 7141.23352307 0 941.17346327 0 1591.98604516 0 12933
0.11050000 0.11050200 15432.95690557 0 -79.72596373 0 6703.15342601 0 264.03481631 0 1639.50073289 0 13428
0.11150000 0.11150900 15659.43914726 0 135.02866813 0 6305.12364113 0 119.57197606 0 1762.35792148 0 13453
0.11250000 0.11250000 15866.73361822 0 -112.48137385 0 6185.11689015 0 518.09199185 0 1094.42496799 0 13668
0.11350000 0.11349100 15446.37725388 0 86.73404743 0 5734.39282856 0 -188.74888055 0 1054.83715872 0 13791
0.11450000 0.11448600 15574.70240257 0 324.62713436 0 5762.17627692 0 -543.13369632 0 58.83403060 0 14205
0.11550000 0.11549300 15263.37250424 0 235.10897467 0 6729.41738038 0 -262.63843461 0 149.13112505 0 14776
0.11650000 0.11649800 14749.96099750 0 239.10402381 0 6110.38440511 0 -430.79539891 0 -605.32092848 0 14553
0.11750000 0.11747300 14884.16448058 0 200.89152296 0 7067.22196583 0 -61.68280453 0 -285.49628240 0 14568
0.11850000 0.11849100 14518.04406931 0 126.06365363 0 6415.00412929 0 168.18912876 0 -675.88755995 0 16015
0.11950000 0.11950300 14423.99071919 0 102.28934024 0 6731.19197189 0 919.86283746 0 -558.33639997 0 15270
0.12050000 0.12050700 14410.23763498 0 28.67884068 0 6511.68609309 0 456.94178659 0 832.65941057 0 15999
0.12150000 0.12150000 14307.31132730 0 69.33661772 0 5506.18036016 0 925.15666576 0 298.30661488 0 15670
0.12250000 0.12250700 14105.89519072 0 98.94334794 0 5795.19477023 0 350.97427271 0 1143.99041803 0 16887
0.12350000 0.12352200 13829.05891489 0 56.51142304 0 4661.45261819 0 499.37892435 0 1264.84009998 0 16407
0.12450000 0.12449800 13455.06375380 0 209.47610940 0 4532.66163922 0 748.23321940 0 1478.47873559 0 16306
0.12550000 0.12549900 13469.26048589 0 202.90346609 0 3866.74617445 0 75.83483910 0 1476.65977929 0 17523
0.12650000 0.12650100 12900.83664229 0 245.98278416 0 3656.20198278 0 406.76188424 0 1279.74666867 0 17154
0.12750000 0.12750600 12491.57147491 0 241.31449936 0 3118.14583643 0 590.90237245 0 1812.01321022 0 18007
0.12850000 0.12850300 12215.06793499 0 -71.64358669 0 2860.29768978 0 735.75007724 0 1465.41330559 0 17496
0.12950000 0.12949900 12276.40225411 0 1.87836075 0 2181.13933585 0 327.58293834 0 1398.16737849 0 18405
0.13050000 0.13049000 12106.92876474 0 220.99209919 0 2371.49754908 0 -622.11078242 0 904.77770049 0 18100
0.13150000 0.13148800 11935.01521204 0 342.70356714 0 2654.12342971 0 -760.56995777 0 1142.06054976 0 19059
0.13250000 0.13249300 11532.62658676 0 251.85557294 0 3029.91536471 0 -445.92711890 0 582.96218456 0 18957
0.13350000 0.13349100 11580.31873364 0 2.38946529 0 3638.87753315 0 -41.70389873 0 286.79506157 0 19468
0.13450000 0.13450700 11607.49216616 0 -92.38445772 0 3594.75675169 0 244.93910252 0 262.27020688 0 19953
0.13550000 0.13551000 11670.93381271 0 47.21766547 0 3766.53721003 0 405.34775663 0 937.66199032 0 19956
0.13650000 0.13649900 11587.63892363 0 81.82952014 0 3466.27632624 0 194.20464032 0 1084.56156654 0 19723
0.13750000 0.13749600 11576.43681471 0 30.78472625 0 3698.83654385 0 384.29444658 0 1719.57917485 0 20946
0.13850000 0.13851100 11551.37070960 0 54.15321275 0 3121.60628988 0 316.28100865 0 1931.55413093 0 20955
0.13950000 0.13949800 11353.94740393 0 113.39972496 0 3262.20939359 0 99.25900341 0 1782.43298796 0 20506
0.14050000 0.14048300 11260.67043759 0 164.46137747 0 3347.41196855 0 226.51995175 0 2439.97459903 0 21447
0.14150000 0.14148400 11021.27804266 0 112.62666853 0 2947.78505131 0 207.86123113 0 1865.83878901 0 21771
0.14250000 0.14249400 11082.27962588 0 -53.48130804 0 2900.54764351 0 260.48563329 0 2420.52063959 0 22470
0.14350000 0.14350900 10977.95582738 0 -16.64899574 0 2429.02758765 0 484.49453805 0 2077.17045566 0 22519
0.14450000 0.14449900 11006.37147396 0 161.55548387 0 2177.68997360 0 -93.13965732 0 2126.71483243 0 22218
0.14550000 0.14550500 10739.63927855 0 236.30016922 0 2534.91524491 0 -538.78816535 0 1422.14654629 0 23559
0.14650000 0.14650700 10480.16072595 0 310.65777180 0 2697.16836507 0 -539.30501513 0 931.95556949 0 23044
0.14750000 0.14750500 10225.15192572 0 211.93613689 0 3413.09403688 0 -393.10196608 0 1114.46565175 0 23649
0.14850000 0.14849900 10059.05016022 0 -41.20745676 0 2955.85944269 0 297.87738556 0 277.25108659 0 23640
0.14950000 0.14949500 10148.41193403 0 -109.52423892 0 2627.94820491 0 258.09880770 0 448.93505151 0 24457
0.15050000 0.15050000 10169.59612020 0 156.85392548 0 2923.43987401 0 -20.32739121 0 232.11435149 0 24591
0.15150000 0.15149900 9873.32806732 0 241.89789632 0 2531.27733231 0 22.33877977 0 319.45420010 0 25020
0.15250000 0.15250500 9852.25479312 0 -18.96095574 0 2969.04687586 0 72.92095984 0 733.67047781 0 25297
0.15350000 0.15350100 9691.59880533 0 46.05442074 0 2311.26125845 0 301.57740886 0 194.82241999 0 25452
0.15450000 0.15450400 9791.74122257 0 92.23650115 0 2827.97794187 0 -142.01723132 0 221.50229425 0 26061
0.15550000 0.15549900 9421.31742690 0 161.13512750 0 2893.01672078 0 -267.81691447 0 -105.44844587 0 26128
0.15650000 0.15649500 9431.59896647 0 226.74066657 0 3346.33612245 0 -712.44747245 0 -91.53598115 0 26331
0.15750000 0.15749700 9238.32376845 0 109.30906970 0 3167.04692378 0 -64.03125457 0 -490.63018820 0 27345
0.15850000 0.15849900 9197.34179572 0 -80.11548656 0 3458.09102290 0 368.73127902 0 -295.35635649 0 26980
0.15950000 0.15949700 9304.70458218 0 -38.57906490 0 3291.47906234 0 352.47491166 0 -533.95573084 0 27777
0.16050000 0.16050000 9330.15887918 0 39.13340293 0 2948.58361749 0 154.41164391 0 -490.29301581 0 28224
0.16150000 0.16150500 9221.45405789 0 155.59729287 0 2775.78276903 0 68.14841779 0 -407.46950260 0 28075
0.16250000 0.16249700 9016.10054639 0 104.38125090 0 2631.26447280 0 102.63926750 0 -329.24218141 0 28590
0.16350000 0.16349900 8974.02054517 0 35.92183594 0 2830.46236999 0 280.53075353 0 260.20724424 0 29163
0.16450000 0.16449100 8793.34494688 0 51.44307877 0 2500.75435831 0 229.76079950 0 -192.50990543 0 28996
0.16550000 0.16550500 8781.73246368 0 125.60669632 0 2028.43573627 0 363.09584185 0 466.30830241 0 30777
0.16650000 0.16650700 8540.68748040 0 59.56749145 0 2035.07936324 0 338.59206044 0 574.57613054 0 29211
0.16750000 0.16749900 8525.71436452 0 62.03572642 0 1799.69089041 0 153.25372295 0 956.46600563 0 30922
0.16850000 0.16850800 8382.11663763 0 130.44023995 0 1838.33262058 0 200.92146920 0 929.21604384 0 30867
0.16950000 0.16949900 8353.44589352 0 107.36977391 0 1815.38493409 0 -123.42394876 0 1004.76151362 0 30852
0.17050000 0.17049200 8055.11487801 0 126.88883869 0 2023.07868814 0 -326.67900579 0 727.63132107 0 31257
0.17150000 0.17149500 8001.59985273 0 185.21855256 0 2073.22198955 0 -368.51056420 0 448.07881111 0 32608
0.17250000 0.17250900 7681.45245282 0 172.65666289 0 2526.68557677 0 -252.97578383 0 508.67002004 0 32361
0.17350000 0.17350400 7832.48128167 0 -54.83033032 0 2203.43264172 0 128.99394787 0 295.15116935 0 32508
0.17450000 0.17449800 7884.43244817 0 -160.64267836 0 2340.84148071 0 548.07149720 0 97.99017048 0 32791
0.17550000 0.17549800 8100.14513762 0 -36.45066421 0 1870.88528362 0 171.18375194 0 27.09723600 0 33633
0.17650000 0.17650100 7982.06825491 0 154.13214575 0 1898.28054008 0 -73.24937018 0 358.93331564 0 33984
0.17750000 0.17750300 7842.39681174 0 182.38364262 0 1997.28056404 0 -267.37215747 0 469.20088658 0 34069
