### header ###
fiducial parameters:
Omega_m = 0.31
Omega_nu = 0
Omega_de = 0.69
Omega_k = 0
H_0 = 100
w_de = -1
zeff = 0
beta = 0
fgrowth = 0
b_1 = 2
gamma = 0.55
Lx = 3500 Ly = 3500 Lz = 3500
nx = 700 ny = 700 nz = 700
xoffset = 1379.75464 yoffset = 22.6059522 zoffset = 368.141391
bins = 400 dk = 0.001
kx_ny = 0.628318531 ky_ny = 0.628318531 kz_ny = 0.628318531
############################
A(data) = 3.26156436 (not used)
A(ran) = 3.25819944 (used)
Ngal = 182912
weighted Ngal = 0
Nran = 9399747
weighted Nran = 0
SN(data) = 6733.47728
SN(ran) = 129.59613
SN(data+ran) = 6863.07341
############################
13 columns: k_central k_mean P_0(k) sigma^{lin}_{P_0(k)} P^img_1(k) sigma^{lin}_{P_1(k)} P_2(k) sigma^{lin}_{P_2(k)} P^img_3(k) sigma^{lin}_{P_3(k)} P_4(k) sigma^{lin}_{P_4(k)} N_modes
### header ###
0.00050000 0 0 0 0 0 0 0 0 0 0 0 0
0.00150000 0.00179520 97122.72796438 0 -52003.07330719 0 -115248.62748898 0 134906.66496001 0 -101258.63530637 0 3
0.00250000 0.00253879 134063.73399195 0 -38637.40460080 0 -2571.39419167 0 -76787.01835981 0 38089.49947156 0 6
0.00350000 0.00331552 145864.76754485 0 877.44788209 0 -23719.52288150 0 -96913.76981387 0 -38841.26080071 0 7
0.00450000 0.00420575 141347.32302784 0 23761.89125384 0 25364.90194877 0 -72187.27716145 0 26652.36809052 0 24
0.00550000 0.00557378 97584.34358136 0 14008.62539348 0 56551.01861581 0 -691.70138856 0 23322.90167863 0 45
0.00650000 0.00659388 94881.86253296 0 546.45550980 0 85247.27247995 0 54852.84545107 0 5089.06262533 0 40
0.00750000 0.00754703 103925.73543651 0 -10358.94503450 0 35665.51837852 0 39114.88062942 0 -14137.83783793 0 57
0.00850000 0.00846663 111330.10760717 0 4124.76068906 0 54227.41285516 0 -1422.51255579 0 19138.08215810 0 75
0.00950000 0.00948925 100411.48968347 0 14123.97384174 0 46529.23487734 0 -805.25749939 0 38015.74301185 0 112
0.01050000 0.01054430 85231.85571619 0 11234.05156492 0 55806.68838862 0 84.19693613 0 13973.13356325 0 105
0.01150000 0.01145670 78170.53426713 0 11493.36374957 0 91533.09743838 0 6331.50959867 0 9375.91006659 0 144
0.01250000 0.01249090 67370.14850289 0 8863.35258202 0 72013.81084118 0 7911.10677683 0 5667.15799266 0 169
0.01350000 0.01339930 59113.63967070 0 -844.32180416 0 87424.47444088 0 18342.62151297 0 35941.02371072 0 180
0.01450000 0.01448870 60528.87640129 0 1590.77710469 0 71910.44088562 0 16574.46289548 0 6933.61740739 0 267
0.01550000 0.01550050 67456.88166303 0 144.79335792 0 61755.78460770 0 12661.15587624 0 5360.83022415 0 238
0.01650000 0.01653350 62218.28752044 0 111.57855042 0 60594.75811116 0 19962.26900332 0 16050.07110377 0 315
0.01750000 0.01747870 67111.16905415 0 1725.40205325 0 63246.88512542 0 9203.99651389 0 27414.44423283 0 297
0.01850000 0.01844180 65254.61359699 0 -3258.57148099 0 37695.09650808 0 18882.98462829 0 26915.00763425 0 388
0.01950000 0.01947590 64155.36506745 0 -1672.16430790 0 37106.26486210 0 13972.46809143 0 21633.37964751 0 399
0.02050000 0.02045430 66537.19961208 0 1869.17723929 0 27864.08135711 0 7909.17690857 0 32168.68580469 0 462
0.02150000 0.02154770 73037.08467162 0 -5174.47593303 0 11117.81582090 0 21457.69508785 0 31210.40638836 0 571
0.02250000 0.02255340 68908.05387173 0 -2445.76420384 0 19108.35775028 0 8248.91136229 0 35709.88316631 0 510
0.02350000 0.02348930 76179.77532690 0 2383.26530904 0 -5189.93706157 0 -3676.44341722 0 23223.63546594 0 555
0.02450000 0.02439640 69430.22742406 0 4577.74735482 0 19288.03514084 0 -11788.16776445 0 15198.15626618 0 592
0.02550000 0.02547300 60106.52362150 0 7671.15982206 0 21633.49055948 0 -13153.49410878 0 9696.19056086 0 837
0.02650000 0.02652900 57261.63160428 0 6294.98628711 0 36929.80391865 0 -10261.54214290 0 2869.40356247 0 723
0.02750000 0.02749970 51319.96648715 0 1687.43688610 0 40570.71114084 0 -2316.42975623 0 -233.68153762 0 826
0.02850000 0.02848090 49302.47776227 0 1144.92207857 0 43797.69489293 0 7279.00837156 0 -2771.81212053 0 831
0.02950000 0.02946900 52395.14711931 0 -2124.72950817 0 37339.95638179 0 6759.91817199 0 -589.18101869 0 996
0.03050000 0.03053250 52121.86002651 0 -1424.96371032 0 31792.58331617 0 6660.43013536 0 -3772.62627715 0 1041
0.03150000 0.03150510 52446.38844921 0 2852.07911284 0 35501.03592778 0 738.19901352 0 170.26761907 0 1036
0.03250000 0.03246190 52241.31221764 0 -109.16954244 0 32330.83910407 0 -1390.93591808 0 7995.05604654 0 1059
0.03350000 0.03345080 51234.67518262 0 -863.46077362 0 33226.23143370 0 7167.22019752 0 -207.68155374 0 1302
0.03450000 0.03451200 54536.30269017 0 465.95116587 0 32707.49615243 0 1623.17449098 0 1082.12704881 0 1339
0.03550000 0.03553350 51430.10207285 0 1131.81228378 0 21488.86135127 0 -1885.35929564 0 -7967.83824922 0 1365
0.03650000 0.03647120 50638.19061074 0 2108.28126310 0 33498.18758287 0 1675.12565748 0 6538.73752245 0 1308
0.03750000 0.03744890 49189.12572946 0 -461.64334498 0 21044.88073744 0 4688.13803804 0 681.77587641 0 1579
0.03850000 0.03847530 50902.49383402 0 -1169.08979672 0 28698.58301550 0 7685.98875238 0 1230.23556550 0 1662
0.03950000 0.03950240 48910.95851000 0 453.53124353 0 13970.47167598 0 4213.88954774 0 -3341.67781973 0 1683
0.04050000 0.04050350 50045.03339795 0 -296.16268651 0 13581.94704688 0 5747.54698814 0 7485.01626367 0 1822
0.04150000 0.04152450 46853.31965216 0 -632.06402257 0 7749.72986124 0 5623.38103831 0 10326.76947216 0 1887
0.04250000 0.04250150 49705.97550725 0 -911.29045134 0 2859.72094754 0 6045.60072373 0 7272.00982628 0 1920
0.04350000 0.04349210 47974.41783969 0 1081.08225806 0 3385.58786844 0 -1456.29634170 0 5124.23281085 0 2005
0.04450000 0.04448520 47440.15488269 0 2514.32998337 0 522.88893453 0 -5623.38103831 0 5782.70608247 0 2151
0.04550000 0.04548030 42890.32407059 0 2095.90348731 0 6320.16330419 0 -3995.00477596 0 3414.75771642 0 2274
0.04650000 0.04648670 41625.04032274 0 2100.59506361 0 8670.57648786 0 -3894.70708196 0 -93.58618891 0 2311
0.04750000 0.04749250 39033.02759594 0 1686.63831992 0 14702.93432244 0 -1862.14542042 0 -3637.30258318 0 2568
0.04850000 0.04851840 37377.55553945 0 2692.17732644 0 14015.94558347 0 -1801.19929319 0 -1733.07716154 0 2493
0.04950000 0.04949480 35085.89242601 0 101.77903427 0 17352.62127337 0 232.97502838 0 -2683.07145374 0 2644
0.05050000 0.05050630 34242.85054597 0 297.36497226 0 17464.42053861 0 484.94262241 0 -2957.55639582 0 2829
0.05150000 0.05149060 36799.81509042 0 -7.09101258 0 18808.11904889 0 2005.03331071 0 -3589.75462187 0 2784
0.05250000 0.05249300 35347.64467399 0 -969.29741137 0 16014.35744960 0 858.40984253 0 -2266.82992347 0 3055
0.05350000 0.05348950 38038.81270150 0 -1166.17281192 0 13773.93566606 0 2581.84209920 0 -3039.37615571 0 3009
0.05450000 0.05448610 37592.50293631 0 184.78710500 0 13313.65099271 0 683.81222017 0 -1533.82380836 0 3336
0.05550000 0.05550870 37376.66824369 0 1150.22367071 0 12463.28892269 0 -1077.64842348 0 -2985.37311777 0 3349
0.05650000 0.05647670 36400.64291225 0 787.79662804 0 15199.37629784 0 737.45923069 0 -1055.17433111 0 3324
0.05750000 0.05747970 35210.77930364 0 711.30507916 0 14693.17406913 0 722.19774369 0 638.21630951 0 3639
0.05850000 0.05849280 35037.20207140 0 -236.34342489 0 12394.63441358 0 2822.80944410 0 2131.91660380 0 3846
0.05950000 0.05951020 35110.29305929 0 -547.52137383 0 11946.43914490 0 3079.65938302 0 3946.55842769 0 3787
0.06050000 0.06049470 35024.77993082 0 614.75842797 0 9956.75605077 0 56.33562757 0 2156.80524975 0 3930
0.06150000 0.06148310 34859.18836039 0 808.31312415 0 10783.46059770 0 460.73164859 0 4588.11762397 0 4083
0.06250000 0.06249100 33522.81004009 0 997.84726144 0 12417.48227929 0 -1716.36272774 0 1988.49633606 0 4303
0.06350000 0.06350600 31997.99228365 0 1258.26302019 0 11420.71640955 0 -1794.38929827 0 573.43595550 0 4470
0.06450000 0.06451750 30634.66235478 0 899.64247630 0 14719.79294180 0 -269.35859085 0 -57.80388022 0 4479
0.06550000 0.06550280 28779.32692928 0 703.45029348 0 14424.65619101 0 759.83128405 0 1574.70596031 0 4636
0.06650000 0.06648880 29417.29257774 0 106.55667826 0 12296.25549665 0 2226.76852010 0 1656.18189310 0 4653
0.06750000 0.06749660 28760.80463037 0 -168.41095270 0 12127.78021500 0 2216.04333265 0 511.53487621 0 5220
0.06850000 0.06852730 28949.13315456 0 78.48053322 0 11380.56627660 0 1304.85713856 0 3402.79031491 0 5029
0.06950000 0.06949320 28538.86977944 0 582.74479710 0 10417.38455122 0 201.66014291 0 1731.93476825 0 5040
0.07050000 0.07048030 27749.50929264 0 264.65925070 0 10540.96266762 0 -513.89286468 0 3037.32428427 0 5475
0.07150000 0.07148790 27523.91434671 0 668.85130460 0 10835.30085223 0 -825.79950526 0 1215.86137425 0 5509
0.07250000 0.07249820 26635.62038313 0 278.67075980 0 9993.65646301 0 -37.55734384 0 1076.76223685 0 5916
0.07350000 0.07351270 26190.97429747 0 577.51862509 0 11510.55510483 0 66.64533878 0 -336.40709464 0 5721
0.07450000 0.07449140 26159.91894602 0 131.45397535 0 11056.50368417 0 1242.84625643 0 354.29386795 0 6028
0.07550000 0.07549160 25581.40211320 0 -68.32676424 0 9743.46124226 0 1372.01433609 0 -824.95102869 0 6183
0.07650000 0.07648840 25402.27928248 0 191.96310942 0 9193.62624475 0 971.36370137 0 418.60950082 0 6330
0.07750000 0.07749960 25251.66082793 0 101.13119745 0 7032.95016726 0 1086.26961087 0 1817.31480236 0 6583
0.07850000 0.07848650 24830.74990374 0 97.17064194 0 6899.85580388 0 1510.69866273 0 1055.72112712 0 6549
0.07950000 0.07947320 25129.65766150 0 349.93170020 0 5252.50250356 0 89.68652406 0 1574.78359869 0 6828
0.08050000 0.08048110 23878.12699786 0 544.40474749 0 5480.73715436 0 -209.27757698 0 4.50037516 0 7147
0.08150000 0.08149960 23173.05960786 0 245.69441304 0 5139.19483553 0 98.42161804 0 287.90972686 0 7386
0.08250000 0.08250610 23104.51601072 0 205.40342188 0 4670.64722046 0 490.03459093 0 -302.66878264 0 7227
0.08350000 0.08350160 22704.56744877 0 282.15339564 0 4512.44238719 0 170.58482730 0 -693.82091629 0 7798
0.08450000 0.08449610 21693.71575891 0 527.78126150 0 4613.05063470 0 48.91140216 0 467.99860083 0 7371
0.08550000 0.08548940 21498.95434050 0 175.38953382 0 4190.59803414 0 764.61380817 0 -121.30331190 0 8256
0.08650000 0.08650700 21214.35422680 0 258.76317040 0 4444.06515800 0 -51.62031610 0 533.25698543 0 8037
0.08750000 0.08749060 20877.62548746 0 500.71652271 0 4775.54776119 0 -1175.55596454 0 -814.14598463 0 8155
0.08850000 0.08849210 20481.00428459 0 535.25783736 0 6739.99838227 0 -934.77384263 0 170.79223269 0 8718
0.08950000 0.08949900 19384.19581838 0 581.11217291 0 6465.43580182 0 -917.95847894 0 -1082.34110891 0 8571
0.09050000 0.09049190 19814.53425997 0 149.24980085 0 7888.41418788 0 -86.53795507 0 -406.58775245 0 8932
0.09150000 0.09150830 19048.35437479 0 -7.26003133 0 7869.78097701 0 545.76341911 0 -114.73177771 0 9285
0.09250000 0.09250820 19432.99708495 0 29.49371092 0 7485.21590522 0 1172.08441990 0 223.62847671 0 9204
0.09350000 0.09350330 19102.81215180 0 224.41595169 0 7015.49262327 0 675.39511080 0 1370.28410936 0 9349
0.09450000 0.09448040 18894.51947311 0 339.38175366 0 7487.91106608 0 -51.15093665 0 606.76278409 0 9564
0.09550000 0.09549270 18409.05778269 0 492.19737433 0 7806.37260405 0 131.62034330 0 2768.35166708 0 10155
0.09650000 0.09649430 17859.71079784 0 154.11994543 0 7642.89945223 0 303.60044318 0 1840.51758638 0 9913
0.09750000 0.09749140 17866.47642798 0 56.33340933 0 7036.69899183 0 606.58088846 0 1659.04342191 0 10476
0.09850000 0.09850240 17885.99693461 0 130.19623362 0 7237.73802771 0 -122.29486491 0 1957.35225503 0 10575
0.09950000 0.09950330 17362.38152669 0 233.13806897 0 7085.79972072 0 212.62046374 0 1596.59998309 0 10882
0.10050000 0.10051200 17313.24752421 0 404.65344770 0 7323.27333858 0 -543.72596623 0 1742.57122613 0 10875
0.10150000 0.10150300 17005.35589692 0 211.83964347 0 7504.49240552 0 -165.56384244 0 326.13775538 0 11118
0.10250000 0.10250800 16461.88724646 0 284.09324599 0 7694.36260607 0 565.63440756 0 1543.97225357 0 11575
0.10350000 0.10349800 16146.67542919 0 249.19146743 0 7445.28759621 0 -15.70524579 0 812.48452332 0 11364
0.10450000 0.10450100 16014.46836157 0 63.76672953 0 7166.34399296 0 240.74330272 0 1590.59964554 0 12093
0.10550000 0.10551000 16219.32276920 0 -191.23109042 0 6998.54527433 0 1156.75638571 0 1304.36912590 0 12067
0.10650000 0.10649700 15914.53667707 0 -74.38887976 0 5903.51139963 0 440.73422049 0 731.35907236 0 12054
0.10750000 0.10749900 16367.27933649 0 46.83757015 0 6569.70414433 0 -297.04000019 0 512.97118621 0 12807
0.10850000 0.10850100 15966.22165484 0 399.91528836 0 5465.49784975 0 -754.46203561 0 -764.69810127 0 12736
0.10950000 0.10950300 15585.79359952 0 348.55971913 0 6407.66175691 0 -479.65988530 0 -1258.06337864 0 12933
0.11050000 0.11050200 15241.07919837 0 -41.46455070 0 6191.71615233 0 51.86055143 0 -1683.81006469 0 13428
0.11150000 0.11150900 15210.80023070 0 42.02199426 0 5546.54122585 0 942.18276220 0 -1691.76245291 0 13453
0.11250000 0.11250000 15204.14551253 0 74.27708049 0 5628.16134419 0 62.81610304 0 -2626.97217958 0 13668
0.11350000 0.11349100 14974.00317586 0 73.15032579 0 4904.80457043 0 206.10327641 0 -1491.76598954 0 13791
0.11450000 0.11448600 14990.86179522 0 219.68777443 0 5256.18478094 0 49.57421209 0 -1940.78200679 0 14205
0.11550000 0.11549300 14501.51818586 0 98.42183986 0 4512.66421113 0 262.69721796 0 -1565.14534855 0 14776
0.11650000 0.11649800 14735.65335344 0 231.06401514 0 5041.44811683 0 80.81511927 0 -1725.79024514 0 14553
0.11750000 0.11747300 14267.05028238 0 251.51950967 0 4579.30012239 0 -234.85498626 0 -1588.81396283 0 14568
0.11850000 0.11849100 14118.65006721 0 76.42999273 0 5354.61915386 0 90.83213379 0 -1281.11088590 0 16015
0.11950000 0.11950300 13773.04837030 0 33.04644313 0 4958.88524675 0 677.09428218 0 -1297.18203028 0 15270
0.12050000 0.12050700 13982.11743278 0 80.23460602 0 4649.24121035 0 300.80878891 0 -614.11846590 0 15999
0.12150000 0.12150000 13582.16887082 0 43.67325166 0 4264.33231146 0 787.79108244 0 -263.97936033 0 15670
0.12250000 0.12250700 13814.19671098 0 -38.38652173 0 3682.76539948 0 877.70187050 0 318.24082316 0 16887
0.12350000 0.12352200 13562.09380435 0 13.86055791 0 3431.76052134 0 684.24810421 0 285.55395663 0 16407
0.12450000 0.12449800 13506.08325976 0 346.97035061 0 3248.97759563 0 -409.97500399 0 1217.31432105 0 16306
0.12550000 0.12549900 13102.47460281 0 89.10833996 0 3016.30646605 0 265.72400561 0 1001.24227683 0 17523
0.12650000 0.12650100 12949.74882084 0 193.78206572 0 3211.20097883 0 -99.36802987 0 1280.71160281 0 17154
0.12750000 0.12750600 12973.81671821 0 157.34193815 0 3098.05967876 0 -195.02317066 0 644.20333763 0 18007
0.12850000 0.12850300 12551.24211449 0 126.99087770 0 3257.56218207 0 3.37628235 0 901.88289808 0 17496
0.12950000 0.12949900 12602.92709227 0 30.93700838 0 3546.89823686 0 217.62703004 0 922.10215012 0 18405
0.13050000 0.13049000 12624.88766222 0 -20.92254484 0 3034.44057306 0 108.99119599 0 737.27178946 0 18100
0.13150000 0.13148800 12253.55438840 0 252.35134944 0 3517.48438255 0 259.51626267 0 1275.95347932 0 19059
0.13250000 0.13249300 12288.38074681 0 242.69091690 0 3145.54109289 0 67.83864066 0 1355.93210051 0 18957
0.13350000 0.13349100 11893.09048758 0 134.88780993 0 3122.28285289 0 189.89792855 0 1238.91997271 0 19468
0.13450000 0.13450700 11903.95986059 0 165.95314346 0 3591.90631408 0 -130.25058048 0 1677.34389687 0 19953
0.13550000 0.13551000 11346.84903788 0 258.13208129 0 3594.52383656 0 -306.80912646 0 1283.34021648 0 19956
0.13650000 0.13649900 11367.92231208 0 119.53537511 0 3336.08785647 0 162.16106322 0 1237.78867062 0 19723
0.13750000 0.13749600 11191.57228060 0 9.11951487 0 3966.68895015 0 -252.04079593 0 1142.69274798 0 20946
0.13850000 0.13851100 11304.70248948 0 -48.28996239 0 3573.56147432 0 361.63624033 0 953.44254534 0 20955
0.13950000 0.13949800 11351.17460469 0 42.14532837 0 3776.15327778 0 41.06260573 0 772.88895022 0 20506
0.14050000 0.14048300 11306.47708099 0 106.32575954 0 3252.18295155 0 125.68100734 0 994.57646746 0 21447
0.14150000 0.14148400 11052.49976207 0 256.03473595 0 4174.41597780 0 -212.30880110 0 906.27390296 0 21771
0.14250000 0.14249400 10805.23261731 0 208.22391327 0 3868.72040751 0 -316.18784260 0 907.00370372 0 22470
0.14350000 0.14350900 10761.91040203 0 123.96187181 0 4279.33870093 0 50.07065406 0 621.82462954 0 22519
0.14450000 0.14449900 10433.82170510 0 125.85181177 0 4424.85520489 0 -47.53321003 0 781.05207117 0 22218
0.14550000 0.14550500 10463.14682983 0 99.51288091 0 3853.94693317 0 25.11091354 0 363.34761202 0 23559
0.14650000 0.14650700 10339.32470710 0 70.86764655 0 4338.12204475 0 332.58395905 0 335.73274986 0 23044
0.14750000 0.14750500 10001.52012165 0 105.76088488 0 3505.88299055 0 88.28803504 0 397.06374163 0 23649
0.14850000 0.14849900 10113.06428936 0 109.13127781 0 3564.20050410 0 526.12534579 0 452.56963675 0 23640
0.14950000 0.14949500 9862.17032319 0 31.06344803 0 3018.96835332 0 403.49996322 0 278.92031173 0 24457
0.15050000 0.15050000 9760.35313521 0 65.15512556 0 3127.41807708 0 271.48920978 0 867.25063561 0 24591
0.15150000 0.15149900 9637.05229874 0 90.10432945 0 2528.34925632 0 213.82718596 0 716.73754743 0 25020
0.15250000 0.15250500 9415.74964603 0 153.73508090 0 2621.16039238 0 -91.57236028 0 901.63667351 0 25297
0.15350000 0.15350100 9322.90523637 0 165.02481027 0 2754.28802935 0 66.37715364 0 593.55538676 0 25452
0.15450000 0.15450400 9146.28901617 0 85.19769483 0 2584.43743928 0 63.09238475 0 940.11869044 0 26061
0.15550000 0.15549900 9082.27062738 0 64.85577415 0 2918.42665299 0 152.16013093 0 847.82440416 0 26128
0.15650000 0.15649500 8746.88392287 0 299.83165446 0 2822.38797861 0 -277.30986994 0 1019.32536433 0 26331
0.15750000 0.15749700 8706.90015787 0 321.14117116 0 3523.72872644 0 -246.94217269 0 1282.81893023 0 27345
0.15850000 0.15849900 8240.62623817 0 103.81449073 0 2996.80814182 0 113.04702489 0 1759.61839584 0 26980
0.15950000 0.15949700 8238.85164665 0 -108.13140641 0 3424.34051058 0 855.82559364 0 2182.65882983 0 27777
0.16050000 0.16050000 8446.15720881 0 -81.67546341 0 2902.78806529 0 308.79001424 0 1822.69403288 0 28224
0.16150000 0.16150500 8370.83689034 0 81.19976198 0 2542.84545073 0 346.16734795 0 2245.02463027 0 28075
0.16250000 0.16249700 8328.74579792 0 106.71461691 0 2431.10164147 0 -118.08021007 0 2260.03101975 0 28590
0.16350000 0.16349900 8239.06237940 0 -33.29943333 0 2383.85314248 0 154.34620585 0 2590.08285853 0 29163
0.16450000 0.16449100 8251.85052948 0 -36.76121773 0 2001.57285726 0 355.13014420 0 2012.12058556 0 28996
0.16550000 0.16550500 8434.60018159 0 -19.39695069 0 1909.34955464 0 55.67836324 0 1786.88055793 0 30777
0.16650000 0.16650700 8273.83328183 0 -11.10295362 0 1627.00095393 0 180.40053660 0 1409.48039938 0 29211
0.16750000 0.16749900 8276.07370361 0 97.92972345 0 1722.57379803 0 -331.21086887 0 1410.83352540 0 30922
0.16850000 0.16850800 8195.51834018 0 78.61041114 0 1835.91473964 0 -112.84849247 0 944.80472115 0 30867
0.16950000 0.16949900 8212.80951622 0 -3.17333563 0 1642.25134973 0 98.60562100 0 919.25725810 0 30852
0.17050000 0.17049200 8115.86136370 0 -29.85328753 0 1500.49476153 0 -29.29595488 0 588.28484997 0 31257
0.17150000 0.17149500 8292.47758390 0 131.54603228 0 1501.89225235 0 37.15451157 0 517.82691224 0 32608
0.17250000 0.17250900 8141.83694695 0 78.77489359 0 1541.62091982 0 -155.68380420 0 457.29892313 0 32361
0.17350000 0.17350400 7910.10856911 0 97.90698650 0 1668.01620024 0 318.31180682 0 607.99279783 0 32508
0.17450000 0.17449800 7804.22091184 0 96.68750940 0 1583.81183301 0 12.05890388 0 906.86950023 0 32791
0.17550000 0.17549800 7759.26829061 0 78.79008853 0 1647.07602040 0 170.77337765 0 571.97746310 0 33633
0.17650000 0.17650100 7708.16005508 0 104.40786977 0 1561.87344545 0 -110.36661533 0 1012.45769518 0 33984
0.17750000 0.17750300 7531.08909580 0 159.92951439 0 1716.70655484 0 -320.96371201 0 719.89632032 0 34069
0.17850000 0.17849800 7366.19627077 0 114.75728746 0 1838.93154521 0 -107.05001470 0 847.04691125 0 34536
