### header ###
fiducial parameters:
Omega_m = 0.31
Omega_nu = 0
Omega_de = 0.69
Omega_k = 0
H_0 = 100
w_de = -1
zeff = 0
beta = 0
fgrowth = 0
b_1 = 2
gamma = 0.55
Lx = 3500 Ly = 3500 Lz = 3500
nx = 700 ny = 700 nz = 700
xoffset = 1379.75464 yoffset = 22.6059522 zoffset = 368.141391
bins = 400 dk = 0.001
kx_ny = 0.628318531 ky_ny = 0.628318531 kz_ny = 0.628318531
############################
A(data) = 3.34266797 (not used)
A(ran) = 3.34290343 (used)
Ngal = 187744
weighted Ngal = 0
Nran = 9399747
weighted Nran = 0
SN(data) = 6669.09101
SN(ran) = 132.965264
SN(data+ran) = 6802.05628
############################
13 columns: k_central k_mean P_0(k) sigma^{lin}_{P_0(k)} P^img_1(k) sigma^{lin}_{P_1(k)} P_2(k) sigma^{lin}_{P_2(k)} P^img_3(k) sigma^{lin}_{P_3(k)} P_4(k) sigma^{lin}_{P_4(k)} N_modes
### header ###
0.00050000 0 0 0 0 0 0 0 0 0 0 0 0
0.00150000 0.00179520 31648.28684388 0 -41434.27173523 0 -69710.61288291 0 80660.95162989 0 70378.63567510 0 3
0.00250000 0.00253879 60094.21239289 0 -45273.15682295 0 -42504.90497664 0 -44247.66475312 0 -3239.07315676 0 6
0.00350000 0.00331552 94958.50270387 0 -38443.53047814 0 -84984.30020030 0 -38121.99667861 0 -50808.10774799 0 7
0.00450000 0.00420575 120642.27656490 0 -19500.43156240 0 -74419.49145924 0 -63119.66909643 0 -16901.54229349 0 24
0.00550000 0.00557378 101887.28434940 0 21895.68645533 0 -36507.89478674 0 -93505.99955153 0 -4413.14290091 0 45
0.00650000 0.00659388 90236.86925104 0 25782.92916175 0 -8222.55867834 0 -39737.09677821 0 -40012.71302238 0 40
0.00750000 0.00754703 54485.17227224 0 13440.09063792 0 29390.45188113 0 -12104.48870141 0 -8819.34271253 0 57
0.00850000 0.00846663 43329.53546974 0 7305.01722840 0 29745.48109544 0 2438.29982829 0 -22337.33791781 0 75
0.00950000 0.00948925 46746.95507343 0 -2925.39192467 0 25330.85197414 0 24994.01232282 0 -1926.86255462 0 112
0.01050000 0.01054430 44989.44400501 0 -4607.44958025 0 15142.70028144 0 16742.60544122 0 13025.39078402 0 105
0.01150000 0.01145670 55567.22944650 0 -3589.38861237 0 8247.00367641 0 17387.22580785 0 9437.85440154 0 144
0.01250000 0.01249090 61858.37817947 0 -2763.69336436 0 18760.64872595 0 -1193.76770993 0 23994.03000597 0 169
0.01350000 0.01339930 62396.96670328 0 -2203.73210404 0 6564.32491381 0 9536.22222728 0 20017.28134018 0 180
0.01450000 0.01448870 69843.81815826 0 -5866.44461943 0 16827.23127393 0 1906.24401949 0 26005.41857253 0 267
0.01550000 0.01550050 83671.54612951 0 -7154.76478334 0 1709.71910077 0 4312.03554953 0 2029.62249434 0 238
0.01650000 0.01653350 86814.56952070 0 -4593.14193618 0 17147.21230589 0 -5287.93887781 0 8663.45593942 0 315
0.01750000 0.01747870 96824.15294253 0 2327.69841233 0 9883.53196852 0 -17263.89169779 0 -25063.44321572 0 297
0.01850000 0.01844180 89364.32478713 0 6786.11557918 0 33051.65599373 0 -18607.92294397 0 -9046.22423730 0 388
0.01950000 0.01947590 85307.49767938 0 2963.52345978 0 28619.94642913 0 224.33165859 0 -15751.49608193 0 399
0.02050000 0.02045430 86179.37667148 0 -3317.56555756 0 35100.75462992 0 14636.38714075 0 -21104.10772914 0 462
0.02150000 0.02154770 85497.60079507 0 -1574.35104201 0 20487.88082670 0 12789.25920100 0 -20911.45363815 0 571
0.02250000 0.02255340 87091.96035638 0 4449.11165261 0 10994.30425168 0 -7361.39378249 0 -8015.39730174 0 510
0.02350000 0.02348930 80297.27128196 0 4646.55714069 0 21185.07346686 0 1021.94954153 0 -8526.39092754 0 555
0.02450000 0.02439640 78701.91351292 0 971.35039193 0 12394.41258964 0 -2008.63794972 0 -18382.43891001 0 592
0.02550000 0.02547300 74308.80131370 0 1028.56433139 0 14310.19503851 0 4751.84587331 0 -9957.29951942 0 837
0.02650000 0.02652900 74974.71677847 0 1510.42138280 0 16749.37107136 0 -5416.75203916 0 -19663.25033360 0 723
0.02750000 0.02749970 68861.69266849 0 3431.91579810 0 13276.05183505 0 5225.14052069 0 -249.88133988 0 826
0.02850000 0.02848090 67420.05888916 0 1630.31722181 0 16286.09177483 0 -2965.24259530 0 -15563.05664578 0 831
0.02950000 0.02946900 63279.71506839 0 2052.51472484 0 13415.35726872 0 -2601.92825687 0 -11658.73349606 0 996
0.03050000 0.03053250 63992.65720822 0 3288.00751769 0 19230.69365261 0 -3306.81818772 0 -11235.16068461 0 1041
0.03150000 0.03150510 58353.33811990 0 1246.49526022 0 20487.43717882 0 1034.41715602 0 -16684.59848118 0 1036
0.03250000 0.03246190 57228.69074935 0 2127.02538594 0 18774.40181016 0 -1160.44975430 0 -2961.61577390 0 1059
0.03350000 0.03345080 56124.67300512 0 41.72486110 0 18488.80348875 0 2432.12203159 0 -16524.66342119 0 1302
0.03450000 0.03451200 52989.63527574 0 2215.79932632 0 20017.39225215 0 4867.75997262 0 -2538.59752230 0 1339
0.03550000 0.03553350 53951.68569903 0 2730.94105977 0 18983.69269658 0 -805.53145196 0 -6339.28452773 0 1365
0.03650000 0.03647120 47936.48594613 0 1520.42564245 0 20369.20501935 0 1246.98327289 0 4271.36413032 0 1308
0.03750000 0.03744890 47218.10911979 0 1458.35930433 0 22970.31252765 0 -617.07759725 0 -264.34315159 0 1579
0.03850000 0.03847530 47190.93568727 0 -306.30447700 0 22441.26243322 0 2238.33663851 0 3934.60211738 0 1662
0.03950000 0.03950240 47256.70648517 0 64.29500324 0 22863.06065316 0 3352.59155752 0 4391.10469257 0 1683
0.04050000 0.04050350 47544.41213401 0 297.97609721 0 21459.02603148 0 2262.01634400 0 6728.26389590 0 1822
0.04150000 0.04152450 45788.12109726 0 158.07284803 0 20717.35769155 0 3516.17562131 0 10682.85235018 0 1887
0.04250000 0.04250150 47662.20064560 0 231.85038101 0 20580.71414515 0 1686.26121922 0 10463.45738335 0 1920
0.04350000 0.04349210 46640.59049470 0 149.22983670 0 19760.40921886 0 2830.92820026 0 9725.19404088 0 2005
0.04450000 0.04448520 45441.41028065 0 1600.22680449 0 20423.33006046 0 1497.43359118 0 10603.56138320 0 2151
0.04550000 0.04548030 44969.36893854 0 8.86741196 0 18542.15214607 0 471.27494041 0 10657.09859087 0 2274
0.04650000 0.04648670 43429.79989016 0 1284.42715379 0 18775.17819395 0 567.25594056 0 6902.88370065 0 2311
0.04750000 0.04749250 42858.15959944 0 808.39187165 0 18108.26452145 0 196.49164513 0 9879.73877916 0 2568
0.04850000 0.04851840 40989.40382564 0 516.97621743 0 16277.21881727 0 2767.95238399 0 6129.07307197 0 2493
0.04950000 0.04949480 41097.21025997 0 206.83085893 0 16189.93109729 0 2804.12077724 0 8210.79091838 0 2644
0.05050000 0.05050630 41153.66445244 0 -757.61637202 0 13689.75348122 0 3904.50060886 0 8116.59338269 0 2829
0.05150000 0.05149060 40714.45305329 0 148.53330953 0 11528.07919601 0 2635.84513714 0 6200.57801869 0 2784
0.05250000 0.05249300 40985.63281868 0 1016.25088454 0 9783.74446957 0 -1046.94133561 0 9242.77133842 0 3055
0.05350000 0.05348950 38261.41302425 0 2003.93528221 0 13680.43687579 0 -1644.56940989 0 5282.18254659 0 3009
0.05450000 0.05448610 35412.08452825 0 2907.45745920 0 14371.75118157 0 -4263.86648118 0 5868.96232114 0 3336
0.05550000 0.05550870 33142.27107280 0 2127.28048347 0 19238.79022639 0 -2113.66049362 0 5277.90134457 0 3349
0.05650000 0.05647670 31376.44160667 0 -186.35983672 0 18184.79378040 0 1084.56156654 0 2997.70652877 0 3324
0.05750000 0.05747970 32048.23540583 0 -745.94621459 0 17823.10984792 0 3826.56276791 0 1813.64361617 0 3639
0.05850000 0.05849280 32722.24744437 0 -684.42001776 0 14685.41023126 0 2332.50090061 0 701.59140887 0 3846
0.05950000 0.05951020 33422.32379574 0 213.17502358 0 13087.05783906 0 886.88205421 0 1337.08815690 0 3787
0.06050000 0.06049470 33079.60581004 0 192.42450321 0 13308.54904211 0 1188.97631285 0 3471.13427051 0 3930
0.06150000 0.06148310 32044.46439887 0 160.32879749 0 9837.34822442 0 2057.67213143 0 3930.70910725 0 4083
0.06250000 0.06249100 31804.22907297 0 205.82932385 0 10287.47336137 0 2302.15538575 0 3649.61381180 0 4303
0.06350000 0.06350600 32367.55096597 0 238.69697688 0 9395.68567075 0 1304.75731779 0 6059.94164139 0 4470
0.06450000 0.06451750 31245.67639465 0 128.33845813 0 8679.43835423 0 1036.97034955 0 5336.95087712 0 4479
0.06550000 0.06550280 31541.81135317 0 659.61344667 0 8804.61360298 0 -79.24527125 0 8360.44443880 0 4636
0.06650000 0.06648880 30243.80857432 0 311.22120461 0 8666.68347774 0 -981.99461364 0 4189.17836093 0 4653
0.06750000 0.06749660 30040.72875820 0 903.43899302 0 11328.88129882 0 -846.18845261 0 5826.09484493 0 5220
0.06850000 0.06852730 29217.76194464 0 415.92543116 0 10835.24539625 0 188.24423108 0 5672.22666967 0 5029
0.06950000 0.06949320 28278.55938707 0 681.74925753 0 12287.04980318 0 105.62812326 0 3964.10470126 0 5040
0.07050000 0.07048030 27996.39933670 0 585.33902806 0 11051.46828075 0 -142.10817914 0 4815.66462055 0 5475
0.07150000 0.07148790 27997.61936837 0 -324.99536210 0 11396.98124809 0 1716.83964921 0 4589.65930034 0 5509
0.07250000 0.07249820 27864.96865287 0 -242.76744616 0 10034.29460863 0 1469.53923085 0 4600.77267968 0 5916
0.07350000 0.07351270 28856.85439595 0 -330.88589680 0 9501.67314879 0 1512.66180459 0 3460.00979997 0 5721
0.07450000 0.07449140 28341.66829770 0 259.01383145 0 7386.60407315 0 374.83032822 0 3379.78717244 0 6028
0.07550000 0.07549160 27596.45077475 0 618.54828996 0 7874.74983324 0 152.67919895 0 6259.52773047 0 6183
0.07650000 0.07648840 26654.91906582 0 497.53556742 0 7800.54972565 0 585.50650514 0 4734.51033248 0 6330
0.07750000 0.07749960 26676.10325199 0 267.50192448 0 6919.59813445 0 928.37644023 0 3717.25902198 0 6583
0.07850000 0.07848650 25725.58767352 0 676.67392581 0 7887.53798332 0 389.97757590 0 5977.81132799 0 6549
0.07950000 0.07947320 24776.18121476 0 693.28410236 0 7379.51679830 0 403.23599273 0 6563.09379094 0 6828
0.08050000 0.08048110 24274.41546482 0 65.02125481 0 7533.40715596 0 724.97054292 0 5477.15469774 0 7147
0.08150000 0.08149960 24459.97118976 0 232.71105789 0 6467.44330846 0 500.79083373 0 5851.37168278 0 7386
0.08250000 0.08250610 23539.73457897 0 328.30275703 0 6772.90596361 0 -232.55910849 0 4332.06625122 0 7227
0.08350000 0.08350160 22771.78010227 0 665.51063608 0 5936.86262885 0 -347.00029684 0 4621.73504192 0 7798
0.08450000 0.08449610 22303.84250303 0 400.59296050 0 6488.26148513 0 72.91064503 0 5012.67755195 0 7371
0.08550000 0.08548940 21879.49330779 0 341.90389184 0 6202.46352217 0 755.07316056 0 3319.80597935 0 8256
0.08650000 0.08650700 21477.54833039 0 51.89559961 0 6572.09984287 0 322.43107736 0 3694.37788268 0 8037
0.08750000 0.08749060 21194.39007230 0 169.33041293 0 5859.21315902 0 32.16058923 0 2441.81573773 0 8155
0.08850000 0.08849210 20863.53966733 0 253.72000315 0 5971.54480171 0 399.90086981 0 3151.75216319 0 8718
0.08950000 0.08949900 20750.63128240 0 59.37439371 0 4941.35006437 0 -213.06078426 0 1982.96182878 0 8571
0.09050000 0.09049190 20947.16729232 0 8.45240155 0 5472.87349572 0 182.33816871 0 1883.64016011 0 8932
0.09150000 0.09150830 20345.91350576 0 372.59656116 0 4939.02091301 0 -205.81157793 0 1447.71175526 0 9285
0.09250000 0.09250820 20015.83948458 0 546.25032266 0 5701.21905849 0 -516.19096069 0 1142.08273215 0 9204
0.09350000 0.09350330 19498.76788285 0 393.69645423 0 5707.65195272 0 -22.42140919 0 1721.02103046 0 9349
0.09450000 0.09448040 19415.02934589 0 245.69219480 0 6665.56535955 0 -136.44834134 0 538.27353381 0 9564
0.09550000 0.09549270 18776.73096152 0 423.69814198 0 6717.39452289 0 -230.34974206 0 1629.19701092 0 10155
0.09650000 0.09649430 18340.18144964 0 319.60504038 0 7034.90221792 0 -918.79253695 0 65.14858175 0 9913
0.09750000 0.09749140 18099.72429980 0 256.03251771 0 8003.99555128 0 346.03647183 0 1487.89516180 0 10476
0.09850000 0.09850240 18236.14602227 0 -30.08775543 0 8008.48748604 0 -87.59660982 0 -84.59022997 0 10575
0.09950000 0.09950330 17875.79303342 0 70.93197549 0 8231.99728694 0 913.59852942 0 1585.47551255 0 10882
0.10050000 0.10051200 17831.42824563 0 236.93125833 0 7943.80362544 0 330.77165747 0 636.99738697 0 10875
0.10150000 0.10150300 17647.64711219 0 316.20115204 0 7275.11536143 0 99.97050369 0 1538.90357657 0 11118
0.10250000 0.10250800 17209.54483274 0 200.31256248 0 7159.61163641 0 435.56017711 0 961.45815337 0 11575
0.10350000 0.10349800 16688.14766420 0 315.61442772 0 7688.61736605 0 461.45590375 0 1332.84022846 0 11364
0.10450000 0.10450100 16219.76641708 0 373.20990435 0 6504.95373654 0 -260.32924741 0 861.48875880 0 12093
0.10550000 0.10551000 15717.22428336 0 400.76154669 0 6730.34904092 0 221.71413611 0 496.94662486 0 12067
0.10650000 0.10649700 15351.43660800 0 234.68861830 0 6146.40861280 0 38.47702589 0 678.89549256 0 12054
0.10750000 0.10749900 14999.62384081 0 -4.33208843 0 5788.46241369 0 949.44860532 0 -297.52135814 0 12807
0.10850000 0.10850100 14856.76922411 0 200.20497787 0 5147.19158853 0 218.17382605 0 -156.49124334 0 12736
0.10950000 0.10950300 14302.43120064 0 327.74043334 0 4404.49176729 0 231.75943319 0 -203.18074601 0 12933
0.11050000 0.11050200 14144.71438004 0 144.03139269 0 4544.54031116 0 975.39202410 0 18.86912063 0 13428
0.11150000 0.11150900 13789.13060588 0 38.75707862 0 4036.49694375 0 277.95537760 0 706.10219867 0 13453
0.11250000 0.11250000 13768.94462743 0 -37.24911948 0 3434.21167587 0 637.96232110 0 298.61716839 0 13668
0.11350000 0.11349100 13890.50414598 0 -104.35518658 0 3004.41670293 0 348.52755466 0 778.27705369 0 13791
0.11450000 0.11448600 13842.03561532 0 59.81659973 0 3391.18892290 0 -561.88336476 0 596.02539632 0 14205
0.11550000 0.11549300 13990.32491852 0 318.62901505 0 3189.38459443 0 -455.79939331 0 158.25030718 0 14776
0.11650000 0.11649800 13537.58225909 0 71.82570414 0 4044.85970624 0 -483.59393286 0 -434.17821397 0 14553
0.11750000 0.11747300 13545.90065680 0 224.41040609 0 4249.37028677 0 -220.84347715 0 -347.79220830 0 14568
0.11850000 0.11849100 13270.06258870 0 179.31249018 0 4209.90780803 0 120.79866244 0 -764.93767113 0 16015
0.11950000 0.11950300 13214.71751593 0 82.20906090 0 4510.06887104 0 300.93079208 0 -725.70034368 0 15270
0.12050000 0.12050700 12957.29083476 0 93.70641748 0 4449.31129416 0 240.68119202 0 110.21300225 0 15999
0.12150000 0.12150000 13090.38519814 0 -68.22572344 0 4217.52746033 0 467.94203572 0 278.17054682 0 15670
0.12250000 0.12250700 13031.93459022 0 52.54210548 0 3790.12818593 0 533.65959588 0 486.09610689 0 16887
0.12350000 0.12352200 12897.28745927 0 127.06297048 0 3864.41702309 0 -141.41497933 0 515.63972820 0 16407
0.12450000 0.12449800 13054.56063200 0 55.62767647 0 4102.87775748 0 -260.52001600 0 861.70170978 0 16306
0.12550000 0.12549900 12859.13374177 0 -42.75312596 0 3833.61676917 0 366.34667168 0 580.72952661 0 17523
0.12650000 0.12650100 12952.52162007 0 -100.94919091 0 3886.58832579 0 313.84427268 0 613.94433411 0 17154
0.12750000 0.12750600 12875.88144916 0 264.30322328 0 3816.52523467 0 -348.52200906 0 634.49188558 0 18007
0.12850000 0.12850300 12747.44538850 0 497.89603132 0 4303.29568633 0 -313.26309396 0 548.66043975 0 17496
0.12950000 0.12949900 11960.85770093 0 289.54900577 0 4556.16388556 0 67.69600787 0 662.15000341 0 18405
0.13050000 0.13049000 11853.71673841 0 57.71470700 0 4539.02798627 0 372.07416578 0 1372.83508466 0 18100
0.13150000 0.13148800 11685.57419268 0 2.48492722 0 4144.12591893 0 636.73341648 0 1509.13480396 0 19059
0.13250000 0.13249300 11778.29659916 0 -6.07760992 0 4139.44543382 0 427.46360334 0 1341.95719236 0 18957
0.13350000 0.13349100 11863.47699173 0 -5.30100431 0 3124.24599475 0 271.15425563 0 1591.79749481 0 19468
0.13450000 0.13450700 11754.67234967 0 -21.98097776 0 3409.82213378 0 73.24870471 0 1273.34704803 0 19953
0.13550000 0.13551000 11686.35057646 0 192.19935192 0 3051.86484347 0 -320.28825811 0 1499.06399713 0 19956
0.13650000 0.13649900 11713.52400899 0 -6.22430209 0 3206.73122646 0 63.76783865 0 1106.61862991 0 19723
0.13750000 0.13749600 11705.20561128 0 -71.86330330 0 3115.05139248 0 256.57044076 0 896.96395224 0 20946
0.13850000 0.13851100 11895.64146288 0 -115.26082781 0 2881.72588228 0 580.12949286 0 1486.04293191 0 20955
0.13950000 0.13949800 11889.09765668 0 -1.19479919 0 2992.05001833 0 168.70043294 0 1146.10883664 0 20506
0.14050000 0.14048300 12086.85369826 0 343.92027145 0 2982.22321783 0 -829.61709525 0 1354.54570089 0 21447
0.14150000 0.14148400 11212.31281890 0 460.04843086 0 3837.88687999 0 -725.94878649 0 612.59453544 0 21771
0.14250000 0.14249400 11083.27783360 0 256.41183665 0 4458.23970770 0 -486.25249277 0 1519.10579001 0 22470
0.14350000 0.14350900 10808.27160527 0 13.02017792 0 4758.12349079 0 424.19724584 0 609.07973513 0 22519
0.14450000 0.14449900 11010.69704077 0 -107.94341062 0 4242.09446157 0 751.26777089 0 1339.25094030 0 22218
0.14550000 0.14550500 11027.55566013 0 -57.60423868 0 3821.25008457 0 634.79134790 0 1219.04454778 0 23559
0.14650000 0.14650700 10806.87411445 0 122.98917384 0 3419.05000964 0 171.33348310 0 1027.78683848 0 23044
0.14750000 0.14750500 10686.37935081 0 245.97723856 0 3553.30894870 0 -365.14216769 0 1924.82177438 0 23649
0.14850000 0.14849900 10354.90783881 0 267.23240839 0 3612.49157561 0 -170.32751153 0 733.74922531 0 23640
0.14950000 0.14949500 10146.93680484 0 137.22583424 0 3823.34632079 0 -57.79456362 0 1170.82002345 0 24457
0.15050000 0.15050000 10025.98730212 0 106.58584811 0 3550.55833185 0 193.49147636 0 639.89773497 0 24591
0.15150000 0.15149900 9968.00252447 0 -41.36883367 0 3440.02346307 0 358.24898879 0 987.91398545 0 25020
0.15250000 0.15250500 9976.74238767 0 -57.93797279 0 2908.79949403 0 488.29770948 0 792.09557597 0 25297
0.15350000 0.15350100 9903.10793113 0 114.78612458 0 2798.40881081 0 72.10531322 0 547.95393051 0 25452
0.15450000 0.15450400 9824.41588878 0 208.64316051 0 2762.09623200 0 -153.48220161 0 951.11893958 0 26061
0.15550000 0.15549900 9410.31495952 0 195.55222075 0 2726.36039543 0 34.22565919 0 694.92670863 0 26128
0.15650000 0.15649500 9216.57393123 0 110.53509061 0 3027.75258130 0 342.25659191 0 1155.52526285 0 26331
0.15750000 0.15749700 9314.69775063 0 106.17547383 0 2740.26875641 0 160.38092611 0 535.41089588 0 27345
0.15850000 0.15849900 8943.14265287 0 61.01577995 0 2582.37447665 0 10.11297556 0 1109.11969482 0 26980
0.15950000 0.15949700 9067.10896116 0 68.99589615 0 2708.14865004 0 -5.00389332 0 912.91420257 0 27777
0.16050000 0.16050000 8919.79568329 0 -6.75203233 0 2520.60760085 0 268.36371048 0 1313.69682253 0 28224
0.16150000 0.16150500 8947.56804045 0 100.69453703 0 2362.93514503 0 50.15993820 0 901.32501088 0 28075
0.16250000 0.16249700 8861.99945599 0 47.10642077 0 2533.40684213 0 -198.11761461 0 783.90694527 0 28590
0.16350000 0.16349900 8834.51546996 0 117.59996124 0 2577.48325880 0 123.03686599 0 1139.21011214 0 29163
0.16450000 0.16449100 8671.55251320 0 85.56392615 0 2499.58978263 0 159.56239578 0 864.90041098 0 28996
0.16550000 0.16550500 8566.74070203 0 154.60463074 0 2286.70534841 0 -178.42852178 0 888.45700418 0 30777
0.16650000 0.16650700 8324.32041034 0 119.53981159 0 2468.20169527 0 222.32415195 0 781.31382342 0 29211
0.16750000 0.16749900 8346.18115952 0 -20.81984035 0 2522.22691560 0 268.74746589 0 1401.15091047 0 30922
0.16850000 0.16850800 8170.40787029 0 21.12551374 0 1799.18069535 0 213.08740313 0 629.31451484 0 30867
0.16950000 0.16949900 8127.27420536 0 105.53007708 0 1984.93606184 0 -101.99919453 0 951.64022583 0 30852
0.17050000 0.17049200 8175.21035857 0 47.35530723 0 1771.59688854 0 -26.75662534 0 529.09445922 0 31257
0.17150000 0.17149500 8031.33535175 0 43.85181993 0 1955.46675155 0 -56.31466521 0 417.31293990 0 32608
0.17250000 0.17250900 7947.05334614 0 153.55096703 0 1937.74301882 0 -336.24072668 0 31.67989676 0 32361
0.17350000 0.17350400 7893.69359763 0 101.42722150 0 1913.98567496 0 -230.32534143 0 -480.37415838 0 32508
0.17450000 0.17449800 7803.59980482 0 26.40104157 0 2335.25151745 0 86.80336741 0 -220.69152776 0 32791
0.17550000 0.17549800 7838.03797134 0 -73.01867328 0 1773.40475364 0 251.01153285 0 -572.32129020 0 33633
0.17650000 0.17650100 7970.87723719 0 -13.91191016 0 1920.16347166 0 255.14965843 0 -50.59282762 0 33984
0.17750000 0.17750300 7917.16257037 0 44.51607172 0 1636.28428577 0 84.65611168 0 -365.81983982 0 34069
0.17850000 0.17849800 7841.34314803 0 99.54493447 0 1750.66779990 0 -16.39955472 0 151.27061694 0 34536
