### header ###
fiducial parameters:
Omega_m = 0.31
Omega_nu = 0
Omega_de = 0.69
Omega_k = 0
H_0 = 100
w_de = -1
zeff = 0
beta = 0
fgrowth = 0
b_1 = 2
gamma = 0.55
Lx = 3500 Ly = 3500 Lz = 3500
nx = 700 ny = 700 nz = 700
xoffset = 1379.75464 yoffset = 22.6059522 zoffset = 368.141391
bins = 400 dk = 0.001
kx_ny = 0.628318531 ky_ny = 0.628318531 kz_ny = 0.628318531
############################
A(data) = 3.33691282 (not used)
A(ran) = 3.34004802 (used)
Ngal = 187359
weighted Ngal = 0
Nran = 9399747
weighted Nran = 0
SN(data) = 6650.06652
SN(ran) = 132.851689
SN(data+ran) = 6782.91821
############################
13 columns: k_central k_mean P_0(k) sigma^{lin}_{P_0(k)} P^img_1(k) sigma^{lin}_{P_1(k)} P_2(k) sigma^{lin}_{P_2(k)} P^img_3(k) sigma^{lin}_{P_3(k)} P_4(k) sigma^{lin}_{P_4(k)} N_modes
### header ###
0.00050000 0 0 0 0 0 0 0 0 0 0 0 0
0.00150000 0.00179520 57988.32682833 0 -63581.50653735 0 -98835.31968515 0 94333.29193190 0 48286.85685772 0 3
0.00250000 0.00253879 78877.04351274 0 -42418.94820029 0 -14086.81833197 0 -116439.82204122 0 -34064.06045117 0 6
0.00350000 0.00331552 92915.72604995 0 672.79422512 0 -79204.78838256 0 -15376.16997720 0 39222.79797572 0 7
0.00450000 0.00420575 93278.63001409 0 12275.51495835 0 -24389.87482505 0 -72617.94833895 0 -15870.72644912 0 24
0.00550000 0.00557378 66830.45085939 0 14882.38988906 0 -5139.37229469 0 -28721.76361712 0 -361.40443432 0 45
0.00650000 0.00659388 47462.78092447 0 7611.88846557 0 32717.70005362 0 8380.48623168 0 -25997.32199876 0 40
0.00750000 0.00754703 40567.38378176 0 -1480.64151900 0 6282.89688244 0 -2139.55843849 0 4912.93441779 0 57
0.00850000 0.00846663 52578.04095699 0 -14770.14697595 0 -34413.87680291 0 54929.26379804 0 13070.31013166 0 75
0.00950000 0.00948925 74016.65918609 0 -27578.59394766 0 -59908.76757992 0 31956.28938313 0 17938.45829618 0 112
0.01050000 0.01054430 107490.44613567 0 -12668.36515426 0 -94749.87728928 0 2684.94586603 0 8579.89486162 0 105
0.01150000 0.01145670 107875.86522962 0 -5949.95024125 0 -89134.40427439 0 -23106.29060223 0 -2256.54838390 0 144
0.01250000 0.01249090 94762.63216577 0 12643.85360900 0 -64422.99564981 0 -45362.88460626 0 10367.95108643 0 169
0.01350000 0.01339930 94972.36670006 0 10233.09322273 0 -49799.69612146 0 -37694.43103626 0 -694.44091420 0 180
0.01450000 0.01448870 76035.25703066 0 3964.62598752 0 -19124.88363373 0 -7506.38900019 0 -15836.56556252 0 267
0.01550000 0.01550050 67156.97569755 0 3607.84436409 0 -12265.86561701 0 -3616.82823362 0 -5703.16001796 0 238
0.01650000 0.01653350 71823.15316564 0 197.47099783 0 -12726.03937839 0 -5710.28056640 0 -13640.73039071 0 315
0.01750000 0.01747870 72796.18387390 0 1683.21114006 0 -7948.89448484 0 -7801.41483902 0 -14217.58354399 0 297
0.01850000 0.01844180 61856.93632387 0 8059.60681277 0 10192.43289472 0 -18699.97987864 0 -12942.53954282 0 388
0.01950000 0.01947590 54928.15467835 0 5518.49158877 0 14713.58187151 0 -7712.08633880 0 -10941.42142463 0 399
0.02050000 0.02045430 52241.42312961 0 932.67649729 0 19027.83566043 0 3549.64885370 0 -7612.45411661 0 462
0.02150000 0.02154770 51869.75711987 0 -935.42378678 0 17103.29116598 0 8323.64384732 0 -4269.34553248 0 571
0.02250000 0.02255340 54826.22657839 0 -1599.51696789 0 12359.58623122 0 9051.48146466 0 3527.31118305 0 510
0.02350000 0.02348930 53432.28494594 0 -489.12511278 0 15133.27276403 0 4824.79267564 0 7217.29695174 0 555
0.02450000 0.02439640 55715.74057364 0 -696.88319577 0 6941.93580510 0 5521.31984399 0 9405.55683603 0 592
0.02550000 0.02547300 57242.88748144 0 -882.32579051 0 10077.25081441 0 1674.98147192 0 17482.83192554 0 837
0.02650000 0.02652900 58106.44807583 0 -1412.94085282 0 1845.38662184 0 5637.11194013 0 17997.24164000 0 723
0.02750000 0.02749970 60822.90403239 0 -455.21045075 0 7708.81443570 0 8336.52072698 0 17152.31425649 0 826
0.02850000 0.02848090 61268.43741380 0 -1159.48482016 0 1602.53377346 0 -4710.75298862 0 16538.08376949 0 831
0.02950000 0.02946900 59433.39887872 0 968.91698332 0 10701.15282514 0 2603.65848360 0 21072.27599390 0 996
0.03050000 0.03053250 60704.89369686 0 1117.99265238 0 8839.47323499 0 -2637.40899591 0 18110.59367281 0 1041
0.03150000 0.03150510 59652.22819450 0 -256.26876021 0 10961.17484640 0 -3436.50755363 0 9625.29562997 0 1036
0.03250000 0.03246190 59944.37032212 0 1487.96170898 0 12383.09956875 0 -1663.91245737 0 7666.00241548 0 1059
0.03350000 0.03345080 57531.48042603 0 2736.29810790 0 17761.88644076 0 -6574.82827732 0 4861.27162241 0 1302
0.03450000 0.03451200 53992.16856789 0 3121.05173003 0 19196.20003011 0 -4460.51340308 0 727.60692044 0 1339
0.03550000 0.03553350 51441.63691767 0 1825.84393281 0 26758.84358122 0 -3279.32311048 0 -8265.73670806 0 1365
0.03650000 0.03647120 51187.64850756 0 1581.72668798 0 25346.82329774 0 2099.35284956 0 -8765.16221544 0 1308
0.03750000 0.03744890 48424.38769988 0 1884.46090868 0 26218.92411378 0 139.66589757 0 -9000.21795236 0 1579
0.03850000 0.03847530 46389.59670776 0 411.66419329 0 21600.10605666 0 2504.22590295 0 -5991.61986819 0 1662
0.03950000 0.03950240 42633.34103730 0 2799.36265375 0 27873.95252240 0 -333.09859059 0 -9252.96414842 0 1683
0.04050000 0.04050350 43151.29993479 0 2239.87831489 0 22713.44040633 0 2158.44674690 0 -2324.48196521 0 1822
0.04150000 0.04152450 38508.74671620 0 -688.14444169 0 23606.83632051 0 4363.93126005 0 -235.71677226 0 1887
0.04250000 0.04250150 40041.66104641 0 114.58537391 0 22087.34233860 0 5266.73250924 0 4031.89409701 0 1920
0.04350000 0.04349210 40029.90437765 0 302.53901564 0 18528.17723791 0 3234.94723149 0 3860.98984324 0 2005
0.04450000 0.04448520 39716.13441598 0 232.24633674 0 18219.39831488 0 3238.86242402 0 9382.17659286 0 2151
0.04550000 0.04548030 38698.18436007 0 -202.81584563 0 18397.96658574 0 3367.12102553 0 12335.62924581 0 2274
0.04650000 0.04648670 39859.54359252 0 -595.47305471 0 14704.59800198 0 1346.08311762 0 12588.06488835 0 2311
0.04750000 0.04749250 41647.11180467 0 -985.46615829 0 16343.65508699 0 3487.73779234 0 11491.25642214 0 2568
0.04850000 0.04851840 39998.18355438 0 1271.09553505 0 14289.12176430 0 142.00835837 0 10670.72967192 0 2493
0.04950000 0.04949480 40152.01845605 0 1128.11891519 0 13047.90591383 0 -770.61303660 0 10634.67219064 0 2644
0.05050000 0.05050630 38380.64339145 0 770.16606137 0 15870.83736109 0 396.52470945 0 9828.71927320 0 2829
0.05150000 0.05149060 37756.09809129 0 833.64319974 0 13950.39660950 0 933.42182573 0 9330.28088234 0 2784
0.05250000 0.05249300 34974.75863259 0 570.67424746 0 13343.04266462 0 1464.24872991 0 4550.79574623 0 3055
0.05350000 0.05348950 35683.92976546 0 1009.07820747 0 13602.79849715 0 -1266.51487071 0 4960.28273756 0 3009
0.05450000 0.05448610 33686.95975493 0 686.98208425 0 11035.04221807 0 -479.82292590 0 1688.09126672 0 3336
0.05550000 0.05550870 32787.13094652 0 501.80456913 0 12237.25032888 0 -525.20366733 0 -1228.84916588 0 3349
0.05650000 0.05647670 32179.77700163 0 740.71449699 0 10962.10650694 0 -1572.66518008 0 -2032.62820872 0 3324
0.05750000 0.05747970 31405.50054268 0 338.08852009 0 10936.17528848 0 711.02890836 0 -6377.89298430 0 3639
0.05850000 0.05849280 31095.27976404 0 226.55544358 0 10545.62097034 0 -94.76385220 0 -6033.33385991 0 3846
0.05950000 0.05951020 30698.76947314 0 -550.01800226 0 9171.25530050 0 1943.27752610 0 -5289.19218306 0 3787
0.06050000 0.06049470 31701.52458923 0 -94.48845778 0 8643.94652399 0 1863.56509363 0 -6380.33304763 0 3930
0.06150000 0.06148310 31770.40092228 0 245.59902874 0 7338.17990728 0 584.63362794 0 -4181.42561427 0 4083
0.06250000 0.06249100 30871.01576174 0 771.72437454 0 8198.63496652 0 -36.93468405 0 -1670.91100264 0 4303
0.06350000 0.06350600 30080.43524327 0 73.18493033 0 8517.63997314 0 -1173.72591705 0 -1814.64182390 0 4470
0.06450000 0.06451750 30438.56999273 0 196.77557978 0 9325.99968032 0 914.75866862 0 -1804.11627799 0 4479
0.06550000 0.06550280 30527.74321620 0 -614.39907319 0 8971.94649134 0 1902.02936465 0 -336.16419742 0 4636
0.06650000 0.06648880 31064.77897243 0 -477.98511456 0 6156.88979391 0 577.51529773 0 -1070.52676592 0 4653
0.06750000 0.06749660 32002.31785046 0 321.71458604 0 8114.03131620 0 -424.19059112 0 -940.80745377 0 5220
0.06850000 0.06852730 31791.36328451 0 681.70711099 0 8426.23741909 0 -2319.81257130 0 -1855.03596318 0 5029
0.06950000 0.06949320 29797.94245700 0 1060.29846410 0 10364.82336889 0 -755.95601984 0 -2484.88285548 0 5040
0.07050000 0.07048030 29627.80349582 0 623.43950782 0 10894.43911436 0 -943.84422350 0 -2105.57501104 0 5475
0.07150000 0.07148790 29452.56258404 0 -592.46734034 0 9456.83143952 0 2818.35078292 0 -3553.69714059 0 5509
0.07250000 0.07249820 29698.89806826 0 -52.48709314 0 9705.26315997 0 2277.03382467 0 -1076.81214723 0 5916
0.07350000 0.07351270 28951.57321788 0 663.62624172 0 8689.49806986 0 -774.37627973 0 -2551.72949948 0 5721
0.07450000 0.07449140 28165.09644229 0 1460.15607823 0 7659.95771314 0 -273.91818191 0 -795.77230776 0 6028
0.07550000 0.07549160 26195.07804034 0 1242.43588214 0 10541.19558276 0 -1563.38184823 0 414.05878271 0 6183
0.07650000 0.07648840 24831.08263965 0 785.82350410 0 10306.60567611 0 137.93456173 0 -1360.13566415 0 6330
0.07750000 0.07749960 24449.21272872 0 -68.57975444 0 10245.78155204 0 1866.20479851 0 -461.69214624 0 6583
0.07850000 0.07848650 24019.98340683 0 24.01144319 0 9544.17461549 0 556.78141416 0 -296.29356263 0 6549
0.07950000 0.07947320 24141.43201341 0 112.20076657 0 8540.87603075 0 1201.79773652 0 1098.44219952 0 6828
0.08050000 0.08048110 23765.88408474 0 481.96796339 0 8777.93927432 0 -74.43235725 0 -303.62262558 0 7147
0.08150000 0.08149960 23591.64138069 0 637.98893998 0 9120.53525686 0 -1821.28545087 0 74.74723633 0 7386
0.08250000 0.08250610 22460.33929197 0 542.08779644 0 9414.98435344 0 910.31775336 0 95.81174849 0 7227
0.08350000 0.08350160 22508.58599869 0 199.11138585 0 10295.58102634 0 121.94549221 0 1367.32275978 0 7798
0.08450000 0.08449610 21922.41623998 0 -344.08663940 0 8931.48580487 0 1686.01721289 0 991.08717690 0 7371
0.08550000 0.08548940 22630.70007709 0 173.56503192 0 9732.73605481 0 879.64837556 0 583.33263053 0 8256
0.08650000 0.08650700 21960.34813354 0 203.29387622 0 8035.74964814 0 271.95282181 0 1898.74637035 0 8037
0.08750000 0.08749060 21441.50194030 0 196.02470574 0 8751.77514072 0 -251.81564463 0 864.94477577 0 8155
0.08850000 0.08849210 21771.68687345 0 270.33017970 0 8066.90482037 0 516.19872453 0 513.50689103 0 8718
0.08950000 0.08949900 21495.07242156 0 -81.70141682 0 7908.68889590 0 461.56127012 0 533.05512565 0 8571
0.09050000 0.09049190 21259.71722232 0 85.44059204 0 6694.14737408 0 892.37108758 0 740.61023974 0 8932
0.09150000 0.09150830 20710.81388536 0 666.97911056 0 6447.97825782 0 139.89992183 0 555.94735615 0 9285
0.09250000 0.09250820 19794.79192940 0 519.59595815 0 6587.88261612 0 -79.96886094 0 1670.17898365 0 9204
0.09350000 0.09350330 19460.50325338 0 158.35012795 0 6441.63409316 0 1911.42360847 0 1968.41017839 0 9349
0.09450000 0.09448040 19008.09332986 0 63.36101354 0 5458.84313158 0 464.98512262 0 1768.23625586 0 9564
0.09550000 0.09549270 18827.30681961 0 315.68541138 0 5819.30703240 0 -161.62535841 0 3187.35490539 0 10155
0.09650000 0.09649430 18717.06032194 0 424.13402602 0 5247.24527620 0 -45.79122663 0 1208.94046736 0 9913
0.09750000 0.09749140 17835.31016456 0 436.82568269 0 6569.38249961 0 -1098.11722745 0 2488.45422089 0 10476
0.09850000 0.09850240 17339.42274900 0 448.90399616 0 6088.85639183 0 -92.80736506 0 1044.11197127 0 10575
0.09950000 0.09950330 17022.87998810 0 167.25303174 0 6546.23517158 0 62.65661162 0 945.03098157 0 10882
0.10050000 0.10051200 17098.63286326 0 12.43700279 0 6113.34575469 0 367.38702595 0 -88.98844412 0 10875
0.10150000 0.10150300 16717.31751218 0 34.63303885 0 5668.75512502 0 760.63317759 0 -304.82602045 0 11118
0.10250000 0.10250800 16518.56326287 0 72.84953253 0 5061.36790655 0 166.96244238 0 519.69688804 0 11575
0.10350000 0.10349800 16629.69705629 0 260.95479092 0 4953.31746588 0 -227.78989380 0 -793.21135039 0 11364
0.10450000 0.10450100 16268.34585971 0 159.55463194 0 5103.38136059 0 206.34173714 0 -581.52032895 0 12093
0.10550000 0.10551000 16226.31022328 0 -34.10299055 0 4729.89639455 0 248.04574679 0 -784.86522468 0 12067
0.10650000 0.10649700 15982.41480239 0 199.78794887 0 4729.31965231 0 261.98294487 0 -766.48267486 0 12054
0.10750000 0.10749900 15952.46857063 0 164.28280920 0 4901.88758563 0 34.57691740 0 53.03000723 0 12807
0.10850000 0.10850100 15633.81848231 0 270.81153765 0 4670.84686200 0 109.73896449 0 -143.72305741 0 12736
0.10950000 0.10950300 15497.28584787 0 192.98017218 0 5488.31244187 0 414.51019443 0 906.60109327 0 12933
0.11050000 0.11050200 15157.34066141 0 280.84463440 0 4746.16718048 0 -201.15216609 0 -70.33892919 0 13428
0.11150000 0.11150900 15014.59695669 0 284.74762661 0 5568.45743102 0 -235.51934896 0 1652.71034845 0 13453
0.11250000 0.11250000 14358.21992129 0 245.46371614 0 5961.13016778 0 72.16542750 0 413.87577796 0 13668
0.11350000 0.11349100 14389.49709669 0 12.21240605 0 6042.50627979 0 382.49101796 0 2475.72152680 0 13791
0.11450000 0.11448600 14395.59725501 0 1.34607203 0 5588.01121124 0 432.28383754 0 1095.61172606 0 14205
0.11550000 0.11549300 14582.37301161 0 -3.82471054 0 6023.28523547 0 729.06430372 0 2783.79061323 0 14776
0.11650000 0.11649800 14436.85650765 0 -79.63956330 0 5453.90754894 0 268.69090079 0 1884.18362876 0 14553
0.11750000 0.11747300 14531.24259368 0 358.79467568 0 5421.74307779 0 -568.95289369 0 2319.33564983 0 14568
0.11850000 0.11849100 14111.44078919 0 379.85242220 0 6217.31463489 0 -644.55492857 0 1755.15973466 0 16015
0.11950000 0.11950300 13667.90382323 0 119.95905883 0 6501.37127993 0 -60.39589295 0 2047.51259502 0 15270
0.12050000 0.12050700 13697.07367121 0 -46.30264172 0 6146.22006245 0 586.65998962 0 1791.89377895 0 15999
0.12150000 0.12150000 13881.18754055 0 -124.92126035 0 5391.78575483 0 1018.98708282 0 685.64004942 0 15670
0.12250000 0.12250700 13496.54483038 0 238.37089569 0 4857.83335135 0 295.23324421 0 1298.35769715 0 16887
0.12350000 0.12352200 13351.58288627 0 58.95115364 0 4384.56088637 0 233.37874795 0 1039.83631485 0 16407
0.12450000 0.12449800 13191.20417840 0 -17.03341663 0 3763.59804283 0 686.76136944 0 939.42881799 0 16306
0.12550000 0.12549900 13240.44909285 0 59.04298875 0 3544.81309183 0 99.43668438 0 -21.91243416 0 17523
0.12650000 0.12650100 13062.87902971 0 78.57081556 0 2687.04210225 0 96.85321188 0 509.60611706 0 17154
0.12750000 0.12750600 13025.16896008 0 86.21542306 0 2828.26631299 0 70.76094923 0 -38.55344424 0 18007
0.12850000 0.12850300 12948.41787720 0 -73.71453498 0 2527.10704226 0 300.37179575 0 423.86450993 0 17496
0.12950000 0.12949900 12819.87090457 0 96.11209810 0 2589.29538355 0 299.66972298 0 -314.90126375 0 18405
0.13050000 0.13049000 12820.75820033 0 104.38646376 0 1949.56623477 0 61.43425081 0 188.66236921 0 18100
0.13150000 0.13148800 12274.51675063 0 274.50157887 0 2922.99622613 0 -380.26723297 0 205.07844981 0 19059
0.13250000 0.13249300 12372.00837180 0 316.91431600 0 3079.24900874 0 -276.70207234 0 419.87500639 0 18957
0.13350000 0.13349100 11937.89892325 0 147.72697951 0 3294.35168235 0 -58.05964322 0 331.22639654 0 19468
0.13450000 0.13450700 11809.24103865 0 124.63399835 0 3371.79041944 0 210.61073885 0 512.57523048 0 19953
0.13550000 0.13551000 11649.74962654 0 154.29074987 0 2933.69923118 0 75.17280556 0 560.33725190 0 19956
0.13650000 0.13649900 11596.73370512 0 22.50758779 0 3239.13970394 0 451.66015860 0 934.70174985 0 19723
0.13750000 0.13749600 11304.03701766 0 196.07128877 0 3062.83403725 0 -69.75508858 0 549.52111664 0 20946
0.13850000 0.13851100 11258.34128623 0 272.50183606 0 3084.40641532 0 -280.93669134 0 1040.88776032 0 20955
0.13950000 0.13949800 10938.83717574 0 103.71344993 0 3275.47446514 0 -167.19979399 0 453.41145860 0 20506
0.14050000 0.14048300 10732.51873011 0 -12.93399932 0 3118.78912586 0 356.65962026 0 928.16570749 0 21447
0.14150000 0.14148400 10954.61994900 0 29.22452757 0 3175.62041902 0 129.94557257 0 615.58583126 0 21771
0.14250000 0.14249400 10946.43464565 0 -168.45753573 0 2848.89593932 0 420.49722254 0 949.10034173 0 22470
0.14350000 0.14350900 10981.27209527 0 -32.01551637 0 2842.40758910 0 587.79794643 0 992.93497031 0 22519
0.14450000 0.14449900 11078.10933582 0 214.76771947 0 2589.40629552 0 -466.66432984 0 1038.88579927 0 22218
0.14550000 0.14550500 10775.63021265 0 152.45293853 0 2795.46964362 0 -185.00116510 0 880.85398867 0 23559
0.14650000 0.14650700 10713.36423298 0 230.82777265 0 3226.10754753 0 -331.57244189 0 644.91317423 0 23044
0.14750000 0.14750500 10403.86438214 0 60.23196506 0 3402.02502232 0 -186.60606129 0 570.67757482 0 23649
0.14850000 0.14849900 10370.50206172 0 34.12173468 0 3193.80998201 0 89.05454766 0 -272.62162099 0 23640
0.14950000 0.14949500 10457.82305530 0 16.83455146 0 3251.47311495 0 -19.62121470 0 76.31919167 0 24457
0.15050000 0.15050000 10352.61196105 0 60.46987123 0 2694.76157533 0 103.10432139 0 -647.85899614 0 24591
0.15150000 0.15149900 10349.92789139 0 121.12807099 0 3201.21890157 0 -33.78633688 0 -716.12642248 0 25020
0.15250000 0.15250500 10240.24704476 0 122.57547219 0 3047.05126399 0 -216.02213384 0 -796.48103525 0 25297
0.15350000 0.15350100 9917.29357203 0 188.39063488 0 3125.88749190 0 108.08049781 0 -1045.48949793 0 25452
0.15450000 0.15450400 9720.97938604 0 151.06321155 0 2990.36415639 0 68.12623540 0 -347.72787936 0 26061
0.15550000 0.15549900 9695.35872109 0 66.70800405 0 2780.82926365 0 501.90882638 0 -220.30333586 0 26128
0.15650000 0.15649500 9554.88871174 0 23.74092889 0 2728.10171335 0 502.33805570 0 209.95081263 0 26331
0.15750000 0.15749700 9491.03669091 0 116.96776302 0 2441.53845780 0 159.46590236 0 130.11194052 0 27345
0.15850000 0.15849900 9278.62917816 0 205.09065013 0 2828.99833199 0 -180.74880019 0 873.93640913 0 26980
0.15950000 0.15949700 9228.05332007 0 0.48910182 0 2435.22756674 0 189.96780309 0 629.42209945 0 27777
0.16050000 0.16050000 9083.70139179 0 -8.07505685 0 2362.07003167 0 421.35013558 0 670.40961777 0 28224
0.16150000 0.16150500 9125.17137718 0 113.42967119 0 2006.43080152 0 -178.69803787 0 97.35564310 0 28075
0.16250000 0.16249700 8935.92228365 0 118.24879626 0 2103.57859559 0 26.32961426 0 474.65664636 0 28590
0.16350000 0.16349900 8744.11112363 0 29.44546422 0 2371.97447054 0 80.15219843 0 528.08848765 0 29163
0.16450000 0.16449100 8796.87194751 0 62.43922416 0 1707.52304377 0 33.43352590 0 -224.95498386 0 28996
0.16550000 0.16550500 8732.39881965 0 115.64236498 0 2224.09554163 0 -331.38278242 0 -103.34233848 0 30777
0.16650000 0.16650700 8734.66142383 0 49.86069770 0 1891.65909550 0 25.42301982 0 -327.03946969 0 29211
0.16750000 0.16749900 8548.19622074 0 29.03242804 0 2204.38648466 0 89.37419595 0 -8.03366450 0 30922
0.16850000 0.16850800 8569.90169316 0 1.80297388 0 1978.69171796 0 43.06578681 0 -457.66825999 0 30867
0.16950000 0.16949900 8696.69625668 0 105.86048383 0 2054.07858361 0 214.97734309 0 -197.79596990 0 30852
0.17050000 0.17049200 8407.32692830 0 149.70343081 0 2089.98078814 0 -116.40987581 0 -442.63414253 0 31257
0.17150000 0.17149500 8221.93757131 0 180.96175117 0 2018.91948929 0 -89.98776097 0 -66.69502734 0 32608
0.17250000 0.17250900 8068.90123582 0 133.58348516 0 2275.73615462 0 -6.07595733 0 161.24160299 0 32361
0.17350000 0.17350400 7924.18329804 0 106.26032148 0 1995.35069577 0 199.14576856 0 -491.62617769 0 32508
0.17450000 0.17449800 7883.97770910 0 -67.24027059 0 2088.49456774 0 390.60311940 0 361.80704477 0 32791
0.17550000 0.17549800 7838.23761288 0 44.51263345 0 1500.02893126 0 196.74341531 0 -289.55676961 0 33633
0.17650000 0.17650100 7924.63803711 0 75.79757268 0 1743.23669794 0 72.07558881 0 394.45620122 0 33984
0.17750000 0.17750300 7739.65905441 0 63.00687162 0 1421.30361532 0 14.27281770 0 417.42385186 0 34069
0.17850000 0.17849800 7629.31273597 0 45.88028894 0 1695.27836234 0 -97.76568465 0 384.77469541 0 34536
