### header ###
fiducial parameters:
Omega_m = 0.31
Omega_nu = 0
Omega_de = 0.69
Omega_k = 0
H_0 = 100
w_de = -1
zeff = 0
beta = 0
fgrowth = 0
b_1 = 2
gamma = 0.55
Lx = 3500 Ly = 3500 Lz = 3500
nx = 700 ny = 700 nz = 700
xoffset = 1379.75464 yoffset = 22.6059522 zoffset = 368.141391
bins = 400 dk = 0.001
kx_ny = 0.628318531 ky_ny = 0.628318531 kz_ny = 0.628318531
############################
A(data) = 3.29976738 (not used)
A(ran) = 3.29956378 (used)
Ngal = 185609
weighted Ngal = 0
Nran = 9399747
weighted Nran = 0
SN(data) = 6659.11236
SN(ran) = 131.241412
SN(data+ran) = 6790.35377
############################
13 columns: k_central k_mean P_0(k) sigma^{lin}_{P_0(k)} P^img_1(k) sigma^{lin}_{P_1(k)} P_2(k) sigma^{lin}_{P_2(k)} P^img_3(k) sigma^{lin}_{P_3(k)} P_4(k) sigma^{lin}_{P_4(k)} N_modes
### header ###
0.00050000 0 0 0 0 0 0 0 0 0 0 0 0
0.00150000 0.00179520 24714.40324775 0 -33055.75973660 0 -58471.01571952 0 56963.94387819 0 45027.59772252 0 3
0.00250000 0.00253879 50182.78606405 0 -35436.26333760 0 -5123.83352776 0 -83651.47106304 0 -33125.74518935 0 6
0.00350000 0.00331552 63393.84348499 0 -13368.33059366 0 -55531.29396839 0 12042.93255835 0 -25628.98334811 0 7
0.00450000 0.00420575 101251.09329245 0 -24944.98923231 0 -38482.12784352 0 -39461.70235799 0 16067.92793086 0 24
0.00550000 0.00557378 132177.12139105 0 -22229.30965954 0 -39160.90909675 0 -32241.99861651 0 11673.26296407 0 45
0.00650000 0.00659388 166456.68379892 0 -1121.51965301 0 -36529.41170882 0 -13509.52153081 0 -80240.48435358 0 40
0.00750000 0.00754703 134149.13620845 0 10010.04925210 0 -33144.37840022 0 -56580.74302363 0 -29239.61160263 0 57
0.00850000 0.00846663 134927.73823421 0 28808.94042513 0 49680.24393033 0 -49206.64982064 0 -38397.72383475 0 75
0.00950000 0.00948925 109803.51525922 0 19880.63779378 0 78852.53196748 0 -39095.80377067 0 -13210.83559700 0 112
0.01050000 0.01054430 80488.59442931 0 10849.96341460 0 62561.00550614 0 13890.83688189 0 -62647.07319446 0 105
0.01150000 0.01145670 83360.32714315 0 2299.90387277 0 96118.08734481 0 13022.28524888 0 -22269.12705658 0 144
0.01250000 0.01249090 78041.43273466 0 -1744.76728312 0 60033.76536952 0 25706.28899083 0 -38789.79764687 0 169
0.01350000 0.01339930 93636.76476355 0 -3587.13709939 0 75738.23477639 0 13393.84034664 0 -20309.31255583 0 180
0.01450000 0.01448870 84260.37777549 0 6609.31080863 0 54783.19273423 0 -1444.40657857 0 -16618.05129949 0 267
0.01550000 0.01550050 72818.58809174 0 6446.48094623 0 54018.12196875 0 -863.83011047 0 -32821.29183312 0 238
0.01650000 0.01653350 79622.92650750 0 -1369.46336079 0 52905.78582681 0 17531.63319212 0 -4794.15878967 0 315
0.01750000 0.01747870 71184.41113339 0 -3760.35941333 0 34703.13521932 0 15056.96532903 0 -25396.84459598 0 297
0.01850000 0.01844180 80747.35205411 0 110.08012971 0 29651.98230516 0 14825.60296069 0 -3523.00779863 0 388
0.01950000 0.01947590 74625.78772248 0 1551.12607560 0 14400.36646969 0 -5104.73448662 0 -20234.55788840 0 399
0.02050000 0.02045430 74944.65963474 0 4568.43074938 0 27288.11549959 0 -707.49303477 0 -11963.18685229 0 462
0.02150000 0.02154770 66808.37937747 0 2078.73431443 0 21373.51290301 0 -8209.64852509 0 -13925.77415228 0 571
0.02250000 0.02255340 61505.23446864 0 2903.61990506 0 18706.96733272 0 2181.74935168 0 -27201.60416339 0 510
0.02350000 0.02348930 63053.45465065 0 1192.23712475 0 28934.38186261 0 -3623.63822854 0 -10345.50250380 0 555
0.02450000 0.02439640 60413.08430515 0 311.92216825 0 16008.92276310 0 4754.55212537 0 -30661.05940351 0 592
0.02550000 0.02547300 63592.15408642 0 -1111.38229900 0 16258.36378246 0 5200.62897543 0 -12642.85540128 0 837
0.02650000 0.02652900 63296.13003987 0 80.89065032 0 17396.54241329 0 -791.27260916 0 -21851.32166754 0 723
0.02750000 0.02749970 62018.86779932 0 -2113.20575454 0 11412.84165972 0 7444.41139165 0 -3432.58126991 0 826
0.02850000 0.02848090 63887.17992524 0 -130.34485566 0 12391.30705449 0 3570.04556489 0 -8908.54920958 0 831
0.02950000 0.02946900 61404.63731232 0 1442.45452790 0 5085.31380076 0 1634.83133897 0 -2312.31492216 0 996
0.03050000 0.03053250 62400.84862221 0 2451.83108857 0 10049.07917416 0 2720.09386916 0 -992.66767246 0 1041
0.03150000 0.03150510 57065.98289012 0 1926.66291307 0 7849.70591053 0 -3699.85693397 0 -927.48248976 0 1036
0.03250000 0.03246190 54798.49858602 0 3332.00629599 0 9911.49287602 0 -905.33336945 0 935.11656062 0 1059
0.03350000 0.03345080 53471.21504723 0 1448.05558236 0 11105.39368032 0 -1620.67897167 0 -3485.77465048 0 1302
0.03450000 0.03451200 49365.03211306 0 1093.93917356 0 8122.40516989 0 2563.35307389 0 383.10768851 0 1339
0.03550000 0.03553350 49770.19353758 0 401.38819932 0 11272.87075423 0 1934.74839565 0 -1473.83152407 0 1365
0.03650000 0.03647120 48121.70893516 0 763.44701426 0 6545.35896702 0 -659.59680987 0 -212.43080427 0 1308
0.03750000 0.03744890 46509.82528268 0 2368.52510829 0 11199.44703044 0 438.71673177 0 -1068.66788131 0 1579
0.03850000 0.03847530 42853.50129673 0 2506.03376806 0 14004.07800273 0 -2173.47531876 0 2969.76780366 0 1662
0.03950000 0.03950240 41538.08533867 0 577.81808741 0 15358.86770996 0 3237.07674131 0 3438.77015781 0 1683
0.04050000 0.04050350 41204.01848659 0 349.30726581 0 16744.82368061 0 3010.81632356 0 3503.66475116 0 1822
0.04150000 0.04152450 41111.07425616 0 -807.05870978 0 7026.39526987 0 3426.72511793 0 8068.25794639 0 1887
0.04250000 0.04250150 40440.27866473 0 -94.52794244 0 12983.35514759 0 2006.85226701 0 3858.37232076 0 1920
0.04350000 0.04349210 41557.16219742 0 -843.83822798 0 4811.25032417 0 2138.84860189 0 6755.04913653 0 2005
0.04450000 0.04448520 41269.45654858 0 1216.03883340 0 10052.20689170 0 -2233.32341749 0 1899.10128866 0 2151
0.04550000 0.04548030 38651.71224486 0 2853.16605014 0 7213.62576555 0 -5930.84010891 0 114.47335282 0 2274
0.04650000 0.04648670 36090.86578149 0 2687.05319345 0 13059.44075865 0 -3502.89945857 0 -2296.16613940 0 2311
0.04750000 0.04749250 32922.11081338 0 605.69470182 0 14104.23151118 0 -708.30601951 0 -5327.98918999 0 2568
0.04850000 0.04851840 32710.93442348 0 -37.39641057 0 11489.59274260 0 1610.07578738 0 -7622.65801780 0 2493
0.04950000 0.04949480 33482.32717123 0 -734.26052949 0 10875.04061090 0 3090.02965217 0 -6317.11322503 0 2644
0.05050000 0.05050630 32819.18450570 0 -509.53069692 0 10092.56775740 0 3501.28014381 0 -4287.69037223 0 2829
0.05150000 0.05149060 35291.41230546 0 57.38152744 0 5485.12926835 0 1049.48787443 0 -2729.68775452 0 2784
0.05250000 0.05249300 33367.53328282 0 1023.95704818 0 9752.28983503 0 -2930.78224639 0 -2366.31796010 0 3055
0.05350000 0.05348950 33464.47034415 0 950.70412881 0 10272.89952858 0 -301.19808992 0 -599.39712019 0 3009
0.05450000 0.05448610 31436.11224626 0 564.12822302 0 12643.52087310 0 -1055.13440280 0 -593.24150589 0 3336
0.05550000 0.05550870 32523.16045915 0 -109.94470620 0 12570.76262112 0 543.23240797 0 -618.96088249 0 3349
0.05650000 0.05647670 32194.97194145 0 -268.59218914 0 13289.02853548 0 553.74908091 0 -1975.56400042 0 3324
0.05750000 0.05747970 33322.94667109 0 -759.17690343 0 9728.87631827 0 2315.53136927 0 -316.73796597 0 3639
0.05850000 0.05849280 33196.95067376 0 -512.36117038 0 10099.33338754 0 1500.20639041 0 250.36602519 0 3846
0.05950000 0.05951020 34734.30148275 0 328.23177337 0 9108.03547790 0 1210.92579161 0 2726.17184509 0 3787
0.06050000 0.06049470 33666.99560042 0 204.76456894 0 8197.30402289 0 1128.97293736 0 737.72320117 0 3930
0.06150000 0.06148310 32646.82730512 0 997.27717392 0 8317.13331471 0 -1023.53891005 0 -638.04550508 0 4083
0.06250000 0.06249100 32081.73082061 0 810.50807203 0 10713.30877700 0 -767.61508607 0 1511.31976976 0 4303
0.06350000 0.06350600 30629.56040418 0 882.07512945 0 11219.07844904 0 -641.29300755 0 -322.42220440 0 4470
0.06450000 0.06451750 30134.33846044 0 1350.63050837 0 12271.30030351 0 -2369.32367447 0 380.76966419 0 4479
0.06550000 0.06550280 28875.93125470 0 215.79143694 0 13407.92616677 0 96.85975568 0 -363.50177966 0 4636
0.06650000 0.06648880 28555.17383895 0 369.66737604 0 14886.60454390 0 1033.51433259 0 349.15198905 0 4653
0.06750000 0.06749660 28684.49719537 0 -208.66534291 0 12302.13383103 0 1522.83243219 0 204.22220941 0 5220
0.06850000 0.06852730 29341.76152652 0 -180.92404110 0 12694.31855512 0 525.33565257 0 -2667.29977168 0 5029
0.06950000 0.06949320 28748.16066585 0 490.89415869 0 13098.37085994 0 -1906.54348181 0 -1401.69437912 0 5040
0.07050000 0.07048030 27451.48883064 0 820.29050773 0 12887.19447005 0 -505.13303733 0 -3096.34054323 0 5475
0.07150000 0.07148790 27394.48007832 0 570.34594803 0 13722.36160025 0 -1250.23299359 0 -5133.78233142 0 5509
0.07250000 0.07249820 26782.91147860 0 246.95215477 0 12042.04526259 0 1566.63156894 0 -5002.91729863 0 5916
0.07350000 0.07351270 26733.66656415 0 -642.47754738 0 11736.48278667 0 2699.66388438 0 -6595.63536279 0 5721
0.07450000 0.07449140 26385.51389194 0 118.67802559 0 8883.56074286 0 874.54198849 0 -5433.75484409 0 6028
0.07550000 0.07549160 26319.74309404 0 392.65277260 0 7512.64443527 0 1439.04953044 0 -4897.86148114 0 6183
0.07650000 0.07648840 25495.66716079 0 629.52968406 0 6864.37506485 0 -130.93601645 0 -4513.83987800 0 6330
0.07750000 0.07749960 25146.95992874 0 338.13843048 0 6670.77822211 0 265.18719167 0 -4608.22596403 0 6583
0.07850000 0.07848650 23925.93005671 0 417.80538904 0 6271.61713514 0 433.29424558 0 -5067.68988881 0 6549
0.07950000 0.07947320 23828.88208341 0 201.49488408 0 5468.45919934 0 613.40862930 0 -2844.39291336 0 6828
0.08050000 0.08048110 23443.24116552 0 -139.61709630 0 4263.70011323 0 1720.58847377 0 -3457.56973664 0 7147
0.08150000 0.08149960 23739.37612404 0 -173.88778575 0 4826.90000306 0 1232.53144327 0 -3000.17986569 0 7386
0.08250000 0.08250610 23297.72466156 0 500.33720377 0 2935.80655860 0 -745.13101161 0 -2881.88115904 0 7227
0.08350000 0.08350160 22774.33107757 0 784.61012715 0 4435.55820994 0 -902.31989124 0 -2338.44578217 0 7798
0.08450000 0.08449610 21897.57195881 0 368.11460847 0 4525.28599325 0 -1042.22092219 0 -2542.14670532 0 7371
0.08550000 0.08548940 21636.37427068 0 91.76445981 0 5832.84938387 0 157.66247374 0 -3464.20227241 0 8256
0.08650000 0.08650700 21193.83551245 0 437.35029630 0 5998.78478142 0 -750.94723529 0 -3414.42498051 0 8037
0.08750000 0.08749060 20821.94767878 0 571.03138400 0 6219.00049682 0 -874.02292047 0 -4105.72819510 0 8155
0.08850000 0.08849210 21049.98268803 0 -178.26437207 0 6765.71886799 0 1259.10595115 0 -2801.45888997 0 8718
0.08950000 0.08949900 20221.80301191 0 102.15835320 0 5899.28565359 0 860.96081782 0 -2992.29402466 0 8571
0.09050000 0.09049190 20630.40270748 0 232.37055814 0 5911.68561178 0 205.37125741 0 -876.44080140 0 8932
0.09150000 0.09150830 20270.04971863 0 156.78183270 0 5570.18765775 0 578.22291610 0 -1859.66099231 0 9285
0.09250000 0.09250820 20160.46869278 0 164.67321933 0 5373.00835840 0 -103.08613183 0 -1417.78770589 0 9204
0.09350000 0.09350330 19662.91759769 0 272.10588033 0 6101.08998207 0 -415.31319709 0 -1371.82578574 0 9349
0.09450000 0.09448040 18872.22616725 0 630.32825024 0 5735.05830038 0 -390.51106247 0 -1752.70858014 0 9564
0.09550000 0.09549270 18857.36396334 0 138.41813791 0 6294.54263924 0 360.42286339 0 -1287.74342167 0 10155
0.09650000 0.09649430 18556.68161407 0 -100.45718541 0 4886.07153878 0 967.05366223 0 -2354.65002091 0 9913
0.09750000 0.09749140 18674.58103763 0 92.22163894 0 5080.66658924 0 728.25020986 0 -809.89694707 0 10476
0.09850000 0.09850240 18022.08592117 0 202.05166216 0 3992.32070630 0 347.35410602 0 -1273.55778078 0 10575
0.09950000 0.09950330 18070.99809971 0 435.70214444 0 4560.27871963 0 -388.29060484 0 -2109.13528526 0 10882
0.10050000 0.10051200 17272.09918353 0 447.82482270 0 5453.44171867 0 -1095.95998964 0 -1348.15717145 0 10875
0.10150000 0.10150300 16973.96780956 0 500.71763183 0 6034.97535706 0 -946.41183559 0 -1618.58273544 0 11118
0.10250000 0.10250800 16538.30559343 0 165.09801217 0 6280.04644483 0 -277.10357367 0 -2116.32238089 0 11575
0.10350000 0.10349800 16737.39257865 0 23.74891455 0 6858.04199139 0 226.09626803 0 -2730.07594641 0 11364
0.10450000 0.10450100 16561.48619506 0 132.57640448 0 6693.95882374 0 341.00328665 0 -1096.73415519 0 12093
0.10550000 0.10551000 16406.32034975 0 228.18363129 0 7213.33739443 0 287.81212433 0 -1241.77041032 0 12067
0.10650000 0.10649700 16156.43568251 0 96.95624910 0 6608.93370793 0 325.02863569 0 -625.70322112 0 12054
0.10750000 0.10749900 16403.32572657 0 -54.09409667 0 6401.77233133 0 1047.72881059 0 -163.36113073 0 12807
0.10850000 0.10850100 15974.31822862 0 107.77515716 0 5921.24622355 0 648.68085383 0 520.56643788 0 12736
0.10950000 0.10950300 15690.71632265 0 398.42574061 0 5968.63890811 0 378.82094089 0 1034.80423879 0 12933
0.11050000 0.11050200 15216.01309327 0 386.01690947 0 5666.19305853 0 243.91760329 0 1100.21790015 0 13428
0.11150000 0.11150900 14766.37596899 0 90.31262213 0 5496.56429240 0 759.30001572 0 2058.98089266 0 13453
0.11250000 0.11250000 14646.25830604 0 -76.87486064 0 4539.64909330 0 493.12127104 0 934.06844251 0 13668
0.11350000 0.11349100 14775.35983851 0 -60.71487577 0 4548.79933078 0 163.22249077 0 1169.35598545 0 13791
0.11450000 0.11448600 14695.39230852 0 123.81990449 0 3731.17847415 0 179.86815915 0 761.95857562 0 14205
0.11550000 0.11549300 14472.23742592 0 78.16365773 0 3816.42541390 0 -3.61398889 0 872.71859571 0 14776
0.11650000 0.11649800 14285.90531719 0 209.50383739 0 3616.24040018 0 -714.44721526 0 -720.01610525 0 14553
0.11750000 0.11747300 14262.83562754 0 232.44043268 0 4012.02976328 0 20.83004425 0 -1048.92998722 0 14568
0.11850000 0.11849100 13823.62422839 0 258.24188414 0 4121.55533314 0 -313.78992582 0 -907.25214653 0 16015
0.11950000 0.11950300 13678.99502018 0 83.89858293 0 3868.23239484 0 -209.71789750 0 -1368.03259638 0 15270
0.12050000 0.12050700 13679.43866806 0 -266.50260763 0 3465.05629458 0 1151.77643829 0 -1144.86662259 0 15999
0.12150000 0.12150000 14071.62339215 0 -147.52511973 0 2795.49182601 0 625.61005506 0 -1335.00301187 0 15670
0.12250000 0.12250700 14076.28169487 0 36.69688878 0 2289.33396208 0 462.02377303 0 -814.39775480 0 16887
0.12350000 0.12352200 13711.38131527 0 249.00069885 0 2214.37965311 0 -387.72495380 0 -900.75270512 0 16407
0.12450000 0.12449800 13687.86797774 0 189.14261804 0 2715.67957277 0 -182.47459043 0 -335.41775987 0 16306
0.12550000 0.12549900 13225.80871288 0 203.35265957 0 2428.07374471 0 -90.98552505 0 -1333.17296437 0 17523
0.12650000 0.12650100 13255.53312070 0 174.31479684 0 2618.37650195 0 -8.23534683 0 -209.50051004 0 17154
0.12750000 0.12750600 12868.78308311 0 91.20446527 0 2812.03989186 0 331.09773866 0 -698.39270768 0 18007
0.12850000 0.12850300 12958.84360233 0 98.42882732 0 2428.75030772 0 337.73692915 0 -238.38420513 0 17496
0.12950000 0.12949900 12777.61344420 0 18.83418336 0 2891.64141236 0 117.84064022 0 -297.33169867 0 18405
0.13050000 0.13049000 12664.70505927 0 70.95071961 0 2122.55563357 0 13.35768304 0 -105.16650764 0 18100
0.13150000 0.13148800 12831.96030925 0 101.63983975 0 2581.95301117 0 123.74559347 0 303.50062241 0 19059
0.13250000 0.13249300 12497.56072126 0 180.64676117 0 2396.95184607 0 -231.79492502 0 -98.97795248 0 18957
0.13350000 0.13349100 12420.58781444 0 140.24929453 0 2828.90960242 0 90.38704406 0 125.20852235 0 19468
0.13450000 0.13450700 12212.62787166 0 120.51361868 0 2882.71299881 0 -205.72506659 0 -139.48400194 0 19953
0.13550000 0.13551000 11893.31231152 0 279.17984574 0 2867.32950865 0 -145.63628889 0 450.88488394 0 19956
0.13650000 0.13649900 11921.37303980 0 83.75051545 0 2867.90625089 0 -224.95387474 0 -89.95570741 0 19723
0.13750000 0.13749600 11727.16618123 0 77.21890957 0 3424.17414263 0 180.36060829 0 -503.13107628 0 20946
0.13850000 0.13851100 11491.92189396 0 157.62698191 0 3010.66104681 0 54.51423121 0 -632.62967361 0 20955
0.13950000 0.13949800 11342.19073516 0 317.77942936 0 3542.60594364 0 -577.56631724 0 -685.48144531 0 20506
0.14050000 0.14048300 11030.32845937 0 269.49612169 0 3367.60903819 0 20.57405943 0 -455.34021775 0 21447
0.14150000 0.14148400 10625.85468906 0 147.50626469 0 3687.54570536 0 278.42009875 0 -621.43976501 0 21771
0.14250000 0.14249400 10587.88952191 0 13.22170497 0 3011.38197461 0 204.29652043 0 -175.98624022 0 22470
0.14350000 0.14350900 10678.19404746 0 -87.98846181 0 3318.45285332 0 647.97767195 0 12.50443726 0 22519
0.14450000 0.14449900 10537.05856630 0 8.85903811 0 2457.57632859 0 510.48564898 0 181.66493305 0 22218
0.14550000 0.14550500 10661.32433690 0 34.56870991 0 2510.32606128 0 202.33781505 0 741.74265095 0 23559
0.14650000 0.14650700 10404.77386029 0 142.41984177 0 2285.19694562 0 20.34790992 0 -63.44952129 0 23044
0.14750000 0.14750500 10333.89002060 0 145.78602005 0 3112.04567811 0 25.70761993 0 1230.27993028 0 23649
0.14850000 0.14849900 10296.24649816 0 71.51015959 0 2435.07228998 0 -111.54860419 0 514.98645670 0 23640
0.14950000 0.14949500 10307.82570777 0 -107.95383634 0 2654.85544871 0 216.43361725 0 740.13775475 0 24457
0.15050000 0.15050000 10332.48143859 0 -27.63427176 0 2358.42102787 0 266.18429028 0 692.05187038 0 24591
0.15150000 0.15149900 10299.21893894 0 169.30157582 0 2076.92644933 0 -55.04527772 0 627.55656013 0 25020
0.15250000 0.15250500 10195.38315311 0 226.26818158 0 2205.69524590 0 -185.68771019 0 306.41871633 0 25297
0.15350000 0.15350100 9668.04110301 0 272.79908014 0 2442.33702398 0 -284.23854067 0 109.53743744 0 25452
0.15450000 0.15450400 9468.53265230 0 175.74556124 0 2465.96127348 0 -25.20829425 0 396.30843111 0 26061
0.15550000 0.15549900 9510.74574789 0 -0.12652394 0 2315.49809568 0 313.35515090 0 -109.01282383 0 26128
0.15650000 0.15649500 9286.12682729 0 75.32320219 0 2268.24959668 0 245.42489695 0 105.64620191 0 26331
0.15750000 0.15749700 9138.07043923 0 152.22335076 0 2206.69345362 0 -52.63948619 0 94.00510341 0 27345
0.15850000 0.15849900 9022.04542796 0 78.81648558 0 2114.49233339 0 120.91844737 0 602.71893368 0 26980
0.15950000 0.15949700 9093.09563561 0 -52.40091454 0 1951.37409987 0 285.29996822 0 555.80317059 0 27777
0.16050000 0.16050000 8994.45052995 0 95.97623094 0 2054.73296423 0 40.38715183 0 428.54166769 0 28224
0.16150000 0.16150500 9002.75783646 0 77.48199276 0 1911.45688206 0 -130.87723311 0 629.54742998 0 28075
0.16250000 0.16249700 8839.62851175 0 174.92592179 0 2379.42775489 0 -179.78941165 0 202.47756413 0 28590
0.16350000 0.16349900 8777.89490953 0 156.11636088 0 2336.84864981 0 -316.87882417 0 611.55529029 0 29163
0.16450000 0.16449100 8571.72064946 0 76.65902595 0 2805.87318636 0 68.08564162 0 156.70863080 0 28996
0.16550000 0.16550500 8420.00416641 0 97.85929435 0 2739.25945748 0 -23.08654827 0 366.46202013 0 30777
0.16650000 0.16650700 8378.10162434 0 8.62635589 0 2406.74537298 0 -86.44379081 0 -222.14336544 0 29211
0.16750000 0.16749900 8480.16281866 0 -14.90290860 0 2751.77032764 0 289.27172585 0 -284.09990071 0 30922
0.16850000 0.16850800 8455.10780475 0 -13.65670171 0 2377.27606269 0 -32.53158977 0 -364.28370905 0 30867
0.16950000 0.16949900 8422.51077692 0 57.88196225 0 2193.38401728 0 -56.26453300 0 -325.92036792 0 30852
0.17050000 0.17049200 8458.00260715 0 31.88885491 0 2193.18437574 0 298.91441247 0 -544.68202741 0 31257
0.17150000 0.17149500 8214.75047569 0 53.88890952 0 1767.87024636 0 203.01548718 0 -552.09427433 0 32608
0.17250000 0.17250900 8428.87712397 0 55.71962249 0 2024.16562544 0 143.34484760 0 68.30735465 0 32361
0.17350000 0.17350400 8122.50499067 0 95.53080847 0 1592.59606099 0 184.76048612 0 -447.86253277 0 32508
0.17450000 0.17449800 8075.93305468 0 173.66374358 0 1832.89793407 0 73.37359159 0 341.01437785 0 32791
0.17550000 0.17549800 7709.46881632 0 170.17001654 0 1715.12051368 0 -212.64375525 0 107.20972794 0 33633
0.17650000 0.17650100 7746.46904933 0 129.26790043 0 1915.63826331 0 115.52479829 0 879.40547835 0 33984
0.17750000 0.17750300 7536.86760941 0 121.44860658 0 2239.97813566 0 78.93959786 0 337.22229761 0 34069
