### header ###
fiducial parameters:
Omega_m = 0.31
Omega_nu = 0
Omega_de = 0.69
Omega_k = 0
H_0 = 100
w_de = -1
zeff = 0
beta = 0
fgrowth = 0
b_1 = 2
gamma = 0.55
Lx = 3500 Ly = 3500 Lz = 3500
nx = 700 ny = 700 nz = 700
xoffset = 1379.75464 yoffset = 22.6059522 zoffset = 368.141391
bins = 400 dk = 0.001
kx_ny = 0.628318531 ky_ny = 0.628318531 kz_ny = 0.628318531
############################
A(data) = 3.3083526 (not used)
A(ran) = 3.3114548 (used)
Ngal = 186334
weighted Ngal = 0
Nran = 9399747
weighted Nran = 0
SN(data) = 6685.89505
SN(ran) = 131.714383
SN(data+ran) = 6817.60943
############################
13 columns: k_central k_mean P_0(k) sigma^{lin}_{P_0(k)} P^img_1(k) sigma^{lin}_{P_1(k)} P_2(k) sigma^{lin}_{P_2(k)} P^img_3(k) sigma^{lin}_{P_3(k)} P_4(k) sigma^{lin}_{P_4(k)} N_modes
### header ###
0.00050000 0 0 0 0 0 0 0 0 0 0 0 0
0.00150000 0.00179520 17330.32796751 0 -9405.03554978 0 -36031.97152569 0 32399.04996530 0 -6398.84425534 0 3
0.00250000 0.00253879 36580.32030281 0 -7519.58752456 0 -378.14105051 0 -20835.14620314 0 19420.13129649 0 6
0.00350000 0.00331552 39733.10394731 0 -7180.65163702 0 -12632.65150009 0 -13823.62422839 0 -7291.11995863 0 7
0.00450000 0.00420575 43073.21790827 0 -3009.38555916 0 11483.38167231 0 -19705.84052988 0 9679.29866791 0 24
0.00550000 0.00557378 54289.63447004 0 -5556.17947600 0 13536.80587531 0 -8291.86756807 0 3940.31408381 0 45
0.00650000 0.00659388 50919.90701323 0 1245.29741095 0 15413.10366304 0 19437.87721161 0 -14349.90152358 0 40
0.00750000 0.00754703 53666.97467336 0 6246.57321244 0 24947.20747170 0 -17837.75022789 0 12684.11465393 0 57
0.00850000 0.00846663 47779.32368537 0 6488.77168019 0 20549.76970567 0 23012.68089999 0 14303.09667246 0 75
0.00950000 0.00948925 47379.37512342 0 1164.30949084 0 41970.08745980 0 9518.56504174 0 24060.68809963 0 112
0.01050000 0.01054430 42432.47946057 0 284.10211895 0 2224.11772403 0 29099.97343305 0 32673.77891371 0 105
0.01150000 0.01145670 51359.34023632 0 -12609.02725059 0 5616.30485466 0 38941.41430915 0 41838.65677596 0 144
0.01250000 0.01249090 56422.47164318 0 -9145.36844682 0 -23090.98475044 0 13907.14094141 0 25981.46158712 0 169
0.01350000 0.01339930 68350.72122509 0 -6896.39535044 0 -35479.07535782 0 10281.20683509 0 32486.89224513 0 180
0.01450000 0.01448870 75404.16792431 0 -4110.30885944 0 -38872.31615216 0 -3279.82221435 0 33631.61468216 0 267
0.01550000 0.01550050 77060.52727656 0 -1856.73291631 0 -41379.70304625 0 -15071.05114915 0 3510.34165172 0 238
0.01650000 0.01653350 79904.97564590 0 1378.50268630 0 -30615.80731997 0 -11932.79697265 0 -745.21752295 0 315
0.01750000 0.01747870 77558.41110756 0 2379.51648447 0 -19973.36020027 0 -23265.89292632 0 1465.36894080 0 297
0.01850000 0.01844180 71713.57213979 0 4296.65205936 0 -6834.06282359 0 -13474.25152452 0 -6044.19214172 0 388
0.01950000 0.01947590 71445.71973349 0 3758.50718344 0 2038.02962163 0 -10341.99768557 0 -14389.82983259 0 399
0.02050000 0.02045430 67063.69873121 0 2883.95521287 0 10841.88902322 0 -4131.00503294 0 -13707.94304422 0 462
0.02150000 0.02154770 65549.97217172 0 2186.98439664 0 20473.35135869 0 -3504.68514127 0 -13070.86469151 0 571
0.02250000 0.02255340 66449.91189210 0 787.70013462 0 25378.87685692 0 -110.94413395 0 -9756.59321944 0 510
0.02350000 0.02348930 65488.97058851 0 -2337.08156494 0 22725.64072297 0 6731.25851907 0 -7999.70325806 0 555
0.02450000 0.02439640 69104.81170560 0 -1035.18688509 0 14147.26535534 0 6925.46537764 0 -7579.97909195 0 592
0.02550000 0.02547300 71602.21652243 0 3.98565490 0 14113.32629267 0 3900.61868993 0 2990.17560604 0 837
0.02650000 0.02652900 68741.13135766 0 1999.27697949 0 16756.80217331 0 -2818.32860053 0 -4837.10390426 0 723
0.02750000 0.02749970 64529.13840461 0 3561.36115768 0 17775.19587710 0 2.10739397 0 5386.09597080 0 826
0.02850000 0.02848090 60471.20217716 0 2569.14267869 0 19771.05676793 0 -3528.94158900 0 -2813.83666576 0 831
0.02950000 0.02946900 59337.34911314 0 2994.32371370 0 20852.00482251 0 -82.03481820 0 -4786.59459335 0 996
0.03050000 0.03053250 53968.21158248 0 2799.80630162 0 22658.76080537 0 -1536.16405092 0 -2856.30485888 0 1041
0.03150000 0.03150510 50068.32491154 0 1681.76928446 0 23716.41734635 0 1559.55538528 0 -11861.59148825 0 1036
0.03250000 0.03246190 49745.57108035 0 -268.42249382 0 18346.72525584 0 3708.31951724 0 513.05326107 0 1059
0.03350000 0.03345080 50672.57332128 0 781.53786560 0 25552.56500113 0 2135.69870196 0 -10726.75130770 0 1302
0.03450000 0.03451200 48927.70621739 0 -534.84080836 0 13782.03223983 0 2517.92353119 0 -5619.02219791 0 1339
0.03550000 0.03553350 49965.28769190 0 -405.38879406 0 19634.41322153 0 -233.02382964 0 -9268.00381148 0 1365
0.03650000 0.03647120 50908.37216840 0 292.04119772 0 14666.55519645 0 -815.03328038 0 -6790.51878437 0 1308
0.03750000 0.03744890 49337.52594463 0 1600.17134851 0 19197.19823783 0 1725.59060360 0 -7109.33524064 0 1579
0.03850000 0.03847530 49817.77477248 0 361.99337688 0 16927.38478238 0 557.44799510 0 -4058.11368660 0 1662
0.03950000 0.03950240 47279.66526285 0 -271.40380756 0 13630.74831346 0 6650.90279718 0 1664.65556756 0 1683
0.04050000 0.04050350 49344.06975083 0 -5.53712480 0 13852.46134045 0 5185.61149476 0 268.21508844 0 1822
0.04150000 0.04152450 47284.43447754 0 793.84133037 0 9429.07017356 0 715.58073559 0 4558.23793939 0 1887
0.04250000 0.04250150 45926.65014714 0 2084.43518966 0 11561.02005095 0 1652.27779177 0 3214.35087876 0 1920
0.04350000 0.04349210 42395.32395079 0 2364.17735909 0 10935.56527265 0 -4469.36417824 0 5151.98298562 0 2005
0.04450000 0.04448520 40355.20918414 0 2498.11465344 0 15222.66781144 0 -2754.57640047 0 909.59460732 0 2151
0.04550000 0.04548030 36464.86094258 0 2331.82433759 0 15958.79055289 0 -75.75975170 0 1733.15479992 0 2274
0.04650000 0.04648670 35456.78205196 0 496.73478300 0 14012.95096029 0 3697.83833613 0 1678.92993804 0 2311
0.04750000 0.04749250 35164.75083631 0 -2296.80942883 0 12718.49736447 0 4856.38040455 0 1332.04166228 0 2568
0.04850000 0.04851840 38011.41744504 0 -436.21566685 0 8815.72698233 0 5382.45805820 0 3547.56370868 0 2493
0.04950000 0.04949480 38209.28439860 0 -173.94767822 0 6342.70061639 0 -1133.10995382 0 -145.50652188 0 2644
0.05050000 0.05050630 36087.31659846 0 1509.17916874 0 5629.39246706 0 -2118.55171147 0 5084.92560887 0 2829
0.05150000 0.05149060 34933.49937994 0 1692.28373916 0 10077.84973905 0 -1253.54926148 0 -267.33001092 0 2784
0.05250000 0.05249300 34434.61734121 0 -178.42630355 0 9413.33176509 0 -42.72805986 0 1794.61112221 0 3055
0.05350000 0.05348950 33766.70546099 0 111.72939070 0 9128.03290599 0 3885.41265892 0 -1309.13834059 0 3009
0.05450000 0.05448610 33955.36672108 0 292.13769114 0 8969.83916392 0 320.39473360 0 4491.81276086 0 3336
0.05550000 0.05550870 33359.76944496 0 -203.67874076 0 6200.00127645 0 1439.57081670 0 3095.04287319 0 3349
0.05650000 0.05647670 34002.94795598 0 22.51446433 0 8503.76488576 0 1560.66450498 0 3775.95363623 0 3324
0.05750000 0.05747970 33233.21888778 0 870.94622244 0 5930.66264976 0 -1302.82744952 0 1932.67434182 0 3639
0.05850000 0.05849280 32082.61811637 0 1247.37146478 0 8432.32648622 0 -1685.61792980 0 2762.69515664 0 3846
0.05950000 0.05951020 30947.21228478 0 265.67742258 0 8714.79709010 0 -104.25958046 0 4072.78734016 0 3787
0.06050000 0.06049470 31726.03613448 0 -358.33217276 0 7843.05119236 0 1908.04079340 0 1147.94997534 0 3930
0.06150000 0.06148310 31110.36379189 0 -401.03771749 0 8103.94941817 0 2629.91134677 0 3903.53567473 0 4083
0.06250000 0.06249100 31646.29042842 0 322.55973525 0 5522.88370276 0 110.94191571 0 2780.78489886 0 4303
0.06350000 0.06350600 30999.67364634 0 313.38398801 0 6923.93479246 0 -1.49782178 0 5591.36075272 0 4470
0.06450000 0.06451750 31143.63738273 0 36.10883352 0 6954.99014391 0 210.53642783 0 3579.91673017 0 4479
0.06550000 0.06550280 29987.82374876 0 814.81367468 0 7584.70394185 0 -2242.14091907 0 3203.83642405 0 4636
0.06650000 0.06648880 29911.29448981 0 1005.93496225 0 8757.28746561 0 -1068.29188974 0 2231.72628513 0 4653
0.06750000 0.06749660 28816.26061512 0 971.73747470 0 12097.27942340 0 -996.09152496 0 3118.60057551 0 5220
0.06850000 0.06852730 27818.38562568 0 608.07043621 0 12083.74816312 0 -235.21101368 0 4992.03683443 0 5029
0.06950000 0.06949320 26762.83641212 0 83.76715225 0 12254.55259612 0 2076.20552153 0 2476.14299228 0 5040
0.07050000 0.07048030 28058.62095158 0 15.41321458 0 12223.49724467 0 608.95551372 0 4893.71337348 0 5475
0.07150000 0.07148790 27311.85066106 0 -297.03001811 0 11537.28488948 0 231.76276055 0 2008.03902508 0 5509
0.07250000 0.07249820 28007.93418153 0 -35.84708127 0 12247.01058220 0 592.04587486 0 5066.38112757 0 5916
0.07350000 0.07351270 27827.92405506 0 375.39376103 0 11307.58620068 0 -620.40939281 0 1934.94803719 0 5721
0.07450000 0.07449140 27839.34798792 0 32.83127391 0 11980.60003150 0 235.20435896 0 2082.97115166 0 6028
0.07550000 0.07549160 27411.00596178 0 649.90975846 0 12122.34552850 0 -1274.78890364 0 -413.41216593 0 6183
0.07650000 0.07648840 26784.57515814 0 348.29796688 0 12058.57114605 0 -230.93535726 0 -393.47795765 0 6330
0.07750000 0.07749960 26448.62280258 0 508.67667476 0 12456.96694043 0 187.58874134 0 253.23309960 0 6583
0.07850000 0.07848650 26024.38451931 0 172.85741356 0 10768.48748182 0 1523.67536316 0 182.81398106 0 6549
0.07950000 0.07947320 25758.41761649 0 -256.67580713 0 11354.72378771 0 2551.67404350 0 942.83159722 0 6828
0.08050000 0.08048110 25971.81224577 0 -265.83048110 0 9003.02402519 0 1695.32272713 0 303.84001304 0 7147
0.08150000 0.08149960 25922.90006723 0 387.95786893 0 8509.76522331 0 -88.19830725 0 2719.58367410 0 7386
0.08250000 0.08250610 24748.56413436 0 1012.67064616 0 8288.66221215 0 -349.86958949 0 1568.69453157 0 7227
0.08350000 0.08350160 24166.05447063 0 776.83852545 0 9638.82689025 0 -325.16616653 0 3557.87852184 0 7798
0.08450000 0.08449610 22971.86529522 0 497.68751682 0 8911.87656867 0 927.37601427 0 3294.22967918 0 7371
0.08550000 0.08548940 22645.22954509 0 280.01168551 0 9888.67828390 0 455.06626519 0 2440.32951734 0 8256
0.08650000 0.08650700 22080.35488452 0 367.46244609 0 8694.17855497 0 987.79974612 0 3057.03334125 0 8037
0.08750000 0.08749060 21702.03415662 0 386.51157685 0 9653.62254698 0 375.39819751 0 4085.99695573 0 8155
0.08850000 0.08849210 21240.86218751 0 116.11041349 0 8140.97183359 0 1159.51809375 0 5470.56652676 0 8718
0.08950000 0.08949900 21195.49919199 0 -221.75961002 0 7562.84319266 0 1182.75415136 0 3804.03654691 0 8571
0.09050000 0.09049190 20811.30012971 0 423.19571076 0 7382.78870140 0 -747.11522675 0 2977.17672322 0 8932
0.09150000 0.09150830 20442.96147906 0 560.83524664 0 7301.81187248 0 -1161.66978596 0 1423.72149626 0 9285
0.09250000 0.09250820 19925.77896536 0 527.53836429 0 9373.72510079 0 -825.84054269 0 2574.31117647 0 9204
0.09350000 0.09350330 19392.29239215 0 307.90826408 0 7923.39582305 0 -567.60420414 0 -519.35527918 0 9349
0.09450000 0.09448040 19074.75142352 0 197.70169472 0 9655.23077053 0 -3.10844104 0 -1427.54795921 0 9564
0.09550000 0.09549270 18416.04523677 0 535.69704876 0 7996.58663171 0 -190.49574406 0 -1579.08698311 0 10155
0.09650000 0.09649430 18137.76710534 0 304.86816699 0 8910.87836094 0 924.44128356 0 -1416.80058936 0 9913
0.09750000 0.09749140 17872.68749827 0 -32.55965050 0 7589.21805900 0 1019.92650720 0 -801.41994525 0 10476
0.09850000 0.09850240 17130.35368653 0 337.26666240 0 7782.62635139 0 519.04028918 0 -968.24929326 0 10575
0.09950000 0.09950330 17159.96718238 0 270.06953657 0 6622.23205307 0 526.45697258 0 -427.57562443 0 10882
0.10050000 0.10051200 16789.07755643 0 135.03532284 0 7101.06120772 0 770.52874351 0 42.67504394 0 10875
0.10150000 0.10150300 16606.07280679 0 -35.16231077 0 5719.10915917 0 266.98729294 0 -543.59065363 0 11118
0.10250000 0.10250800 16271.56230683 0 239.42677764 0 6527.62414310 0 -324.16352233 0 633.64008165 0 11575
0.10350000 0.10349800 15915.97853267 0 485.82548168 0 6017.19616835 0 -38.14673005 0 -148.56547400 0 11364
0.10450000 0.10450100 15929.73161688 0 22.05883796 0 5752.91512747 0 151.23290687 0 -49.19090032 0 12093
0.10550000 0.10551000 15830.57631617 0 -199.48515919 0 6221.68456648 0 1118.36975308 0 570.87388900 0 12067
0.10650000 0.10649700 15740.95944483 0 136.84540619 0 5320.70227359 0 481.21376199 0 423.23120259 0 12054
0.10750000 0.10749900 15668.64484072 0 207.42201973 0 5676.65205725 0 488.37756610 0 1706.25864732 0 12807
0.10850000 0.10850100 15112.42131377 0 386.74560111 0 4770.49017538 0 -36.82532484 0 1258.01901385 0 12736
0.10950000 0.10950300 15176.75025607 0 -28.19459903 0 5499.21508847 0 469.97394301 0 1799.02541859 0 12933
0.11050000 0.11050200 14637.71808439 0 269.10349332 0 4957.39902636 0 -126.08029043 0 1543.15150500 0 13428
0.11150000 0.11150900 14625.73959168 0 382.55978338 0 5288.34925209 0 -307.23391930 0 1315.88178833 0 13453
0.11250000 0.11250000 13983.44837641 0 205.07290421 0 5550.23459444 0 -567.14946507 0 774.16000139 0 13668
0.11350000 0.11349100 14176.32429134 0 20.86254146 0 5425.51408475 0 -70.67111054 0 -173.44857436 0 13791
0.11450000 0.11448600 14239.43320198 0 -133.86741981 0 5866.36698105 0 21.82536827 0 188.94630385 0 14205
0.11550000 0.11549300 14141.49793292 0 -64.59868021 0 5018.11223845 0 236.91683977 0 -639.58274498 0 14776
0.11650000 0.11649800 14582.48392358 0 -135.23163703 0 5181.95139977 0 476.82275712 0 -322.41776793 0 14553
0.11750000 0.11747300 14537.78639988 0 57.15260514 0 4673.30910772 0 468.49215909 0 -107.76606238 0 14568
0.11850000 0.11849100 14467.69003517 0 134.61053000 0 5095.45115477 0 -41.74715440 0 -326.49711016 0 16015
0.11950000 0.11950300 14351.89793903 0 333.58771237 0 4990.58388763 0 -222.84543820 0 86.70776129 0 15270
0.12050000 0.12050700 13766.83730001 0 221.09968380 0 5146.54829911 0 -46.36807979 0 260.36141188 0 15999
0.12150000 0.12150000 13663.80008036 0 151.90392428 0 5518.23649124 0 30.16140098 0 -145.76494677 0 15670
0.12250000 0.12250700 13453.62189819 0 104.60185480 0 5119.46359616 0 155.27675728 0 61.20022655 0 16887
0.12350000 0.12352200 13561.65015647 0 64.90479725 0 5497.18539943 0 101.95161329 0 -839.48160581 0 16407
0.12450000 0.12449800 13128.98256352 0 137.79259441 0 4778.39819881 0 40.98552191 0 -292.74770697 0 16306
0.12550000 0.12549900 13053.67333624 0 336.56569875 0 5703.50384506 0 -530.91452464 0 -900.63624755 0 17523
0.12650000 0.12650100 12804.89778869 0 186.18681405 0 4899.38097512 0 101.30056003 0 -865.09672517 0 17154
0.12750000 0.12750600 12556.01132917 0 -14.53168624 0 5172.15787286 0 689.25023403 0 -878.98290375 0 18007
0.12850000 0.12850300 12844.82609771 0 -203.63437597 0 4407.09819857 0 466.45692445 0 -852.97071954 0 17496
0.12950000 0.12949900 12771.51328588 0 44.17335373 0 4236.62650148 0 364.70739277 0 -1286.19065410 0 18405
0.13050000 0.13049000 12971.37665489 0 -14.86009658 0 3822.05974195 0 208.73965392 0 -1018.90057149 0 18100
0.13150000 0.13148800 12504.32635140 0 315.03435812 0 4098.35254913 0 -657.23882140 0 -1106.65966734 0 19059
0.13250000 0.13249300 12380.43768148 0 320.25276628 0 4127.69985625 0 -409.19972933 0 -1786.71418998 0 18957
0.13350000 0.13349100 12027.95944247 0 68.20387378 0 4385.89183001 0 433.47170473 0 -1171.87368716 0 19468
0.13450000 0.13450700 11948.21373641 0 -100.30590149 0 3721.70659196 0 638.32278500 0 -756.95977316 0 19953
0.13550000 0.13551000 11927.91684600 0 167.60129532 0 3757.73079965 0 578.44363092 0 -1278.52663701 0 19956
0.13650000 0.13649900 11940.89354643 0 141.42274317 0 3528.26502599 0 -5.24161095 0 -252.39793247 0 19723
0.13750000 0.13749600 11312.02267946 0 271.15203739 0 3071.17461736 0 114.60533807 0 -556.99103778 0 20946
0.13850000 0.13851100 11257.67581442 0 203.29276710 0 3779.28099532 0 -180.60239639 0 310.46367585 0 20955
0.13950000 0.13949800 11078.18697420 0 -22.59310092 0 3171.88268565 0 258.25186622 0 -645.49324383 0 20506
0.14050000 0.14048300 11061.71654673 0 38.21693732 0 3462.69386963 0 385.71966539 0 268.14854126 0 21447
0.14150000 0.14148400 11181.92293926 0 -33.73553920 0 2973.99354970 0 -27.53190001 0 -454.10133105 0 21771
0.14250000 0.14249400 10979.81914847 0 2.60419086 0 3136.79013850 0 371.18797915 0 450.50889236 0 22470
0.14350000 0.14350900 11188.13400955 0 47.29275288 0 2769.28332762 0 47.49183986 0 -165.34534586 0 22519
0.14450000 0.14449900 10873.01092186 0 219.00788406 0 3239.55007823 0 -369.41116940 0 -44.28149290 0 22218
0.14550000 0.14550500 10752.20560470 0 325.68523455 0 3553.75259657 0 -339.01907152 0 266.36174943 0 23559
0.14650000 0.14650700 10268.67378254 0 271.58570319 0 3855.51079194 0 25.91613444 0 281.52008830 0 23044
0.14750000 0.14750500 10227.50325947 0 108.27647926 0 3998.75360053 0 274.33964739 0 870.98836898 0 23649
0.14850000 0.14849900 10095.46255980 0 24.53760957 0 3844.54159816 0 141.44825292 0 213.06522073 0 23640
0.14950000 0.14949500 9954.34926103 0 190.88060860 0 4034.38961633 0 471.39139798 0 1732.60024007 0 24457
0.15050000 0.15050000 9684.02351781 0 -8.26573671 0 3382.34923894 0 377.67854760 0 1146.34175178 0 24591
0.15150000 0.15149900 9803.19842902 0 -31.64562496 0 3374.51885389 0 447.79376735 0 2018.56457099 0 25020
0.15250000 0.15250500 9700.01702381 0 85.95910550 0 2910.24134964 0 298.56393065 0 1317.26818795 0 25297
0.15350000 0.15350100 9611.14326266 0 104.27244625 0 2839.03586523 0 -71.79198690 0 1791.87159656 0 25452
0.15450000 0.15450400 9506.45345467 0 106.89795439 0 2890.89830216 0 -253.85753399 0 1348.21262744 0 26061
0.15550000 0.15549900 9327.10880002 0 184.73164901 0 2977.91983342 0 -385.96921732 0 791.67965609 0 26128
0.15650000 0.15649500 9191.05308705 0 198.39156717 0 3318.46394451 0 -441.31207185 0 475.96429848 0 26331
0.15750000 0.15749700 9010.36639757 0 35.27998837 0 3329.07821999 0 -178.01149278 0 -367.12749194 0 27345
0.15850000 0.15849900 9173.72863742 0 -104.88523488 0 3333.28178364 0 222.60808659 0 -155.75146050 0 26980
0.15950000 0.15949700 9205.34963992 0 -94.95683902 0 2987.60244835 0 188.98290480 0 -721.59105521 0 27777
0.16050000 0.16050000 9282.55546188 0 31.29170486 0 2728.91137073 0 83.93163470 0 -599.17973273 0 28224
0.16150000 0.16150500 9205.66019343 0 40.04254834 0 2786.16412938 0 9.58930470 0 -966.86733012 0 28075
0.16250000 0.16249700 9058.60201310 0 208.80065551 0 2622.32496806 0 57.50985259 0 -815.33939742 0 28590
0.16350000 0.16349900 8892.51133880 0 158.21148799 0 2421.41902654 0 38.06576431 0 -683.96638780 0 29163
0.16450000 0.16449100 8697.22863413 0 238.45518879 0 2874.86043137 0 2.03272803 0 -813.68680907 0 28996
0.16550000 0.16550500 8330.37620387 0 145.80487508 0 2630.87628091 0 196.95969365 0 -424.90708245 0 30777
0.16650000 0.16650700 8141.19365753 0 55.70830947 0 2395.59872004 0 462.58942408 0 -336.25958172 0 29211
0.16750000 0.16749900 8347.85593026 0 -96.20825878 0 2107.08341383 0 417.99837587 0 143.29604633 0 30922
0.16850000 0.16850800 8113.72076268 0 86.36415601 0 1964.60589783 0 200.74179181 0 100.09461419 0 30867
0.16950000 0.16949900 8103.99378296 0 179.50769525 0 1798.60395311 0 -180.70221716 0 268.11970415 0 30852
0.17050000 0.17049200 7922.60834807 0 68.47427716 0 1819.04502908 0 -138.40150112 0 -159.11431142 0 31257
0.17150000 0.17149500 7962.95812257 0 25.72503311 0 2167.23097488 0 -65.94382058 0 -295.62919994 0 32608
0.17250000 0.17250900 7841.39860401 0 53.21456475 0 1952.16157486 0 16.55272415 0 -32.01440726 0 32361
0.17350000 0.17350400 7808.65739062 0 31.44942168 0 2042.55482998 0 24.91204838 0 -188.88973875 0 32508
0.17450000 0.17449800 7960.48478565 0 -17.80148201 0 1871.16256354 0 86.20277910 0 -442.95578724 0 32791
0.17550000 0.17549800 8014.68746513 0 -69.48856712 0 1859.18407084 0 179.14723135 0 -393.92715113 0 33633
0.17650000 0.17650100 7986.70437523 0 82.16258878 0 1890.16178392 0 -117.49459487 0 -470.17469367 0 33984
0.17750000 0.17750300 7944.75746838 0 116.24794433 0 1982.14108021 0 -375.05880688 0 -409.10434503 0 34069
0.17850000 0.17849800 7776.59274025 0 215.85354765 0 2283.54435728 0 -189.74708827 0 -846.51231556 0 34536
