### header ###
fiducial parameters:
Omega_m = 0.31
Omega_nu = 0
Omega_de = 0.69
Omega_k = 0
H_0 = 100
w_de = -1
zeff = 0
beta = 0
fgrowth = 0
b_1 = 2
gamma = 0.55
Lx = 3500 Ly = 3500 Lz = 3500
nx = 700 ny = 700 nz = 700
xoffset = 1379.75464 yoffset = 22.6059522 zoffset = 368.141391
bins = 400 dk = 0.001
kx_ny = 0.628318531 ky_ny = 0.628318531 kz_ny = 0.628318531
############################
A(data) = 3.32637514 (not used)
A(ran) = 3.32809832 (used)
Ngal = 187071
weighted Ngal = 0
Nran = 9399747
weighted Nran = 0
SN(data) = 6616.83404
SN(ran) = 132.376385
SN(data+ran) = 6749.21043
############################
13 columns: k_central k_mean P_0(k) sigma^{lin}_{P_0(k)} P^img_1(k) sigma^{lin}_{P_1(k)} P_2(k) sigma^{lin}_{P_2(k)} P^img_3(k) sigma^{lin}_{P_3(k)} P_4(k) sigma^{lin}_{P_4(k)} N_modes
### header ###
0.00050000 0 0 0 0 0 0 0 0 0 0 0 0
0.00150000 0.00179520 44494.88753309 0 -65074.38164658 0 -102234.88246175 0 125156.39372283 0 104550.83529651 0 3
0.00250000 0.00253879 69564.09817122 0 -58328.38292676 0 -22064.60538486 0 -133376.07978116 0 -75130.76991953 0 6
0.00350000 0.00331552 111195.90412410 0 -33291.66949569 0 -126645.94147297 0 2244.09296973 0 -8985.63302838 0 7
0.00450000 0.00420575 138333.84481701 0 -13265.29337401 0 -67491.81893342 0 -87182.35361150 0 -16745.37824046 0 24
0.00550000 0.00557378 115932.95434069 0 29363.05662466 0 -34591.33595409 0 -101782.69436217 0 12669.14153805 0 45
0.00650000 0.00659388 85858.17560786 0 26954.49229539 0 48867.03737008 0 -1834.87216713 0 -50776.38692472 0 40
0.00750000 0.00754703 51923.77124901 0 15107.65209908 0 25446.42224634 0 -7045.12830151 0 -10166.06911957 0 57
0.00850000 0.00846663 52230.55375660 0 -2032.92767103 0 30956.52889021 0 29330.00485776 0 -11361.48941785 0 75
0.00950000 0.00948925 60805.71267712 0 -17942.22930314 0 -1595.70159614 0 32809.75698829 0 -10403.45400786 0 112
0.01050000 0.01054430 79759.68096588 0 -6447.59006593 0 -13963.37330993 0 -14183.42265739 0 -33345.79453680 0 105
0.01150000 0.01145670 82633.52100713 0 3192.41249120 0 -8302.31547559 0 -26915.00763425 0 -20723.45784988 0 144
0.01250000 0.01249090 77792.43536317 0 5110.79028015 0 6236.65768236 0 -23769.87691564 0 -14561.29973741 0 169
0.01350000 0.01339930 75554.23181902 0 2500.26634564 0 22821.57957657 0 -11380.78810054 0 -15120.85062345 0 180
0.01450000 0.01448870 75716.82876628 0 1192.40349271 0 21896.46283912 0 6516.48858137 0 -16094.54680354 0 267
0.01550000 0.01550050 74716.51371352 0 2030.80925242 0 25600.58988392 0 14899.91398024 0 -29739.71367303 0 238
0.01650000 0.01653350 70274.93298363 0 895.04517517 0 27787.99574605 0 -1635.87391148 0 4267.13838428 0 315
0.01750000 0.01747870 66805.38475429 0 5804.22300455 0 26012.07329070 0 49.57088473 0 -3617.71552937 0 297
0.01850000 0.01844180 61097.18933292 0 5287.51741232 0 30354.72054380 0 8847.62526475 0 20602.12015526 0 388
0.01950000 0.01947590 56074.65170688 0 -1458.80295221 0 22236.74076149 0 7296.77646907 0 5179.52242764 0 399
0.02050000 0.02045430 57548.11722146 0 1349.59902705 0 12919.80258908 0 9575.80670919 0 -2440.38497332 0 462
0.02150000 0.02154770 54224.75096789 0 -637.73384245 0 12990.34260167 0 3802.70560327 0 11932.13150084 0 571
0.02250000 0.02255340 56476.59668429 0 -2695.27177039 0 -4562.57459739 0 7134.97808799 0 5963.37058956 0 510
0.02350000 0.02348930 59893.90537601 0 -4653.97715144 0 -2454.40424626 0 8976.39406132 0 10650.66569664 0 555
0.02450000 0.02439640 60952.89286062 0 1290.56058570 0 -10137.34291948 0 -595.38543426 0 -980.07472745 0 592
0.02550000 0.02547300 59288.76967051 0 1852.29643753 0 -11431.47487059 0 -4579.65504069 0 12603.92529999 0 837
0.02650000 0.02652900 56544.14207370 0 1742.83741485 0 -4757.65766052 0 -1297.20421267 0 5197.36816353 0 723
0.02750000 0.02749970 59145.91505382 0 67.19257844 0 236.36338904 0 -1208.24172195 0 13008.86490057 0 826
0.02850000 0.02848090 53573.69770703 0 1536.69642837 0 2650.55206429 0 -746.51408387 0 -1912.27763063 0 831
0.02950000 0.02946900 57434.54336471 0 -996.50411749 0 5292.75245728 0 -3146.81658054 0 5746.27150050 0 996
0.03050000 0.03053250 55531.73761627 0 -2287.89210648 0 71.65334694 0 704.91544060 0 2831.18329779 0 1041
0.03150000 0.03150510 59441.16271658 0 346.21725834 0 8395.13770285 0 2054.04531002 0 5147.62414522 0 1036
0.03250000 0.03246190 62205.97629183 0 395.27805892 0 -1156.20182587 0 -362.51244489 0 2223.31915785 0 1059
0.03350000 0.03345080 56767.29695630 0 2216.45370694 0 6831.35657153 0 131.66359897 0 826.62801767 0 1302
0.03450000 0.03451200 54631.13242407 0 2161.53009965 0 7171.57903792 0 -1258.57357370 0 8599.52628021 0 1339
0.03550000 0.03553350 52681.30000058 0 913.98893955 0 5982.22562437 0 385.47676817 0 5714.71704518 0 1365
0.03650000 0.03647120 50213.28685566 0 1774.34750538 0 12703.41333662 0 2212.08377534 0 10991.39835808 0 1308
0.03750000 0.03744890 49598.83454473 0 1838.65426529 0 5859.77881006 0 -1560.37613386 0 8337.92930899 0 1579
0.03850000 0.03847530 47041.98091225 0 9.38490503 0 14859.98567123 0 2340.16491770 0 11961.52317275 0 1662
0.03950000 0.03950240 48254.35965066 0 208.17843936 0 10965.71114595 0 795.96529459 0 11896.75058257 0 1683
0.04050000 0.04050350 49246.35630571 0 -1397.63500104 0 10836.27687756 0 1134.56290062 0 6504.39917669 0 1822
0.04150000 0.04152450 49255.78382312 0 913.51867280 0 14757.05936355 0 -3577.80940275 0 9972.41682086 0 1887
0.04250000 0.04250150 48985.26952955 0 1489.45902057 0 15160.44619656 0 -6276.95200088 0 -3582.86698856 0 1920
0.04350000 0.04349210 47293.41834707 0 2399.82446608 0 24042.27671269 0 -6661.28415753 0 1016.83206326 0 2005
0.04450000 0.04448520 45928.75747456 0 916.73401080 0 21874.83500507 0 -333.49898280 0 -7562.31081521 0 2151
0.04550000 0.04548030 45499.63906463 0 -185.68660107 0 24389.54208914 0 3058.86338874 0 -3347.56724531 0 2274
0.04650000 0.04648670 45190.30558175 0 926.24471218 0 22046.41582186 0 3094.16666863 0 -6877.04121176 0 2311
0.04750000 0.04749250 43016.32006793 0 2100.30669249 0 22400.11409254 0 1591.62003566 0 -909.26519877 0 2568
0.04850000 0.04851840 39892.81718337 0 1394.52946589 0 20053.77137814 0 3414.19206537 0 3708.39715562 0 2493
0.04950000 0.04949480 39333.59903324 0 119.26474990 0 19208.40034675 0 4718.79410641 0 2064.64849431 0 2644
0.05050000 0.05050630 37855.47521595 0 430.90963823 0 17075.67408558 0 2031.88509852 0 5113.30798186 0 2829
0.05150000 0.05149060 36365.04017005 0 2096.41368237 0 16625.81513736 0 -1130.18187783 0 6129.06198077 0 2784
0.05250000 0.05249300 34218.00626481 0 1430.02129613 0 18487.02889724 0 -1129.81586833 0 6694.46901880 0 3055
0.05350000 0.05348950 33051.76690570 0 813.81103048 0 17490.70667538 0 39.88006231 0 3106.36698527 0 3009
0.05450000 0.05448610 32911.68508825 0 337.63599926 0 18762.42331746 0 1055.27304276 0 4288.23384088 0 3336
0.05550000 0.05550870 31803.00904130 0 1129.51640601 0 21949.25693659 0 -2619.74071917 0 2018.46475021 0 3349
0.05650000 0.05647670 32150.71806563 0 430.59243000 0 20079.50295506 0 946.67913344 0 2571.74910998 0 3324
0.05750000 0.05747970 30771.19498921 0 -970.28785526 0 20941.84351779 0 1932.31942352 0 2099.86304462 0 3639
0.05850000 0.05849280 33452.71367538 0 -775.95012057 0 16697.57518161 0 2422.49487264 0 -843.51658326 0 3846
0.05950000 0.05951020 34181.29440291 0 -1031.37816805 0 16502.48102729 0 3217.21240757 0 1817.00424885 0 3787
0.06050000 0.06049470 34788.75925976 0 -251.83782703 0 14579.60021238 0 958.92492399 0 -728.62952880 0 3930
0.06150000 0.06148310 33894.80878574 0 793.25349693 0 13159.03970725 0 -296.05842926 0 -157.56376209 0 4083
0.06250000 0.06249100 33316.07012898 0 1156.75638571 0 14055.09750870 0 -238.33207650 0 -1991.39113846 0 4303
0.06350000 0.06350600 31436.11224626 0 1277.73916203 0 12753.76737076 0 82.39849854 0 772.13696706 0 4470
0.06450000 0.06451750 30485.48575582 0 921.83596139 0 15412.54910319 0 1159.54027615 0 874.28800008 0 4479
0.06550000 0.06550280 29255.36110230 0 34.89168557 0 12325.53625659 0 1987.02120686 0 1064.94456650 0 4636
0.06650000 0.06648880 29379.02794827 0 -249.26688757 0 13667.68199929 0 1872.88169907 0 4895.69869773 0 4653
0.06750000 0.06749660 29298.28403449 0 211.96053752 0 10374.53925741 0 941.27550229 0 2032.88330625 0 5220
0.06850000 0.06852730 28993.16520644 0 599.70434635 0 12057.12929044 0 -887.96899151 0 4522.73501796 0 5029
0.06950000 0.06949320 28316.15854472 0 739.16394766 0 10451.54543782 0 -507.73946861 0 2004.24583573 0 5040
0.07050000 0.07048030 28082.35611305 0 165.71357360 0 12902.38940987 0 725.33544330 0 5475.39119743 0 5475
0.07150000 0.07148790 27130.62050293 0 184.91354464 0 11641.65305276 0 899.56483792 0 1144.48952189 0 5509
0.07250000 0.07249820 27844.11720260 0 -39.73554401 0 11036.32879692 0 1594.57029405 0 4300.52288710 0 5916
0.07350000 0.07351270 27275.02788719 0 -467.80561400 0 10587.66769797 0 2238.66937442 0 4650.79397792 0 5721
0.07450000 0.07449140 27486.98066087 0 -122.04309474 0 8301.61673018 0 1560.87523772 0 4051.24823569 0 6028
0.07550000 0.07549160 27725.88504314 0 515.80055056 0 7780.45247678 0 355.21221906 0 5982.63599866 0 6183
0.07650000 0.07648840 26526.03935728 0 604.29277453 0 6980.71062964 0 33.35134014 0 2865.49946115 0 6330
0.07750000 0.07749960 26025.27181507 0 382.84704538 0 7809.81087511 0 -493.60151986 0 4294.79982947 0 6583
0.07850000 0.07848650 25435.22013742 0 566.36088096 0 7497.91532573 0 12.72537391 0 2197.06629467 0 6549
0.07950000 0.07947320 24555.91004336 0 452.98333840 0 7616.20294118 0 -432.07643215 0 2507.75290358 0 6828
0.08050000 0.08048110 23972.84581980 0 637.03398792 0 7485.31572599 0 611.77267775 0 1336.25631712 0 7147
0.08150000 0.08149960 23395.88175455 0 226.08074035 0 7638.26333191 0 161.96363992 0 1713.75629645 0 7386
0.08250000 0.08250610 22883.69027948 0 489.14729517 0 7349.61493133 0 -319.04937141 0 1339.05129876 0 7227
0.08350000 0.08350160 22237.51714528 0 724.51247649 0 7904.13041395 0 295.04247562 0 2380.69215135 0 7798
0.08450000 0.08449610 21873.39314947 0 -424.90597333 0 7458.27538783 0 717.70026332 0 3477.03478728 0 7371
0.08550000 0.08548940 21977.09584093 0 -120.85633667 0 7946.97570776 0 821.77894636 0 868.04365620 0 8256
0.08650000 0.08650700 22501.15489674 0 240.86641500 0 6972.19259038 0 102.33769786 0 2052.27071851 0 8037
0.08750000 0.08749060 21818.49172457 0 74.59905794 0 7219.53737352 0 -93.47450055 0 2009.27014794 0 8155
0.08850000 0.08849210 22149.78577742 0 261.45500390 0 6972.01513123 0 504.88681276 0 2456.84430959 0 8718
0.08950000 0.08949900 21311.95675995 0 165.29876284 0 7006.88585443 0 -167.42383617 0 1408.17163814 0 8571
0.09050000 0.09049190 21076.60156071 0 632.08065936 0 7048.17838067 0 335.75825962 0 1827.89580425 0 8932
0.09150000 0.09150830 20677.98394239 0 316.90655216 0 7016.81247570 0 201.69452562 0 1813.33306266 0 9285
0.09250000 0.09250820 19894.16905406 0 251.50509112 0 6435.00155739 0 875.14424048 0 1507.20493569 0 9204
0.09350000 0.09350330 19480.13467198 0 220.87120515 0 6087.22598588 0 590.75375041 0 2679.40026755 0 9349
0.09450000 0.09448040 19479.46920016 0 38.95461283 0 5227.33657768 0 242.74082729 0 851.06857927 0 9564
0.09550000 0.09549270 19150.94794656 0 141.41497933 0 4771.08910002 0 449.41308210 0 1848.44779219 0 10155
0.09650000 0.09649430 18713.06749104 0 234.07638423 0 4133.72237619 0 -212.65706469 0 -587.04374503 0 9913
0.09750000 0.09749140 18687.11409018 0 224.29727588 0 4079.55297030 0 -135.26269238 0 508.50919768 0 10476
0.09850000 0.09850240 18178.69362208 0 278.97022212 0 3617.41606706 0 -148.83942657 0 -1837.61169278 0 10575
0.09950000 0.09950330 17901.41369837 0 355.10796181 0 4487.99738911 0 -363.86446180 0 -990.12224276 0 10882
0.10050000 0.10051200 16838.65520679 0 554.39015210 0 3814.97246710 0 -566.18009445 0 -2033.36022771 0 10875
0.10150000 0.10150300 16774.43717646 0 321.64692974 0 4665.75600260 0 -221.93152357 0 -2313.16894432 0 11118
0.10250000 0.10250800 16264.24211684 0 209.43839933 0 4471.08331377 0 155.11371668 0 -2428.73921652 0 11575
0.10350000 0.10349800 15885.81047697 0 85.11284717 0 4225.62403411 0 663.16595705 0 -2474.90077822 0 11364
0.10450000 0.10450100 15926.95881765 0 -67.83597877 0 3411.25289818 0 564.92124360 0 -2484.37266042 0 12093
0.10550000 0.10551000 16048.74016014 0 12.95030338 0 3374.26375636 0 350.44965909 0 -2520.34141212 0 12067
0.10650000 0.10649700 15938.05001460 0 219.53804327 0 2741.91025355 0 -127.63416712 0 -1788.62187586 0 12054
0.10750000 0.10749900 15487.52559456 0 218.78273276 0 3356.54002364 0 -245.95616528 0 -2436.38105122 0 12807
0.10850000 0.10850100 15244.40655745 0 136.05460384 0 3011.53725137 0 -136.29195546 0 -2217.67373860 0 12736
0.10950000 0.10950300 15384.26655097 0 144.25543487 0 3758.62918660 0 136.10451423 0 -1947.37017778 0 12933
0.11050000 0.11050200 15267.36533514 0 89.41201693 0 3332.28357591 0 -194.09594659 0 -2246.07829398 0 13428
0.11150000 0.11150900 15366.07698798 0 47.54496669 0 4004.17719584 0 182.14850924 0 -1212.32328243 0 13453
0.11250000 0.11250000 15213.68394191 0 -78.94126154 0 3582.87807976 0 311.84120252 0 -1641.66351629 0 13668
0.11350000 0.11349100 15480.87087639 0 -15.44238442 0 3892.54429855 0 615.16991137 0 236.03508961 0 13791
0.11450000 0.11448600 15207.58378359 0 -9.20255466 0 3002.35374029 0 766.10557416 0 -704.60710533 0 14205
0.11550000 0.11549300 15543.75796309 0 164.68874701 0 3359.75647075 0 78.81016360 0 1125.96722299 0 14776
0.11650000 0.11649800 15050.75425874 0 248.45833932 0 3247.29173370 0 -4.00744910 0 1032.84220605 0 14553
0.11750000 0.11747300 14545.66114972 0 251.73246066 0 3467.94000579 0 373.42618269 0 1456.86199274 0 14568
0.11850000 0.11849100 14556.41961076 0 71.01759953 0 3181.04401433 0 197.65732993 0 1685.89520972 0 16015
0.11950000 0.11950300 14223.79461428 0 197.77711486 0 3354.32178425 0 -217.92427412 0 242.73749993 0 15270
0.12050000 0.12050700 13984.44658414 0 399.19657880 0 3796.11743229 0 -574.85673783 0 796.82708059 0 15999
0.12150000 0.12150000 13454.84192986 0 359.91932305 0 4017.25371704 0 -1158.86371314 0 -598.94792672 0 15670
0.12250000 0.12250700 13369.88336123 0 62.02463522 0 3618.05935648 0 72.99172168 0 -763.03331261 0 16887
0.12350000 0.12352200 13132.30992260 0 103.17741238 0 4637.85055108 0 -52.22201353 0 -1788.49987269 0 16407
0.12450000 0.12449800 13104.47101826 0 168.97105815 0 3990.84557711 0 -365.71447345 0 -1825.43355853 0 16306
0.12550000 0.12549900 13164.14165785 0 22.99105307 0 4688.39313557 0 190.83846205 0 -1730.01599118 0 17523
0.12650000 0.12650100 12727.03758612 0 74.00057695 0 4424.50028658 0 -196.84101784 0 -1694.39106658 0 17154
0.12750000 0.12750600 13012.74681950 0 262.15485843 0 4776.82324884 0 -134.59611145 0 -1670.70026990 0 18007
0.12850000 0.12850300 12677.90358364 0 195.12742791 0 5202.05973984 0 -48.24947952 0 -1235.19333053 0 17496
0.12950000 0.12949900 12585.62482503 0 13.63463023 0 5305.34096582 0 699.49295441 0 182.76185243 0 18405
0.13050000 0.13049000 12654.16842217 0 -128.63126573 0 4856.44695173 0 742.21291770 0 135.21721847 0 18100
0.13150000 0.13148800 12624.99857419 0 -22.17108088 0 4277.51974463 0 836.24186719 0 1180.45827359 0 19059
0.13250000 0.13249300 12741.89979003 0 46.56228664 0 4299.64668254 0 435.59345071 0 1299.67754959 0 18957
0.13350000 0.13349100 12351.93330533 0 198.90952607 0 3698.55926393 0 317.60418845 0 2100.53960763 0 19468
0.13450000 0.13450700 12241.02133584 0 104.07313744 0 3690.73997008 0 -124.53195933 0 1254.78038434 0 19953
0.13550000 0.13551000 12108.37062034 0 -5.56459769 0 3393.04115279 0 23.94689242 0 1275.04400117 0 19956
0.13650000 0.13649900 12102.27046202 0 198.42594988 0 3196.41641330 0 -96.78566649 0 277.45627374 0 19723
0.13750000 0.13749600 11942.77904991 0 27.62506606 0 3050.07916076 0 61.34585397 0 272.90666475 0 20946
0.13850000 0.13851100 11693.22711857 0 53.71477773 0 2751.01612625 0 322.85254285 0 464.41503509 0 20955
0.13950000 0.13949800 11669.82469301 0 91.84830926 0 2539.21862933 0 553.35423430 0 15.39968331 0 20506
0.14050000 0.14048300 11546.82331886 0 52.46302524 0 2475.23351413 0 133.53024742 0 549.57768174 0 21447
0.14150000 0.14148400 11282.63100755 0 329.26103644 0 2293.95899121 0 -125.87066681 0 213.26153492 0 21771
0.14250000 0.14249400 11291.83670102 0 61.11537890 0 2244.65862078 0 223.88357424 0 1015.70519765 0 22470
0.14350000 0.14350900 10928.37817702 0 -27.32194365 0 2546.68300487 0 18.88864114 0 832.55071684 0 22519
0.14450000 0.14449900 11307.14255280 0 -16.62315325 0 1857.99731277 0 416.68295991 0 1202.52975552 0 22218
0.14550000 0.14550500 11131.01434527 0 20.57328304 0 2107.40505854 0 52.68218730 0 699.53842832 0 23559
0.14650000 0.14650700 11073.47321550 0 152.84334866 0 1897.42651792 0 -320.27051220 0 684.34459762 0 23044
0.14750000 0.14750500 10781.81910055 0 275.80812187 0 2296.31032496 0 -400.46208437 0 470.33884338 0 23649
0.14850000 0.14849900 10502.55385259 0 289.56564257 0 2686.54299839 0 -335.74827754 0 34.06084400 0 23640
0.14950000 0.14949500 10479.38434216 0 66.61195428 0 2706.46278811 0 137.27241727 0 184.95790943 0 24457
0.15050000 0.15050000 10303.73305610 0 50.95506611 0 2653.80178500 0 322.83590605 0 373.63802455 0 24591
0.15150000 0.15149900 9946.40796401 0 220.72591047 0 2421.81830963 0 110.35652234 0 306.92780227 0 25020
0.15250000 0.15250500 9975.07870813 0 175.17880108 0 2680.32083690 0 -94.46505535 0 605.54275242 0 25297
0.15350000 0.15350100 9607.28352613 0 176.11489810 0 2889.17916663 0 -143.35704791 0 661.43129385 0 25452
0.15450000 0.15450400 9443.95455987 0 262.27131600 0 3013.85531153 0 -159.23409635 0 759.27894244 0 26061
0.15550000 0.15549900 9348.74772526 0 -8.70680034 0 2910.48535597 0 75.58195981 0 913.04286045 0 26128
0.15650000 0.15649500 9366.60455235 0 -137.04615685 0 2855.35101594 0 478.94006662 0 590.24244623 0 26331
0.15750000 0.15749700 9536.61041917 0 -13.71759239 0 2517.45770091 0 300.11115262 0 779.40281018 0 27345
0.15850000 0.15849900 9387.94401528 0 114.28036600 0 2571.36091808 0 29.71686581 0 733.20464754 0 26980
0.15950000 0.15949700 9227.83149613 0 192.08400347 0 2421.87376561 0 -158.04955651 0 584.21327157 0 27777
0.16050000 0.16050000 9091.11031135 0 117.25724326 0 2667.07794775 0 -92.48183843 0 948.81973445 0 28224
0.16150000 0.16150500 8849.55513302 0 76.98543987 0 2512.82158059 0 317.81381207 0 787.46721949 0 28075
0.16250000 0.16249700 8882.82872386 0 13.21039195 0 2543.46655776 0 361.27466731 0 1109.78516664 0 28590
0.16350000 0.16349900 8964.09392390 0 26.20727836 0 2213.15962144 0 226.02084789 0 1069.95778752 0 29163
0.16450000 0.16449100 8860.13613491 0 78.36585025 0 2427.60791444 0 -90.00872333 0 1699.27119324 0 28996
0.16550000 0.16550500 8656.34648218 0 82.42811204 0 2315.19863337 0 -102.25850671 0 1219.18873334 0 30777
0.16650000 0.16650700 8823.55736737 0 81.87044666 0 2791.73191025 0 -194.51186648 0 1402.73695163 0 29211
0.16750000 0.16749900 8603.72984386 0 153.99794227 0 2580.87716506 0 -190.49019847 0 811.87118013 0 30922
0.16850000 0.16850800 8343.07562438 0 262.26577040 0 3038.26703601 0 -374.54528446 0 1141.86090821 0 30867
0.16950000 0.16949900 8228.38155674 0 162.85426303 0 3232.06352029 0 156.78737830 0 1098.25475829 0 30852
0.17050000 0.17049200 8003.52972100 0 -59.88980163 0 3019.07926529 0 519.64475942 0 809.60746683 0 31257
0.17150000 0.17149500 8180.32340036 0 -7.46778054 0 3044.69993024 0 96.59467608 0 850.90221131 0 32608
0.17250000 0.17250900 8092.82494763 0 85.30450306 0 2272.23133639 0 -105.99135996 0 510.34479078 0 32361
0.17350000 0.17350400 7946.79824861 0 70.79045182 0 2867.77315652 0 -112.19411185 0 461.08545777 0 32508
0.17450000 0.17449800 7797.36655213 0 171.47545042 0 2466.31619179 0 -244.40450683 0 -315.62330068 0 32791
0.17550000 0.17549800 7834.06732283 0 82.28825205 0 2951.55605827 0 -130.75522994 0 -282.83772250 0 33633
0.17650000 0.17650100 7666.21314822 0 -6.90184113 0 2298.35110520 0 199.26111701 0 -725.83787452 0 33984
0.17750000 0.17750300 7728.21293916 0 38.20972805 0 2705.66422193 0 73.36538410 0 -311.03154514 0 34069
0.17850000 0.17849800 7754.14415762 0 -4.80631474 0 2193.68347960 0 191.27767345 0 -564.11380446 0 34536
