### header ###
fiducial parameters:
Omega_m = 0.31
Omega_nu = 0
Omega_de = 0.69
Omega_k = 0
H_0 = 100
w_de = -1
zeff = 0
beta = 0
fgrowth = 0
b_1 = 2
gamma = 0.55
Lx = 3500 Ly = 3500 Lz = 3500
nx = 700 ny = 700 nz = 700
xoffset = 1379.75464 yoffset = 22.6059522 zoffset = 368.141391
bins = 400 dk = 0.001
kx_ny = 0.628318531 ky_ny = 0.628318531 kz_ny = 0.628318531
############################
A(data) = 3.33080206 (not used)
A(ran) = 3.33249879 (used)
Ngal = 187501
weighted Ngal = 0
Nran = 9399747
weighted Nran = 0
SN(data) = 6613.38367
SN(ran) = 132.551415
SN(data+ran) = 6745.93508
############################
13 columns: k_central k_mean P_0(k) sigma^{lin}_{P_0(k)} P^img_1(k) sigma^{lin}_{P_1(k)} P_2(k) sigma^{lin}_{P_2(k)} P^img_3(k) sigma^{lin}_{P_3(k)} P_4(k) sigma^{lin}_{P_4(k)} N_modes
### header ###
0.00050000 0 0 0 0 0 0 0 0 0 0 0 0
0.00150000 0.00179520 25278.27970060 0 -17372.69633985 0 -21221.00894497 0 4796.96486250 0 -8404.17702836 0 3
0.00250000 0.00253879 39622.30288980 0 -9832.57900974 0 -4011.73030096 0 -33451.93729160 0 29366.05124784 0 6
0.00350000 0.00331552 42027.20712408 0 -92.69212752 0 -21106.21505656 0 -13401.71509648 0 3694.03405558 0 7
0.00450000 0.00420575 36300.04575593 0 5210.41141114 0 2708.54793313 0 -25706.17807886 0 -1299.41136086 0 24
0.00550000 0.00557378 38522.38888844 0 -2461.15878520 0 9823.20694831 0 -1124.70282653 0 -14162.79303106 0 45
0.00650000 0.00659388 34451.36504860 0 -7412.54638281 0 6084.51973383 0 2854.29735223 0 -12151.40446450 0 40
0.00750000 0.00754703 48292.40245619 0 -6680.08373635 0 9471.40527231 0 2790.09041310 0 -2633.85981289 0 57
0.00850000 0.00846663 50057.01189066 0 -2638.03010294 0 -4085.79731418 0 -6323.69030482 0 -8917.99890938 0 75
0.00950000 0.00948925 62344.83807762 0 -5467.81590991 0 -20967.13144683 0 13158.37423543 0 6681.72523350 0 112
0.01050000 0.01054430 61201.22476029 0 -9609.74577185 0 -16590.54513106 0 13043.91308293 0 6123.82693581 0 105
0.01150000 0.01145670 76986.88172882 0 -5783.95938773 0 -45463.14902667 0 -826.46608620 0 8327.71431660 0 144
0.01250000 0.01249090 79364.83435452 0 -4401.54150890 0 -41778.43157653 0 2666.90048859 0 13181.88757296 0 169
0.01350000 0.01339930 77508.61163326 0 18.72526781 0 -33407.46159183 0 -8688.73277727 0 16643.45014050 0 180
0.01450000 0.01448870 81939.98846196 0 -2292.31749406 0 -46156.79248381 0 982.19758255 0 27447.38508777 0 267
0.01550000 0.01550050 77119.75426826 0 -734.74077831 0 -17670.27315397 0 8019.17939990 0 3548.81701393 0 238
0.01650000 0.01653350 82900.37520570 0 -1437.77404279 0 -47037.32260953 0 5717.09056132 0 50091.39460120 0 315
0.01750000 0.01747870 81249.56145193 0 1837.44532482 0 -16459.77991904 0 -7461.62492931 0 22878.81015282 0 297
0.01850000 0.01844180 82947.73461667 0 3741.85929682 0 -36135.67421716 0 -8515.42173376 0 59305.96102578 0 388
0.01950000 0.01947590 70531.47236905 0 2429.93706580 0 877.98802338 0 -11069.35838143 0 22165.75710102 0 399
0.02050000 0.02045430 70598.57411058 0 7851.11449254 0 8910.41253067 0 -16337.33310473 0 31444.98520381 0 462
0.02150000 0.02154770 67253.80184691 0 2685.10114279 0 22346.21087537 0 -8734.97197735 0 18211.41265307 0 571
0.02250000 0.02255340 65824.03564831 0 -1227.61804302 0 29725.07329305 0 2132.29370449 0 22581.45516264 0 510
0.02350000 0.02348930 63545.68197121 0 382.52096419 0 27977.65521386 0 340.34557867 0 13745.09855399 0 555
0.02450000 0.02439640 72406.43921314 0 1349.86521578 0 32366.55275824 0 2437.26834698 0 6218.31284261 0 592
0.02550000 0.02547300 65927.18377993 0 2172.71002617 0 34592.66689772 0 -759.20352230 0 9920.12182725 0 837
0.02650000 0.02652900 68888.20062920 0 -46.82880811 0 39141.27767816 0 2260.74085635 0 2235.28655935 0 723
0.02750000 0.02749970 59321.26687757 0 2471.86179026 0 34192.94015971 0 -1140.05304311 0 1794.13420074 0 826
0.02850000 0.02848090 64079.16854442 0 3411.37490135 0 39070.73766556 0 -2790.65606414 0 -7408.64228149 0 831
0.02950000 0.02946900 58151.58924741 0 -92.69789494 0 31739.67830673 0 9231.93523900 0 5173.18935418 0 996
0.03050000 0.03053250 59422.30768177 0 -2014.16136580 0 28558.50119804 0 13117.00407082 0 359.66644376 0 1041
0.03150000 0.03150510 60107.41091726 0 -265.12508097 0 19522.61395629 0 2836.54034592 0 -7766.53302461 0 1036
0.03250000 0.03246190 60624.70434292 0 2088.01764628 0 12697.53500223 0 -3300.91767094 0 -7855.18496182 0 1059
0.03350000 0.03345080 54055.49930246 0 3931.95132131 0 19048.79802266 0 -8453.29993965 0 -11954.64663064 0 1302
0.03450000 0.03451200 51908.46539722 0 1047.06999350 0 18133.66336247 0 -541.21048276 0 -8701.52092735 0 1339
0.03550000 0.03553350 50974.14296631 0 611.98230137 0 19381.20119520 0 3043.56862815 0 -19081.96070154 0 1365
0.03650000 0.03647120 50495.11417011 0 1985.73462802 0 16959.43834156 0 348.57191945 0 -24783.61231671 0 1308
0.03750000 0.03744890 47469.99020248 0 1578.75424720 0 17866.80916389 0 1410.06823282 0 -17469.85522511 0 1579
0.03850000 0.03847530 44193.53971201 0 2166.84278299 0 17878.56583266 0 -2792.64138840 0 -13492.44108751 0 1662
0.03950000 0.03950240 40989.07108973 0 2840.05625535 0 19635.74416516 0 1550.46060379 0 -11345.51809425 0 1683
0.04050000 0.04050350 38428.33553832 0 1525.11721876 0 16791.40670779 0 4445.03009214 0 -8614.01138343 0 1822
0.04150000 0.04152450 37845.27131476 0 -445.06976938 0 16215.44085027 0 8191.29259414 0 2429.85942742 0 1887
0.04250000 0.04250150 35879.35665568 0 -166.60530584 0 14036.35338585 0 5295.28125019 0 1962.17692570 0 1920
0.04350000 0.04349210 38355.79911028 0 -444.93889325 0 7293.77075470 0 3017.12721463 0 5856.72873090 0 2005
0.04450000 0.04448520 36645.75836481 0 -856.57203119 0 9620.43768571 0 1631.80344220 0 5660.32581534 0 2151
0.04550000 0.04548030 38511.40860347 0 -95.03469923 0 6771.40865203 0 -1044.55229179 0 8458.15788391 0 2274
0.04650000 0.04648670 38167.13785019 0 -538.68390810 0 8459.65519550 0 258.34835963 0 5579.34898642 0 2311
0.04750000 0.04749250 40818.71030460 0 -793.29675260 0 6186.94693764 0 -122.32592026 0 1803.78354208 0 2568
0.04850000 0.04851840 40708.24198300 0 579.05919235 0 7151.85888974 0 -1386.18888579 0 1640.72076455 0 2493
0.04950000 0.04949480 39849.00695542 0 771.67002767 0 8829.45788415 0 -1939.52870153 0 229.12971039 0 2644
0.05050000 0.05050630 38821.62938211 0 1124.92465047 0 10564.17654283 0 -248.04241943 0 2230.67262142 0 2829
0.05150000 0.05149060 39413.23382733 0 857.82422733 0 12376.55576255 0 -162.20875537 0 2861.01861758 0 2784
0.05250000 0.05249300 37695.87289186 0 836.57903957 0 12077.86982874 0 -1108.03275752 0 -153.56205823 0 3055
0.05350000 0.05348950 36053.37753580 0 901.74647636 0 14371.75118157 0 286.33034042 0 1237.15647239 0 3009
0.05450000 0.05448610 36111.60631978 0 541.16168150 0 15746.50504330 0 -741.23800149 0 1645.53434403 0 3336
0.05550000 0.05550870 34203.25497287 0 662.94856959 0 14362.10184022 0 1217.14795310 0 2342.81571377 0 3349
0.05650000 0.05647670 34933.27755600 0 -141.81869890 0 15877.04843138 0 1056.37328950 0 1105.86221028 0 3324
0.05750000 0.05747970 34894.12563077 0 -123.57478904 0 12675.79625622 0 328.96379236 0 485.14780955 0 3639
0.05850000 0.05849280 35156.76517451 0 157.09904093 0 14397.70458243 0 1311.22348561 0 -1521.91186284 0 3846
0.05950000 0.05951020 34200.37126166 0 788.78707192 0 14709.92177652 0 -1930.47828482 0 -1252.11849708 0 3787
0.06050000 0.06049470 34024.02123018 0 634.50408589 0 13726.90899100 0 -711.97166010 0 -3012.53545909 0 3930
0.06150000 0.06148310 32529.14970550 0 1006.12129436 0 16384.69251570 0 -614.27596090 0 -3977.23667845 0 4083
0.06250000 0.06249100 32180.10973754 0 396.00231408 0 13718.14694541 0 -4.89539924 0 -5413.66868641 0 4303
0.06350000 0.06350600 31921.24120077 0 -549.67084780 0 14798.20770423 0 2674.07649302 0 -5075.22081154 0 4470
0.06450000 0.06451750 32030.60040268 0 491.03168953 0 12407.16746613 0 -289.35269158 0 -5324.22927422 0 4479
0.06550000 0.06550280 31423.24645780 0 478.83026377 0 11864.47519945 0 2063.84992813 0 -4548.11167657 0 4636
0.06650000 0.06648880 30250.35238052 0 306.59950284 0 10666.94757376 0 74.71363000 0 -3919.77318706 0 4653
0.06750000 0.06749660 30046.71800455 0 486.91352810 0 10054.84659658 0 1352.72674459 0 -3092.33662113 0 5220
0.06850000 0.06852730 29254.69563048 0 509.98876336 0 10604.94778282 0 776.63222919 0 -1793.51309371 0 5029
0.06950000 0.06949320 28894.89720148 0 90.91975425 0 10338.49286733 0 84.11974140 0 -2311.66054154 0 5040
0.07050000 0.07048030 28681.28074826 0 -300.31523065 0 9254.16199769 0 1601.61320411 0 -370.53581677 0 5475
0.07150000 0.07148790 29527.76089934 0 261.10784944 0 9427.49522360 0 -500.36493176 0 -937.95590704 0 5509
0.07250000 0.07249820 28677.17700539 0 528.23600057 0 9739.53495854 0 -1022.51741081 0 -593.32136251 0 5916
0.07350000 0.07351270 28062.72469445 0 580.23264099 0 10785.21300682 0 149.13001593 0 -1664.62229397 0 5721
0.07450000 0.07449140 28234.74915912 0 394.45176475 0 11807.02279926 0 -152.93318736 0 -478.65169550 0 6028
0.07550000 0.07549160 27437.40301051 0 -43.64618914 0 11301.15330645 0 1815.97276753 0 -123.98627244 0 6183
0.07650000 0.07648840 27097.90147193 0 143.70531150 0 9726.85772042 0 1298.81243623 0 -935.01895809 0 6330
0.07750000 0.07749960 27466.79468243 0 -43.80734423 0 9380.59055170 0 1100.95879211 0 2994.60099363 0 6583
0.07850000 0.07848650 27104.33436616 0 -93.87844195 0 7759.25719942 0 1052.21963624 0 -651.35605054 0 6549
0.07950000 0.07947320 26985.32582290 0 777.25333622 0 8749.25743901 0 81.75066173 0 3263.42942526 0 6828
0.08050000 0.08048110 25280.16520408 0 1066.96316434 0 7267.19624681 0 -370.46039663 0 489.85380442 0 7147
0.08150000 0.08149960 24728.26724394 0 223.53641977 0 9258.80920921 0 397.22345486 0 2394.58942112 0 7386
0.08250000 0.08250610 23870.69589590 0 665.33650429 0 8718.82319459 0 146.96279604 0 26.00053845 0 7227
0.08350000 0.08350160 23154.09366108 0 837.08257991 0 8997.56715629 0 -825.66862913 0 -126.22780335 0 7798
0.08450000 0.08449610 21820.37722806 0 715.27240031 0 8481.66013024 0 -526.99267740 0 388.36713410 0 7371
0.08550000 0.08548940 21771.02140164 0 533.85258271 0 9594.77265597 0 -116.63391799 0 -869.84930306 0 8256
0.08650000 0.08650700 20353.45551968 0 590.56187271 0 9701.96907447 0 70.64837358 0 -537.59586168 0 8037
0.08750000 0.08749060 20268.60786303 0 265.04300611 0 9393.50070495 0 1280.68942041 0 -327.53302796 0 8155
0.08850000 0.08849210 19490.33857317 0 257.64850511 0 8487.88229173 0 549.07414140 0 -299.74070665 0 8718
0.08950000 0.08949900 19420.24220846 0 369.99789371 0 8670.18829597 0 724.21301417 0 865.87310895 0 8571
0.09050000 0.09049190 18775.40001789 0 19.93343189 0 7863.01534687 0 954.15570930 0 856.66519725 0 8932
0.09150000 0.09150830 18720.49859300 0 -83.48809773 0 6877.16321493 0 1143.00330150 0 1373.62255964 0 9285
0.09250000 0.09250820 18593.83712385 0 -119.07619956 0 6299.51149547 0 1249.10169151 0 1236.89028367 0 9204
0.09350000 0.09350330 18802.57345041 0 199.46963152 0 5642.15843474 0 -50.28903973 0 2211.89522499 0 9349
0.09450000 0.09448040 18075.87822637 0 432.61879168 0 5725.63078297 0 -368.59263906 0 1744.83383030 0 9564
0.09550000 0.09549270 18286.72188035 0 282.98190806 0 5989.12434887 0 -227.52148684 0 1961.72218663 0 10155
0.09650000 0.09649430 17592.96751124 0 -7.88381134 0 5830.23186139 0 111.92237752 0 727.24312918 0 9913
0.09750000 0.09749140 17994.46884077 0 -92.38379224 0 6081.04818918 0 273.72741332 0 506.63478540 0 10476
0.09850000 0.09850240 18145.30911926 0 183.80886142 0 5463.88962619 0 -107.80987261 0 372.29931708 0 10575
0.09950000 0.09950330 17652.74906279 0 216.34932415 0 5801.49457010 0 -102.74973582 0 194.04714533 0 10882
0.10050000 0.10051200 17665.61485125 0 450.23715804 0 6354.24655241 0 -884.05601723 0 -85.88945278 0 10875
0.10150000 0.10150300 16994.70834785 0 220.80243973 0 6934.36051759 0 402.14018247 0 28.52556034 0 11118
0.10250000 0.10250800 16757.02399725 0 70.21670420 0 7169.27206895 0 581.07113548 0 932.02766227 0 11575
0.10350000 0.10349800 16813.58910169 0 139.84002936 0 6226.23195723 0 676.45542923 0 955.64747529 0 11364
0.10450000 0.10450100 16527.99078027 0 149.29638388 0 6316.68066835 0 656.14190202 0 1645.48997924 0 12093
0.10550000 0.10551000 16334.00574565 0 214.64238894 0 6746.17617897 0 -137.40551163 0 1584.22220730 0 12067
0.10650000 0.10649700 15970.99086953 0 152.98087951 0 6141.93886043 0 558.45618490 0 2487.78874908 0 12054
0.10750000 0.10749900 15696.15100916 0 334.13561750 0 6123.76038863 0 -10.20322463 0 1963.23058941 0 12807
0.10850000 0.10850100 15243.29743776 0 298.44747308 0 5843.77421287 0 211.20744525 0 1764.83125840 0 12736
0.10950000 0.10950300 15186.51050938 0 44.60835048 0 6281.92085711 0 377.91146274 0 2164.55799642 0 12933
0.11050000 0.11050200 14796.43311272 0 230.20777474 0 5639.61855064 0 126.43299049 0 1688.40182023 0 13428
0.11150000 0.11150900 14480.11217575 0 322.24918173 0 6175.56736957 0 -5.97560418 0 2515.23946152 0 13453
0.11250000 0.11250000 14316.51702077 0 187.36802653 0 5534.48509477 0 137.36780156 0 1307.49684344 0 13668
0.11350000 0.11349100 14275.70141600 0 -94.45496236 0 6031.72563635 0 -29.79317324 0 1690.79751877 0 13791
0.11450000 0.11448600 14489.31786922 0 -8.60912017 0 5674.50036504 0 -187.79503761 0 245.72546839 0 14205
0.11550000 0.11549300 14244.53515257 0 165.06473858 0 5957.11515448 0 -193.23859707 0 1015.16283811 0 14776
0.11650000 0.11649800 14270.04490555 0 -109.16200043 0 5570.15438415 0 -66.86084074 0 -615.18432993 0 14553
0.11750000 0.11747300 14522.59146006 0 -82.91923024 0 5709.26017628 0 241.37217359 0 -356.96906466 0 14568
0.11850000 0.11849100 14396.26272682 0 192.84596870 0 5113.64071777 0 -1.89469808 0 -526.15085555 0 16015
0.11950000 0.11950300 13989.54853473 0 137.77373937 0 5436.78274085 0 253.69449340 0 -762.16265365 0 15270
0.12050000 0.12050700 14175.54790755 0 93.80989835 0 4960.87057100 0 619.35240174 0 -668.49527718 0 15999
0.12150000 0.12150000 13669.34567884 0 126.47070056 0 4512.42020479 0 508.44375962 0 -936.97100875 0 15670
0.12250000 0.12250700 13530.04024517 0 328.67209388 0 4105.16254405 0 -7.64657064 0 10.92546119 0 16887
0.12350000 0.12352200 13210.17012518 0 106.67091759 0 4393.38947915 0 -0.19546016 0 -363.13466104 0 16407
0.12450000 0.12449800 13139.96284850 0 -65.66432241 0 3879.55650693 0 451.44166202 0 -387.76044563 0 16306
0.12550000 0.12549900 13234.68167044 0 -66.92605698 0 4039.96848839 0 419.01765687 0 -594.10107365 0 17523
0.12650000 0.12650100 13195.19700930 0 165.44294840 0 3082.44327346 0 50.87132757 0 35.84308844 0 17154
0.12750000 0.12750600 12787.59552145 0 314.90015463 0 3716.32736144 0 323.31171840 0 26.64704432 0 18007
0.12850000 0.12850300 12625.22039813 0 206.43046672 0 3121.48428671 0 24.92857426 0 524.24871527 0 17496
0.12950000 0.12949900 12132.77125363 0 191.96643678 0 3550.23668714 0 316.67585527 0 1134.99545730 0 18405
0.13050000 0.13049000 12053.69101939 0 170.94861856 0 3643.22528236 0 256.29870644 0 1293.56630007 0 18100
0.13150000 0.13148800 11790.16417990 0 -26.93020257 0 3136.90105047 0 551.13488579 0 1679.09630599 0 19059
0.13250000 0.13249300 12110.47794776 0 -59.25227963 0 2839.14677720 0 187.81389264 0 1111.06065429 0 18957
0.13350000 0.13349100 11822.99412287 0 60.11007280 0 2891.02030533 0 -210.37560547 0 1359.98038740 0 19468
0.13450000 0.13450700 11864.25337551 0 172.14424959 0 2666.06864882 0 -237.55569272 0 572.24476095 0 19953
0.13550000 0.13551000 11619.35974690 0 151.03548356 0 3062.47911895 0 -447.32904620 0 396.02116911 0 19956
0.13650000 0.13649900 11593.62816998 0 99.62989303 0 3418.37344662 0 -299.86270981 0 -11.41040160 0 19723
0.13750000 0.13749600 11548.26517446 0 0.08992665 0 3069.25584028 0 62.04448846 0 -697.60745093 0 20946
0.13850000 0.13851100 11497.91114031 0 137.45874938 0 3615.35310442 0 -179.31914490 0 -87.40983406 0 20955
0.13950000 0.13949800 11405.85420564 0 175.00799665 0 3431.99343648 0 46.98086842 0 -297.13205712 0 20506
0.14050000 0.14048300 11199.55794241 0 42.32866586 0 3744.60991366 0 615.12554659 0 734.29158484 0 21447
0.14150000 0.14148400 11099.40443396 0 88.98666953 0 3462.21694816 0 325.62090560 0 590.27682894 0 21771
0.14250000 0.14249400 11138.33453525 0 121.12363451 0 3621.49762753 0 431.65718491 0 1562.74965000 0 22470
0.14350000 0.14350900 10776.82806192 0 228.88570406 0 3431.48324142 0 -226.38020267 0 1489.00428150 0 22519
0.14450000 0.14449900 10595.52026541 0 278.91254790 0 3826.66258868 0 -309.96789935 0 1948.98949253 0 22218
0.14550000 0.14550500 10304.04360961 0 173.46964763 0 4022.92131868 0 22.75736155 0 1989.26162865 0 23559
0.14650000 0.14650700 10148.19011009 0 123.51046010 0 4088.54793102 0 144.54380599 0 1342.10137792 0 23044
0.14750000 0.14750500 10046.56147246 0 -11.68779243 0 3937.78529091 0 112.08209076 0 1457.43873498 0 23649
0.14850000 0.14849900 10088.08691383 0 53.72775443 0 4169.95731662 0 80.51354962 0 747.09193524 0 23640
0.14950000 0.14949500 10074.35601201 0 -31.01331582 0 3136.32430823 0 218.84595258 0 1102.41173891 0 24457
0.15050000 0.15050000 10116.92402590 0 -105.44467486 0 3218.59880719 0 577.52638893 0 1186.05932805 0 24591
0.15150000 0.15149900 10181.03114426 0 -75.69653188 0 2684.08075267 0 431.11149802 0 1522.35551072 0 25020
0.15250000 0.15250500 10095.09655030 0 115.86751628 0 2280.18372460 0 447.60632612 0 1244.25483844 0 25297
0.15350000 0.15350100 10053.60438252 0 165.50838646 0 2054.66641705 0 119.82041887 0 1349.55466227 0 25452
0.15450000 0.15450400 9626.42693206 0 211.86737146 0 2147.22245559 0 -165.99529001 0 1405.98667234 0 26061
0.15550000 0.15549900 9594.48428485 0 238.83783508 0 2450.93270162 0 -292.90298373 0 1048.58505100 0 26128
0.15650000 0.15649500 9127.25652221 0 134.64824007 0 2499.87815375 0 -168.51631907 0 1415.71365206 0 26331
0.15750000 0.15749700 8945.58271620 0 88.82418350 0 2294.21408874 0 70.69562208 0 715.07386789 0 27345
0.15850000 0.15849900 9240.88583494 0 -78.35908462 0 2195.91281019 0 335.63958381 0 1007.30694332 0 26980
0.15950000 0.15949700 9082.08207704 0 41.89832742 0 2206.08343779 0 214.99176164 0 348.05285143 0 27777
0.16050000 0.16050000 8990.81261735 0 209.99850478 0 2220.84582093 0 -255.62547078 0 911.58104070 0 28224
0.16150000 0.16150500 8675.35679375 0 326.75664417 0 2685.41169630 0 -528.22712762 0 369.11392532 0 28075
0.16250000 0.16249700 8504.90727905 0 154.81869084 0 2751.13812942 0 -299.90929284 0 759.59615067 0 28590
0.16350000 0.16349900 8375.07372757 0 -57.94052377 0 3157.64158877 0 412.20433458 0 814.23693244 0 29163
0.16450000 0.16449100 8615.89688691 0 -53.81448759 0 2661.09979259 0 144.32198205 0 471.06309855 0 28996
0.16550000 0.16550500 8555.69386987 0 28.51613283 0 3180.58927525 0 -69.40593770 0 671.38342487 0 30777
0.16650000 0.16650700 8650.60124216 0 67.89076929 0 2812.64990769 0 -24.81866050 0 556.67382955 0 29211
0.16750000 0.16749900 8445.97974966 0 45.36942841 0 3071.32989411 0 -135.24161911 0 817.75949659 0 30922
0.16850000 0.16850800 8666.67238654 0 -46.16411267 0 2730.83014780 0 230.01256967 0 361.81037213 0 30867
0.16950000 0.16949900 8670.27702555 0 -10.72049587 0 2944.66842497 0 158.36565563 0 232.37166726 0 30852
0.17050000 0.17049200 8667.99223897 0 34.54863485 0 2299.78186961 0 145.42001055 0 240.99396377 0 31257
0.17150000 0.17149500 8494.13772681 0 185.36051988 0 2492.25850145 0 12.26276008 0 -107.49377349 0 32608
0.17250000 0.17250900 8186.95593613 0 232.27961033 0 2499.03522278 0 -160.74360825 0 317.61638877 0 32361
0.17350000 0.17350400 7923.15181672 0 91.32746665 0 2379.67176123 0 219.46484137 0 -224.05548779 0 32508
0.17450000 0.17449800 7917.28457353 0 60.01801587 0 2224.20645360 0 256.34750771 0 332.84127482 0 32791
0.17550000 0.17549800 7841.60933676 0 -34.80484150 0 1790.01936667 0 436.68926096 0 -116.11484997 0 33633
0.17650000 0.17650100 7734.24655030 0 42.26400418 0 1780.31456934 0 158.11832193 0 468.65519969 0 33984
0.17750000 0.17750300 7828.23335324 0 110.00193677 0 1495.30408136 0 -176.46094345 0 125.32719816 0 34069
0.17850000 0.17849800 7633.23901969 0 60.75147672 0 1776.41046802 0 5.66322062 0 284.56462186 0 34536
