### header ###
fiducial parameters:
Omega_m = 0.31
Omega_nu = 0
Omega_de = 0.69
Omega_k = 0
H_0 = 100
w_de = -1
zeff = 0
beta = 0
fgrowth = 0
b_1 = 2
gamma = 0.55
Lx = 3500 Ly = 3500 Lz = 3500
nx = 700 ny = 700 nz = 700
xoffset = 1379.75464 yoffset = 22.6059522 zoffset = 368.141391
bins = 400 dk = 0.001
kx_ny = 0.628318531 ky_ny = 0.628318531 kz_ny = 0.628318531
############################
A(data) = 3.31135951 (not used)
A(ran) = 3.29882059 (used)
Ngal = 184896
weighted Ngal = 0
Nran = 9399747
weighted Nran = 0
SN(data) = 6752.79393
SN(ran) = 131.211852
SN(data+ran) = 6884.00578
############################
13 columns: k_central k_mean P_0(k) sigma^{lin}_{P_0(k)} P^img_1(k) sigma^{lin}_{P_1(k)} P_2(k) sigma^{lin}_{P_2(k)} P^img_3(k) sigma^{lin}_{P_3(k)} P_4(k) sigma^{lin}_{P_4(k)} N_modes
### header ###
0.00050000 0 0 0 0 0 0 0 0 0 0 0 0
0.00150000 0.00179520 46535.77868354 0 -7331.75810424 0 7616.62440666 0 -2033.98133474 0 -243720.17997963 0 3
0.00250000 0.00253879 61037.18595743 0 -38766.50613328 0 -31846.37562137 0 69530.49184447 0 100549.79690941 0 6
0.00350000 0.00331552 87607.03554265 0 -41131.03841067 0 16394.12003311 0 -74637.43347928 0 -163599.59146506 0 7
0.00450000 0.00420575 134520.69130621 0 -23481.72761893 0 -33441.28974252 0 -17902.74464200 0 -29062.04153949 0 24
0.00550000 0.00557378 141676.73157721 0 -3709.26226898 0 -4158.23392145 0 -36384.33885274 0 -7892.09646527 0 45
0.00650000 0.00659388 161647.54080218 0 23027.65401587 0 73037.30649556 0 -73924.60225142 0 39336.59365641 0 40
0.00750000 0.00754703 117056.49259154 0 27751.28388415 0 71559.95906205 0 -121.02048638 0 -54307.26947319 0 57
0.00850000 0.00846663 120715.47846476 0 21592.45313077 0 115352.88474029 0 7447.56129158 0 8950.09683335 0 75
0.00950000 0.00948925 86800.48370058 0 9946.26377845 0 106094.72991170 0 28052.07714538 0 19007.09512214 0 112
0.01050000 0.01054430 76748.31008246 0 3146.31747668 0 85404.43474070 0 45547.22029954 0 1444.63949370 0 105
0.01150000 0.01145670 84699.03461480 0 505.63657767 0 81917.25150821 0 31991.89212533 0 37039.49585647 0 144
0.01250000 0.01249090 79139.68305647 0 255.55781448 0 53160.55062071 0 27658.11782978 0 13652.81979538 0 169
0.01350000 0.01339930 83612.98460963 0 -1523.80845752 0 54638.78534997 0 29527.09542753 0 33559.07825412 0 180
0.01450000 0.01448870 86799.81822876 0 -803.88662745 0 34117.07637258 0 4684.83286135 0 20000.75545673 0 267
0.01550000 0.01550050 79810.58955987 0 2377.61988979 0 26911.12571532 0 15654.44810863 0 8367.57607844 0 238
0.01650000 0.01653350 78377.60691416 0 2229.05330667 0 29319.91186853 0 -1981.68634113 0 22600.31019745 0 315
0.01750000 0.01747870 80942.00256056 0 -603.72157788 0 14586.47675449 0 9863.94491470 0 8109.39519587 0 297
0.01850000 0.01844180 80887.21204763 0 -1480.74133977 0 21144.25786209 0 5935.78678275 0 15556.51283958 0 388
0.01950000 0.01947590 82216.93564975 0 2116.20037772 0 20687.85510767 0 -9128.12163557 0 -4937.73433417 0 399
0.02050000 0.02045430 79606.51153602 0 4066.72045543 0 22631.36554891 0 -7339.51085091 0 -9226.58928208 0 462
0.02150000 0.02154770 76925.54740970 0 1846.87284223 0 31737.46006734 0 -4810.48503158 0 -6289.92870131 0 571
0.02250000 0.02255340 69771.17081824 0 2202.34570442 0 35589.32185549 0 -1790.07482266 0 -17090.20355358 0 510
0.02350000 0.02348930 71369.19047454 0 9085.85308400 0 46219.23592263 0 -5939.12523303 0 -13465.82221484 0 555
0.02450000 0.02439640 64564.51932287 0 5071.87127006 0 46948.14938607 0 -3258.81548733 0 -22938.03714453 0 592
0.02550000 0.02547300 60171.18529971 0 -30.90362388 0 53155.67049405 0 10624.10227995 0 5009.61638159 0 837
0.02650000 0.02652900 61156.19450068 0 -2156.86070573 0 47700.57618704 0 14311.41507017 0 3795.59614603 0 723
0.02750000 0.02749970 63845.92067260 0 -2213.75854608 0 46461.35675201 0 13377.86902304 0 19648.16630575 0 826
0.02850000 0.02848090 67314.24887027 0 -606.70289162 0 33161.45884352 0 4541.87842389 0 5329.81923748 0 831
0.02950000 0.02946900 69610.79211037 0 594.18314851 0 31592.83085913 0 1437.81840758 0 20555.98077596 0 996
0.03050000 0.03053250 63852.79721470 0 2174.10751699 0 33604.99580948 0 3001.45535334 0 15711.67868488 0 1041
0.03150000 0.03150510 66344.43460912 0 1845.58626338 0 31535.15663500 0 6597.18813036 0 15802.73741183 0 1036
0.03250000 0.03246190 59626.49661758 0 1667.94965306 0 31726.36887039 0 3943.24215980 0 15588.67731073 0 1059
0.03350000 0.03345080 54662.52051144 0 4724.79444396 0 25181.23172731 0 1435.31179707 0 8821.43894875 0 1302
0.03450000 0.03451200 54182.82624343 0 -552.34493538 0 24564.22844108 0 9136.99459313 0 22282.54740489 0 1339
0.03550000 0.03553350 50942.53305500 0 -1444.78367926 0 18099.83521177 0 2605.33325433 0 10347.84274636 0 1365
0.03650000 0.03647120 52951.92520611 0 2397.18476121 0 17515.88369245 0 1308.89433425 0 8975.21839444 0 1308
0.03750000 0.03744890 49378.00881349 0 1495.90300600 0 17515.88369245 0 -4436.26804655 0 6483.62536481 0 1579
0.03850000 0.03847530 47809.71356501 0 1280.73378520 0 17408.18817008 0 -2408.70851484 0 1921.56096248 0 1662
0.03950000 0.03950240 50155.94536744 0 -1173.96992338 0 21482.20663310 0 2440.99498915 0 1213.28821656 0 1683
0.04050000 0.04050350 48895.76357018 0 477.23756789 0 15235.53359990 0 -69.62166148 0 -7494.69887861 0 1822
0.04150000 0.04152450 47195.81581392 0 1803.07370548 0 20639.05384110 0 -2190.00120221 0 -813.14223130 0 1887
0.04250000 0.04250150 46556.18648592 0 1900.18822596 0 21221.11985694 0 -628.36510838 0 -2652.43756777 0 1920
0.04350000 0.04349210 45038.68891946 0 478.07828062 0 23874.68872680 0 2845.96786332 0 -3336.34295399 0 2005
0.04450000 0.04448520 44003.76933223 0 1304.83495617 0 22311.71725286 0 3682.38829878 0 331.67004442 0 2151
0.04550000 0.04548030 40699.81267332 0 1698.70554220 0 20802.75990806 0 -438.59694684 0 3363.32783617 0 2274
0.04650000 0.04648670 39852.44522648 0 608.96660492 0 19126.43640130 0 3662.84560976 0 2033.54877806 0 2311
0.04750000 0.04749250 38694.96791296 0 -587.61161432 0 17082.32880374 0 4185.08570926 0 181.69820665 0 2568
0.04850000 0.04851840 39735.43309867 0 336.32280154 0 12521.18497076 0 860.26650889 0 740.14330035 0 2493
0.04950000 0.04949480 38475.14038945 0 107.50830296 0 12073.43334996 0 290.62707011 0 -413.17148695 0 2644
0.05050000 0.05050630 38095.93236579 0 1404.76664067 0 10100.45359843 0 -1020.35906389 0 -3195.10765206 0 2829
0.05150000 0.05149060 35667.40388200 0 812.86827874 0 9633.44765973 0 -966.71870808 0 -3995.49278863 0 2784
0.05250000 0.05249300 34751.49283802 0 922.27628191 0 14008.18174561 0 -1390.60318217 0 -4539.43836056 0 3055
0.05350000 0.05348950 35166.74725176 0 1106.46778963 0 12332.85644658 0 572.46214841 0 -4352.47405360 0 3009
0.05450000 0.05448610 33363.87318783 0 -673.92109073 0 13334.39153100 0 2928.47527742 0 -467.88436150 0 3336
0.05550000 0.05550870 34206.69324392 0 668.45091239 0 12234.47752965 0 -302.72423862 0 -1530.20807816 0 3349
0.05650000 0.05647670 34280.44970363 0 119.40006251 0 14821.27739388 0 -518.57224067 0 852.48381600 0 3324
0.05750000 0.05747970 33385.05737400 0 719.36172463 0 17239.93471238 0 -1611.49546059 0 741.76039686 0 3639
0.05850000 0.05849280 33607.87952069 0 252.84047123 0 17647.97984810 0 2101.20507945 0 2442.24829441 0 3846
0.05950000 0.05951020 33945.60646776 0 -439.03172176 0 17676.15148835 0 -532.88875769 0 2831.15002420 0 3787
0.06050000 0.06049470 34858.07924069 0 190.58447364 0 17849.83963256 0 864.83386380 0 3983.33683677 0 3930
0.06150000 0.06148310 34030.67594835 0 146.67553404 0 19128.65464069 0 3463.91390129 0 6108.37689846 0 4083
0.06250000 0.06249100 33854.99138869 0 -235.38403635 0 15015.15151653 0 1277.50624689 0 7068.17580877 0 4303
0.06350000 0.06350600 34155.56282599 0 227.46270349 0 15491.29660152 0 3574.42658769 0 7673.92153010 0 4470
0.06450000 0.06451750 33803.63914682 0 377.42788655 0 14422.54886359 0 1908.38462050 0 9121.45582620 0 4479
0.06550000 0.06550280 31671.57835747 0 746.27895050 0 12843.05150619 0 -631.85439894 0 7678.74620077 0 4636
0.06650000 0.06648880 33257.84134500 0 281.66981946 0 12577.63916322 0 1331.28746089 0 6504.79845978 0 4653
0.06750000 0.06749660 30767.64580619 0 297.17531279 0 11854.38221023 0 22.20934551 0 4599.35300647 0 5220
0.06850000 0.06852730 30535.50705406 0 829.00264294 0 10644.56553831 0 -1076.74449093 0 4160.47434323 0 5029
0.06950000 0.06949320 30736.36863079 0 -132.43332804 0 11215.41835404 0 -474.63446396 0 155.48305354 0 5040
0.07050000 0.07048030 30384.55586359 0 130.62657206 0 10382.99074949 0 77.68052519 0 922.07220389 0 5475
0.07150000 0.07148790 29917.28373617 0 346.56884928 0 10872.14580850 0 -222.70568912 0 -1675.76894691 0 5509
0.07250000 0.07249820 29429.49289438 0 415.93652235 0 11202.99621346 0 -176.84358974 0 11.37956807 0 5916
0.07350000 0.07351270 28738.17858860 0 762.16709013 0 10193.28691689 0 -139.22779529 0 -3792.43515490 0 5721
0.07450000 0.07449140 28254.82422560 0 951.13779461 0 12966.05288035 0 -438.14886248 0 -1090.87245760 0 6028
0.07550000 0.07549160 26449.62101030 0 542.18428986 0 10756.29825637 0 623.90311985 0 242.13746618 0 6183
0.07650000 0.07648840 26584.93361307 0 -21.57492904 0 12692.54396361 0 2544.46476548 0 -124.66061722 0 6330
0.07750000 0.07749960 26121.32158064 0 110.25093414 0 10330.81775904 0 513.11093530 0 605.65033703 0 6583
0.07850000 0.07848650 25788.80749613 0 826.38622958 0 9874.94738208 0 396.37830566 0 -364.05633951 0 6549
0.07950000 0.07947320 24978.04099921 0 389.77460699 0 9773.18565008 0 344.98391724 0 2111.58643979 0 6828
0.08050000 0.08048110 24722.38890956 0 49.03118708 0 9272.42919906 0 876.10584726 0 366.08048295 0 7147
0.08150000 0.08149960 23921.38266596 0 390.52326279 0 8607.52303321 0 731.20823209 0 940.24956657 0 7386
0.08250000 0.08250610 23303.04843609 0 556.24238199 0 8489.32414734 0 391.57027178 0 1471.13636321 0 7227
0.08350000 0.08350160 23018.67014634 0 193.89963241 0 6330.72212368 0 1077.69167915 0 526.57786663 0 7798
0.08450000 0.08449610 22254.26485267 0 390.25374670 0 7555.63391464 0 433.54047015 0 2796.01311227 0 7371
0.08550000 0.08548940 21384.04954011 0 745.19201320 0 6578.88765540 0 234.21946067 0 800.68903537 0 8256
0.08650000 0.08650700 20720.01957882 0 479.71423217 0 7293.93712265 0 103.16987036 0 3258.52711621 0 8037
0.08750000 0.08749060 20160.24686885 0 327.79367109 0 6776.85442973 0 336.59897234 0 2580.75516190 0 8155
0.08850000 0.08849210 19887.07068801 0 2.91715117 0 7729.84334511 0 994.06072680 0 3938.65040427 0 8718
0.08950000 0.08949900 20142.39004176 0 -152.12907558 0 6885.84762214 0 1131.57936864 0 3661.41484535 0 8571
0.09050000 0.09049190 19875.53584318 0 126.76683552 0 5545.85357164 0 -228.15257594 0 4104.02015077 0 8932
0.09150000 0.09150830 19872.65213198 0 480.73684052 0 7070.93751681 0 -210.60741149 0 3816.25904594 0 9285
0.09250000 0.09250820 19054.67635705 0 576.02464087 0 6611.30722408 0 -650.47097302 0 3897.49097239 0 9204
0.09350000 0.09350330 18615.35404593 0 88.33395259 0 8183.32911473 0 1093.74618673 0 4009.25696404 0 9349
0.09450000 0.09448040 18967.05590116 0 136.26866395 0 6877.96178111 0 -24.52762749 0 3546.78732489 0 9564
0.09550000 0.09549270 18031.18070266 0 561.16021872 0 7566.61419962 0 -285.95656708 0 4036.48585255 0 10155
0.09650000 0.09649430 17780.29782770 0 377.24599092 0 7289.26772874 0 -280.65497494 0 3131.08926327 0 9913
0.09750000 0.09749140 17111.94229960 0 122.83389708 0 7869.70333863 0 123.25425345 0 3600.93454839 0 10476
0.09850000 0.09850240 16994.04287604 0 209.31417793 0 7232.62498592 0 663.34119796 0 2086.56469948 0 10575
0.09950000 0.09950330 16808.70897503 0 173.33655327 0 7306.22616887 0 -297.47255687 0 1841.36051734 0 10882
0.10050000 0.10051200 16663.19247107 0 70.08349892 0 6320.22985137 0 174.49780159 0 589.03017841 0 10875
0.10150000 0.10150300 16173.29430187 0 303.47178530 0 7011.51088356 0 76.56020338 0 587.44968284 0 11118
0.10250000 0.10250800 16193.70210425 0 157.70351117 0 6070.20099857 0 -549.34254837 0 496.99209877 0 11575
0.10350000 0.10349800 15947.36662003 0 149.29527476 0 6929.73548846 0 655.83245763 0 -926.48428203 0 11364
0.10450000 0.10450100 15960.45423243 0 -47.29286379 0 6213.92072862 0 86.22496149 0 -135.09077883 0 12093
0.10550000 0.10551000 15766.91284568 0 -13.96581337 0 5876.92580055 0 802.45142656 0 -380.71309909 0 12067
0.10650000 0.10649700 15995.83515070 0 -101.22114706 0 5465.77512967 0 711.05774547 0 1315.77087636 0 12054
0.10750000 0.10749900 15956.46140153 0 -1.21702595 0 4231.91274278 0 509.80464949 0 115.74551311 0 12807
0.10850000 0.10850100 16236.18138856 0 89.01339932 0 5823.62150801 0 165.54942389 0 1165.56279609 0 12736
0.10950000 0.10950300 15806.06477091 0 355.08356118 0 4600.00738709 0 -331.08997482 0 1008.68003350 0 12933
0.11050000 0.11050200 15349.99475240 0 264.90103879 0 5504.54995421 0 24.54082602 0 769.28320209 0 13428
0.11150000 0.11150900 15213.90576585 0 138.92389649 0 5619.37711621 0 -362.14310804 0 930.32294530 0 13453
0.11250000 0.11250000 14904.57228296 0 247.31705515 0 5842.02180375 0 199.68147338 0 574.52511104 0 13668
0.11350000 0.11349100 14794.99125711 0 258.30288573 0 6114.27741524 0 -36.27730880 0 1209.36193284 0 13791
0.11450000 0.11448600 14528.13705854 0 106.90272361 0 5591.56039426 0 55.18236491 0 471.11300893 0 14205
0.11550000 0.11549300 14630.95245425 0 -140.63970466 0 5677.42844104 0 723.41999359 0 1312.87607396 0 14776
0.11650000 0.11649800 14536.45545625 0 146.90290358 0 5158.08314394 0 -111.75046397 0 -91.90077062 0 14553
0.11750000 0.11747300 14409.12851528 0 387.78262802 0 5889.81377140 0 -457.29337753 0 1075.00650037 0 14568
0.11850000 0.11849100 13594.03645156 0 408.85701134 0 5592.18150129 0 64.22357593 0 441.21446932 0 16015
0.11950000 0.11950300 13381.08547015 0 194.04603621 0 6174.48043227 0 497.86830333 0 987.68772503 0 15270
0.12050000 0.12050700 13288.69579957 0 -128.47044337 0 5512.97926389 0 620.01787356 0 1235.06023617 0 15999
0.12150000 0.12150000 13318.97476724 0 -92.69434576 0 5239.08215525 0 1002.63089468 0 1230.67921337 0 15670
0.12250000 0.12250700 13466.15495075 0 37.46195955 0 4920.13260461 0 293.01722306 0 2394.30105000 0 16887
0.12350000 0.12352200 13321.19300663 0 18.94276618 0 3899.49847904 0 -152.28546146 0 1057.21400222 0 16407
0.12450000 0.12449800 13239.67270906 0 236.38446232 0 4758.46731789 0 -34.35132245 0 2054.96587937 0 16306
0.12550000 0.12549900 12952.74344401 0 163.89794466 0 4363.72052731 0 -228.49307569 0 980.35533473 0 17523
0.12650000 0.12650100 13089.60881435 0 21.92896005 0 4611.04312806 0 379.74816495 0 2168.93901921 0 17154
0.12750000 0.12750600 12860.79742131 0 -34.05973488 0 3972.82238207 0 580.55095834 0 1180.29190564 0 18007
0.12850000 0.12850300 12912.70422303 0 78.98130076 0 3967.60951950 0 56.13432235 0 1107.61794676 0 17496
0.12950000 0.12949900 12723.82113900 0 343.16052446 0 3933.09371460 0 -269.91536893 0 991.24356278 0 18405
0.13050000 0.13049000 12084.41363494 0 356.63300139 0 4096.86632873 0 -447.32682796 0 575.63423073 0 18100
0.13150000 0.13148800 11887.98853698 0 225.60381888 0 4316.81585541 0 -23.44634670 0 889.27109803 0 19059
0.13250000 0.13249300 11636.32927823 0 40.51869343 0 4134.59858075 0 221.52225841 0 -94.88718631 0 18957
0.13350000 0.13349100 11757.33423693 0 23.11494174 0 3614.35489670 0 480.49727067 0 -92.45011760 0 19468
0.13450000 0.13450700 11527.63554814 0 -77.97532920 0 3238.75151205 0 196.90756502 0 -346.34924358 0 19953
0.13550000 0.13551000 11497.24566850 0 112.39153516 0 2735.07807623 0 46.29920345 0 -376.53726343 0 19956
0.13650000 0.13649900 11370.02963950 0 143.15407901 0 3240.63701553 0 27.73475800 0 -225.60603712 0 19723
0.13750000 0.13749600 11213.75467450 0 33.88693404 0 2544.83077498 0 263.41703664 0 -1052.43591458 0 20946
0.13850000 0.13851100 11168.72441489 0 67.60727829 0 2911.96048516 0 92.27177116 0 -696.87765017 0 20955
0.13950000 0.13949800 11203.43986134 0 62.31844103 0 2663.02966086 0 -192.40897554 0 -1105.79677222 0 20506
0.14050000 0.14048300 11052.58849165 0 102.03590639 0 2762.90588938 0 12.41615134 0 -803.47847140 0 21447
0.14150000 0.14148400 10972.90933277 0 120.89737409 0 2718.27491286 0 -88.27550198 0 -509.52293308 0 21771
0.14250000 0.14249400 10719.47548250 0 137.79481265 0 2655.12163744 0 317.11173931 0 -332.29669705 0 22470
0.14350000 0.14350900 10666.80338820 0 81.95374155 0 2949.82583155 0 295.64916409 0 -328.50239857 0 22519
0.14450000 0.14449900 10473.49491659 0 225.55279938 0 2586.16766601 0 -166.82934802 0 -391.72111206 0 22218
0.14550000 0.14550500 10316.35483822 0 153.17497545 0 3028.46241791 0 -7.25586104 0 268.86946906 0 23559
0.14650000 0.14650700 10095.12982389 0 48.82245076 0 2841.19864864 0 -190.07982418 0 -256.12013817 0 23044
0.14750000 0.14750500 10157.52889792 0 -97.36784342 0 2919.14758079 0 477.23867701 0 -112.78749089 0 23649
0.14850000 0.14849900 10342.24169190 0 16.50370106 0 2978.20820454 0 -112.05879925 0 -468.39233832 0 23640
0.14950000 0.14949500 10128.50323551 0 217.50613599 0 2905.31685819 0 -523.78732148 0 -631.59708317 0 24457
0.15050000 0.15050000 10013.42097598 0 120.32506833 0 3302.10442902 0 -250.03328928 0 -685.95836678 0 24591
0.15150000 0.15149900 9910.39484752 0 69.66402986 0 3386.80790011 0 -188.56476668 0 -724.34499941 0 25020
0.15250000 0.15250500 10010.53726477 0 -115.61130963 0 3434.08967270 0 357.06333983 0 -896.84527643 0 25297
0.15350000 0.15350100 10145.79441155 0 -13.23512532 0 3145.91819359 0 336.93281737 0 -1350.59723478 0 25452
0.15450000 0.15450400 10190.25902012 0 104.28154103 0 2741.11168737 0 -40.76336523 0 -866.19586278 0 26061
0.15550000 0.15549900 9958.77464861 0 143.47905108 0 3213.62995096 0 -169.95928380 0 -1030.04611530 0 26128
0.15650000 0.15649500 9804.70683180 0 216.88502896 0 3091.85969967 0 -38.42733733 0 -673.68152087 0 26331
0.15750000 0.15749700 9505.15578463 0 242.69646250 0 3208.89400986 0 -38.94252343 0 -993.42520122 0 27345
0.15850000 0.15849900 9234.00929283 0 187.96916940 0 3301.67187233 0 63.16525392 0 -490.88195837 0 26980
0.15950000 0.15949700 9094.68167677 0 63.80266500 0 3392.50877534 0 334.50717260 0 -413.82475845 0 27777
0.16050000 0.16050000 9058.91256661 0 28.60708064 0 2808.92326552 0 581.84308278 0 -81.01209893 0 28224
0.16150000 0.16150500 8736.21419140 0 183.20882767 0 2894.12584047 0 221.56884143 0 20.19207860 0 28075
0.16250000 0.16249700 8611.64895848 0 241.69825478 0 2688.88324095 0 121.37984116 0 497.02537236 0 28590
0.16350000 0.16349900 8342.19941982 0 72.64966916 0 2729.55466015 0 224.78307031 0 1510.69866273 0 29163
0.16450000 0.16449100 8339.97008923 0 -96.34578962 0 2573.81207261 0 566.53612188 0 1075.04088308 0 28996
0.16550000 0.16550500 8486.09660902 0 -175.38842470 0 1840.59522475 0 578.69761933 0 1578.97607114 0 30777
0.16650000 0.16650700 8617.10582738 0 -103.66697781 0 1607.10334660 0 279.87970027 0 1492.38709657 0 29211
0.16750000 0.16749900 8734.79451819 0 4.49782419 0 1190.24070930 0 99.68135619 0 1849.05780803 0 30922
0.16850000 0.16850800 8714.00961511 0 44.98911127 0 1428.97872361 0 -29.51167866 0 1882.54213161 0 30867
0.16950000 0.16949900 8661.83662467 0 156.74634087 0 1363.58502641 0 -274.97739122 0 1391.50156912 0 30852
0.17050000 0.17049200 8490.18926070 0 173.16463971 0 1582.45870698 0 -25.60214265 0 1470.69271533 0 31257
0.17150000 0.17149500 8392.60890995 0 144.91979756 0 1948.52366226 0 -194.26231455 0 1524.72902687 0 32608
0.17250000 0.17250900 8106.45602868 0 155.61503878 0 1900.23259075 0 -274.58254461 0 1325.70858883 0 32361
0.17350000 0.17350400 8140.46163853 0 57.78125418 0 2273.49573284 0 38.85179744 0 1180.49154718 0 32508
0.17450000 0.17449800 7857.59175156 0 120.14317270 0 2321.76462196 0 -215.52635734 0 917.90967767 0 32791
0.17550000 0.17549800 7885.76339181 0 190.05431443 0 2490.50609233 0 -203.16854570 0 573.88182161 0 33633
0.17650000 0.17650100 7651.67258902 0 68.17304025 0 2336.88192340 0 71.97088791 0 725.05705426 0 33984
0.17750000 0.17750300 7668.07646930 0 35.17617477 0 2577.76053872 0 200.88597737 0 585.49763218 0 34069
0.17850000 0.17849800 7701.35006015 0 -86.29306144 0 2036.02211498 0 290.43741065 0 812.57214378 0 34536
