### header ###
fiducial parameters:
Omega_m = 0.31
Omega_nu = 0
Omega_de = 0.69
Omega_k = 0
H_0 = 100
w_de = -1
zeff = 0
beta = 0
fgrowth = 0
b_1 = 2
gamma = 0.55
Lx = 3500 Ly = 3500 Lz = 3500
nx = 700 ny = 700 nz = 700
xoffset = 1379.75464 yoffset = 22.6059522 zoffset = 368.141391
bins = 400 dk = 0.001
kx_ny = 0.628318531 ky_ny = 0.628318531 kz_ny = 0.628318531
############################
A(data) = 3.34706884 (not used)
A(ran) = 3.34820354 (used)
Ngal = 188149
weighted Ngal = 0
Nran = 9399747
weighted Nran = 0
SN(data) = 6590.16181
SN(ran) = 133.176078
SN(data+ran) = 6723.33789
############################
13 columns: k_central k_mean P_0(k) sigma^{lin}_{P_0(k)} P^img_1(k) sigma^{lin}_{P_1(k)} P_2(k) sigma^{lin}_{P_2(k)} P^img_3(k) sigma^{lin}_{P_3(k)} P_4(k) sigma^{lin}_{P_4(k)} N_modes
### header ###
0.00050000 0 0 0 0 0 0 0 0 0 0 0 0
0.00150000 0.00179520 61984.15235287 0 -52724.22293277 0 -48066.69659830 0 22928.60962712 0 137388.87483702 0 3
0.00250000 0.00253879 88155.60614371 0 -37621.11822443 0 -26522.82291016 0 -70211.60224906 0 -31410.71340524 0 6
0.00350000 0.00331552 104949.89656271 0 -7223.94057871 0 -44893.72697535 0 -41607.95987944 0 23271.77126070 0 7
0.00450000 0.00420575 105425.04343997 0 8556.29279451 0 -21911.87960288 0 -56049.47468981 0 -6448.28881133 0 24
0.00550000 0.00557378 82730.12533255 0 16520.33785438 0 21986.63427031 0 -30364.14806121 0 2531.93171293 0 45
0.00650000 0.00659388 58834.58515548 0 9496.20518869 0 507.40784183 0 972.11901188 0 -24031.62916362 0 40
0.00750000 0.00754703 54929.92926986 0 7878.96448808 0 53960.89139249 0 -14680.64101658 0 -8097.73834788 0 57
0.00850000 0.00846663 44912.80383410 0 8774.46772968 0 26013.40423433 0 -4781.76992268 0 -21541.54453678 0 75
0.00950000 0.00948925 41749.37264053 0 870.10440059 0 35886.78775764 0 14679.42098491 0 -7392.38258676 0 112
0.01050000 0.01054430 42185.92215241 0 -2956.35854655 0 26189.31061793 0 9875.70158347 0 -4235.96102966 0 105
0.01150000 0.01145670 50658.93114904 0 -7215.51126903 0 12672.24707319 0 18447.98788398 0 -7266.51968379 0 144
0.01250000 0.01249090 64410.35168529 0 -11716.85136807 0 -1858.37441346 0 16273.89145819 0 -6840.37371465 0 169
0.01350000 0.01339930 71233.43422390 0 -9171.68785718 0 -930.62129850 0 -4417.16900540 0 12837.72773166 0 180
0.01450000 0.01448870 86947.77479605 0 -6033.50022786 0 -16957.99648595 0 6896.39535044 0 -2690.93511238 0 267
0.01550000 0.01550050 94237.79672618 0 -730.93317040 0 -7325.29193642 0 -13211.39015684 0 -4771.27765037 0 238
0.01650000 0.01653350 90948.59135921 0 3692.09309611 0 -9223.69447967 0 1673.02942126 0 14197.50847751 0 315
0.01750000 0.01747870 93069.67186359 0 3527.55518938 0 17076.45046936 0 3012.93474218 0 18184.12830858 0 297
0.01850000 0.01844180 83436.30184224 0 6244.43261142 0 10813.15173193 0 -1586.12989317 0 34535.43632147 0 388
0.01950000 0.01947590 72879.47876298 0 4745.61262063 0 16232.41038160 0 6230.43552088 0 25641.07275278 0 399
0.02050000 0.02045430 73129.47434220 0 1141.72781385 0 18308.57153834 0 9389.38587088 0 46500.61958921 0 462
0.02150000 0.02154770 69197.75593602 0 1189.61960227 0 14513.05303069 0 5762.03209136 0 25252.21538777 0 571
0.02250000 0.02255340 69586.16965315 0 2252.05644914 0 22097.87897570 0 -4999.01319731 0 21437.84184531 0 510
0.02350000 0.02348930 63850.35715138 0 4876.63293018 0 19711.82977623 0 -13501.42495704 0 4568.27547262 0 555
0.02450000 0.02439640 58478.11408556 0 3180.35636012 0 25744.77544424 0 -10128.80269783 0 -8225.80839904 0 592
0.02550000 0.02547300 57407.70266809 0 805.92962593 0 28934.71459852 0 -1408.70401559 0 -12028.62491429 0 837
0.02650000 0.02652900 59082.47340727 0 -506.60816653 0 24534.83676916 0 4275.45678199 0 -23676.04538946 0 723
0.02750000 0.02749970 57258.19333323 0 -1283.62858761 0 22666.41373127 0 11708.53297036 0 -6870.66377352 0 826
0.02850000 0.02848090 57587.71279456 0 1372.93490543 0 15399.68331473 0 1406.59668817 0 -14671.32441114 0 831
0.02950000 0.02946900 57834.71375060 0 -255.28497104 0 13485.89728131 0 5713.97393498 0 -2623.95537401 0 996
0.03050000 0.03053250 54268.78301978 0 3817.54562479 0 15186.84324529 0 -6424.99729774 0 -837.01825097 0 1041
0.03150000 0.03150510 49777.84646347 0 3537.22671312 0 20973.34251712 0 -1974.86525501 0 -692.95913029 0 1036
0.03250000 0.03246190 45741.87080598 0 2874.16168597 0 23415.95682103 0 -102.23599158 0 5418.64863384 0 1059
0.03350000 0.03345080 45930.53206607 0 -648.54554123 0 18514.20232976 0 6734.17550387 0 1443.67455957 0 1302
0.03450000 0.03451200 48362.94246879 0 -2443.09122538 0 22509.25147051 0 7466.85997427 0 9332.92058722 0 1339
0.03550000 0.03553350 51363.11124328 0 -1387.33127907 0 15092.56807123 0 483.38652747 0 5660.73618963 0 1365
0.03650000 0.03647120 49661.72163142 0 1120.70999563 0 13646.60872509 0 -446.70239357 0 2015.88050132 0 1308
0.03750000 0.03744890 50104.59312557 0 2284.34292346 0 19449.07932053 0 -8089.61959172 0 5538.25610173 0 1579
0.03850000 0.03847530 46409.78268620 0 1674.08308497 0 21403.68095871 0 194.17691233 0 1787.08019948 0 1662
0.03950000 0.03950240 45991.09000141 0 710.27359785 0 26062.64914878 0 3359.41264365 0 522.84567886 0 1683
0.04050000 0.04050350 45530.47259215 0 1089.48051239 0 19546.23820579 0 23.48472224 0 -2851.24727307 0 1822
0.04150000 0.04152450 42761.44436206 0 1152.67482524 0 22029.22446659 0 1400.31907070 0 -1211.24743632 0 1887
0.04250000 0.04250150 40829.13602974 0 2722.06810221 0 23909.07143734 0 -2447.29478902 0 -4361.32482877 0 1920
0.04350000 0.04349210 38452.07069979 0 1952.09502767 0 21026.69117444 0 -87.33053200 0 1613.65824400 0 2005
0.04450000 0.04448520 35694.91005043 0 767.42320836 0 23825.44381235 0 2461.96844258 0 -3802.19540821 0 2151
0.04550000 0.04548030 35177.94936068 0 306.79470790 0 17317.79491495 0 3231.18731573 0 -3217.82242341 0 2274
0.04650000 0.04648670 35659.75095611 0 -773.31928866 0 18031.84617448 0 5108.93805026 0 -2717.11033718 0 2311
0.04750000 0.04749250 35559.59744767 0 -188.07786313 0 15114.97228907 0 470.50410222 0 -1962.09928732 0 2568
0.04850000 0.04851840 35315.14746693 0 453.85954296 0 11669.60286907 0 -225.80567867 0 -3378.55604958 0 2493
0.04950000 0.04949480 34004.50072356 0 607.40940087 0 12950.52520462 0 -944.96221615 0 -7306.35926323 0 2644
0.05050000 0.05050630 34694.59499767 0 143.61658192 0 11784.17493355 0 -659.67999385 0 -4467.00175329 0 2829
0.05150000 0.05149060 33885.71400424 0 -245.72435927 0 13709.71763573 0 1874.67847298 0 -5647.18274696 0 2784
0.05250000 0.05249300 34864.40122295 0 31.05756969 0 12567.76799794 0 166.65965270 0 -6312.80984061 0 3055
0.05350000 0.05348950 34024.79761397 0 396.61676639 0 9594.07391056 0 1187.53445725 0 -9513.81800944 0 3009
0.05450000 0.05448610 34177.19066004 0 549.64644716 0 12473.27099994 0 596.16625452 0 -2681.55195976 0 3336
0.05550000 0.05550870 32999.74919202 0 -55.63632760 0 10093.72124188 0 984.08308603 0 -3579.99436855 0 3349
0.05650000 0.05647670 33195.61973012 0 -396.03004207 0 8731.99953656 0 3117.55800299 0 -2461.95735138 0 3324
0.05750000 0.05747970 33897.69249694 0 -762.75825092 0 6521.15797528 0 2728.98900911 0 -3031.00230201 0 3639
0.05850000 0.05849280 34471.32920311 0 -112.83296479 0 5208.89191716 0 632.30248330 0 -2428.15138309 0 3846
0.05950000 0.05951020 34490.40606186 0 505.77410851 0 3402.80140611 0 290.82782078 0 -976.21055443 0 3787
0.06050000 0.06049470 33146.26390370 0 870.84418342 0 5440.68684218 0 -2025.46329549 0 -2170.62488115 0 3930
0.06150000 0.06148310 31933.66334135 0 1227.76222858 0 6548.88596765 0 -1638.87962586 0 -1691.60717615 0 4083
0.06250000 0.06249100 31644.29401297 0 568.12770864 0 8722.94911985 0 448.29619857 0 -1508.03677546 0 4303
0.06350000 0.06350600 30565.12054991 0 187.59761430 0 7139.17056043 0 460.73830331 0 -480.84886161 0 4470
0.06450000 0.06451750 30614.92002421 0 -323.72098357 0 7063.41768528 0 1305.61133996 0 568.22642029 0 4479
0.06550000 0.06550280 30357.60425501 0 588.87711989 0 8207.91829837 0 -368.47063589 0 1541.19945433 0 4636
0.06650000 0.06648880 30489.92223460 0 355.29762128 0 7113.19497718 0 229.62437778 0 2290.09925467 0 4653
0.06750000 0.06749660 29863.26960703 0 34.70856991 0 8212.98697537 0 785.07373918 0 1784.57358897 0 5220
0.06850000 0.06852730 29819.79211499 0 -253.87971638 0 6503.65606650 0 1081.47377731 0 3436.54082723 0 5029
0.06950000 0.06949320 30463.74700981 0 -420.01142811 0 6100.45778384 0 1910.52522151 0 1444.21802822 0 5040
0.07050000 0.07048030 30290.16977757 0 306.16029144 0 5599.16895537 0 487.38601309 0 2610.91212640 0 5475
0.07150000 0.07148790 29646.10397078 0 510.55996000 0 4873.82685735 0 -781.47020930 0 1278.33808666 0 5509
0.07250000 0.07249820 28555.50657486 0 1015.72959828 0 6912.91014269 0 -1509.29008071 0 763.90064421 0 5916
0.07350000 0.07351270 27752.83665172 0 437.58764792 0 6368.86474999 0 -658.62854838 0 -519.86214688 0 5721
0.07450000 0.07449140 27341.79689282 0 61.27254116 0 7247.98629369 0 428.37419061 0 -1049.81173738 0 6028
0.07550000 0.07549160 28056.06997628 0 -158.05510211 0 5150.00875256 0 620.61125260 0 -721.56554546 0 6183
0.07650000 0.07648840 27203.71149081 0 297.42375560 0 6174.64680023 0 -147.36540649 0 -2994.00206899 0 6330
0.07750000 0.07749960 26771.59845771 0 1449.79690028 0 7043.02097409 0 -2828.85414643 0 -3355.04271205 0 6583
0.07850000 0.07848650 25194.87389955 0 1210.00522226 0 9810.19697429 0 -1631.47070630 0 -2832.23696150 0 6549
0.07950000 0.07947320 24171.37824517 0 487.23073634 0 10282.83724105 0 162.45276170 0 -3047.91637736 0 6828
0.08050000 0.08048110 24145.64666825 0 -192.29806357 0 9351.65361886 0 1335.33574778 0 -2087.66272797 0 7147
0.08150000 0.08149960 24146.97761188 0 -453.59557247 0 7968.24862351 0 2540.07265149 0 -2780.91799322 0 7386
0.08250000 0.08250610 24784.38870050 0 -123.65131830 0 6679.90627720 0 1275.32128109 0 -1678.36428699 0 7227
0.08350000 0.08350160 24247.35294427 0 398.59765416 0 5397.93027794 0 411.25825548 0 46.62140272 0 7798
0.08450000 0.08449610 23679.04001264 0 295.30200963 0 5478.24163504 0 676.33675342 0 -435.64890669 0 7371
0.08550000 0.08548940 22826.34879126 0 777.35093875 0 4832.66742548 0 -363.22006326 0 -580.82269266 0 8256
0.08650000 0.08650700 22399.22679678 0 219.10881395 0 5007.67542212 0 464.40283478 0 -93.33497329 0 8037
0.08750000 0.08749060 21856.97817798 0 123.09564933 0 4722.24346866 0 666.22823653 0 -1152.40863651 0 8155
0.08850000 0.08849210 21283.34147182 0 700.63423858 0 4742.89527738 0 -367.26613191 0 388.88287476 0 8718
0.08950000 0.08949900 20268.16421515 0 1011.08127764 0 6217.22590531 0 -1465.15820806 0 -1260.98036344 0 8571
0.09050000 0.09049190 19214.05685719 0 948.34281298 0 7135.78774537 0 -794.56780377 0 437.38356989 0 8932
0.09150000 0.09150830 18113.92103190 0 565.98267115 0 7905.28389844 0 843.41898073 0 -44.49832580 0 9285
0.09250000 0.09250820 17564.46313508 0 136.40508567 0 8040.03085016 0 51.32240655 0 1747.06316089 0 9204
0.09350000 0.09350330 18077.54190591 0 -101.21571237 0 7438.82142839 0 1480.49733344 0 1827.56306834 0 9349
0.09450000 0.09448040 18059.13051897 0 -153.26370503 0 7199.86159014 0 1308.35086560 0 2283.40017172 0 9564
0.09550000 0.09549270 17893.20621263 0 -277.58936810 0 5849.41963211 0 847.94640732 0 3300.55166144 0 10155
0.09650000 0.09649430 18242.13526862 0 433.99299099 0 5936.28588661 0 -258.21193791 0 2751.40431814 0 9913
0.09750000 0.09749140 17684.69171000 0 326.01242486 0 5815.58039022 0 -764.92879817 0 3113.23243618 0 10476
0.09850000 0.09850240 16939.91783493 0 366.50860315 0 6363.26369553 0 189.93563862 0 1676.13495641 0 10575
0.09950000 0.09950330 17040.18225534 0 207.11368445 0 6760.70564697 0 -121.70814059 0 1789.29843887 0 10882
0.10050000 0.10051200 16421.95893745 0 327.47868109 0 6057.32411891 0 -26.95094311 0 616.32006850 0 10875
0.10150000 0.10150300 16169.63420687 0 108.19806450 0 6237.13460383 0 566.83558419 0 859.57441821 0 11118
0.10250000 0.10250800 16107.96715184 0 25.16869867 0 6641.96329244 0 -54.71864197 0 1171.50767766 0 11575
0.10350000 0.10349800 15802.84832380 0 188.61800442 0 5695.22981214 0 643.26502236 0 248.13003989 0 11364
0.10450000 0.10450100 15777.56039476 0 136.18658909 0 5582.68743671 0 -138.54235932 0 598.56417130 0 12093
0.10550000 0.10551000 15450.92464463 0 149.85538021 0 5193.30878544 0 169.66536708 0 577.67722921 0 12067
0.10650000 0.10649700 15222.66781144 0 178.03700253 0 6107.98870657 0 493.83110764 0 1474.96282616 0 12054
0.10750000 0.10749900 15322.15584806 0 44.93398802 0 4718.81628880 0 278.08181724 0 384.56729003 0 12807
0.10850000 0.10850100 14999.84566475 0 52.03712328 0 5662.31113960 0 -49.22905404 0 1347.49169963 0 12736
0.10950000 0.10950300 15140.26021811 0 -45.33205108 0 5007.57560135 0 423.11030854 0 1601.83502805 0 12933
0.11050000 0.11050200 15339.01446742 0 -149.77885095 0 4995.45292309 0 514.62599280 0 711.88182140 0 13428
0.11150000 0.11150900 15403.89796957 0 140.11952753 0 4624.01982849 0 -325.66194303 0 1745.52148451 0 13453
0.11250000 0.11250000 15324.92864730 0 79.19092439 0 5171.24839471 0 180.39055452 0 571.44952212 0 13668
0.11350000 0.11349100 15283.11483480 0 113.20119253 0 5260.33288860 0 -285.03045213 0 2098.34355063 0 13791
0.11450000 0.11448600 14846.67623489 0 405.39655789 0 5328.68793539 0 -111.22695948 0 209.11009990 0 14205
0.11550000 0.11549300 14630.17607046 0 373.16443044 0 5669.39841445 0 -482.80978523 0 996.90340058 0 14776
0.11650000 0.11649800 14322.50626712 0 134.81460803 0 6392.28935794 0 10.78932784 0 719.88079264 0 14553
0.11750000 0.11747300 14132.18132749 0 148.99692156 0 6361.65547197 0 226.78503136 0 1203.51687205 0 14568
0.11850000 0.11849100 14094.91490574 0 -40.27912357 0 5831.07479236 0 467.36307524 0 838.72740442 0 16015
0.11950000 0.11950300 14030.80778738 0 217.02921452 0 5712.86481529 0 34.61351835 0 688.37624771 0 15270
0.12050000 0.12050700 13605.12764851 0 224.74646936 0 5900.17294935 0 157.48390547 0 1340.00514169 0 15999
0.12150000 0.12150000 13542.01873787 0 64.55631184 0 5510.80538928 0 1056.50638386 0 1740.78554342 0 15670
0.12250000 0.12250700 13281.48652156 0 40.10088804 0 4995.57492625 0 584.20439861 0 1838.73190367 0 16887
0.12350000 0.12352200 13332.28420358 0 32.08849645 0 4508.68247142 0 419.43357675 0 2100.94998192 0 16407
0.12450000 0.12449800 13132.64265851 0 175.57253857 0 4211.89313228 0 63.22658824 0 1878.51602712 0 16306
0.12550000 0.12549900 12869.78129084 0 251.06920708 0 4289.85315563 0 -284.27181426 0 1603.28797485 0 17523
0.12650000 0.12650100 12643.40996113 0 195.32041474 0 4652.10273916 0 -484.79289125 0 1644.74686904 0 17154
0.12750000 0.12750600 12362.91359031 0 115.53699861 0 4541.98933586 0 263.31832499 0 595.66825978 0 18007
0.12850000 0.12850300 12188.00541443 0 245.65670297 0 4856.46913413 0 -559.26695140 0 302.10645895 0 17496
0.12950000 0.12949900 12266.53108883 0 135.87381733 0 5116.80170890 0 -95.86143705 0 490.26528782 0 18405
0.13050000 0.13049000 11725.50250169 0 36.29816025 0 5275.06199815 0 376.99089339 0 170.00808506 0 18100
0.13150000 0.13148800 12011.65538296 0 -30.71307712 0 5084.70378493 0 153.46334657 0 870.98282339 0 19059
0.13250000 0.13249300 12147.41163360 0 -118.76897340 0 4557.76101792 0 289.75530203 0 270.60302314 0 18957
0.13350000 0.13349100 12367.68280499 0 -72.03798965 0 4733.01302090 0 277.74797222 0 704.66034307 0 19468
0.13450000 0.13450700 12217.50799831 0 58.94072791 0 4154.52946167 0 250.24291290 0 653.89926200 0 19953
0.13550000 0.13551000 12136.65317256 0 79.74614971 0 4214.81011708 0 55.38688658 0 495.54247933 0 19956
0.13650000 0.13649900 12226.27004390 0 111.16817613 0 4596.79093998 0 170.18776245 0 610.10456173 0 19723
0.13750000 0.13749600 11794.15701080 0 186.43303862 0 4108.60081511 0 119.67068771 0 121.51515376 0 20946
0.13850000 0.13851100 11756.11420527 0 151.57562485 0 3901.35070893 0 206.70885576 0 746.02163473 0 20955
0.13950000 0.13949800 11524.30818905 0 125.88841272 0 3708.24187887 0 191.98861917 0 724.01004527 0 20506
0.14050000 0.14048300 11374.24429434 0 -8.80872844 0 3308.28222572 0 477.37288049 0 700.32923066 0 21447
0.14150000 0.14148400 11137.11450359 0 134.84122690 0 3345.83701858 0 440.06653043 0 884.87232932 0 21771
0.14250000 0.14249400 11208.20907603 0 157.83438729 0 2611.28922710 0 8.99118972 0 921.57199091 0 22470
0.14350000 0.14350900 10876.42701052 0 65.15268550 0 2719.66131248 0 293.10151615 0 593.19048638 0 22519
0.14450000 0.14449900 10764.37264775 0 121.87339943 0 2838.86949728 0 -117.00769132 0 1150.24585311 0 22218
0.14550000 0.14550500 10546.97409637 0 192.57645261 0 2237.36061318 0 193.45154805 0 693.70889520 0 23559
0.14650000 0.14650700 10319.68219731 0 214.72113644 0 2807.91396659 0 -13.93231796 0 463.17282104 0 23044
0.14750000 0.14750500 10062.45515768 0 223.14157316 0 2575.53120813 0 -377.47225134 0 580.38569951 0 23649
0.14850000 0.14849900 9889.60994444 0 222.42508184 0 3193.06687182 0 -190.35377674 0 471.56552977 0 23640
0.14950000 0.14949500 9619.73894030 0 -27.59423254 0 2966.51808295 0 125.87066681 0 510.95924309 0 24457
0.15050000 0.15050000 9673.19850959 0 -64.97644638 0 2868.52735792 0 334.68463175 0 206.78871238 0 24591
0.15150000 0.15149900 10094.56417285 0 -150.30235544 0 2403.20728115 0 560.32061511 0 836.75428048 0 25020
0.15250000 0.15250500 9935.12821672 0 21.16233651 0 2250.39276960 0 162.51709064 0 406.07201179 0 25297
0.15350000 0.15350100 9996.52908302 0 124.44877536 0 2002.88161850 0 28.18738975 0 955.20715477 0 25452
0.15450000 0.15450400 9809.26531375 0 94.20019757 0 2465.80599673 0 -77.44350631 0 1244.25483844 0 26061
0.15550000 0.15549900 9756.77067859 0 57.26673355 0 2301.40118436 0 136.21098972 0 886.38627771 0 26128
0.15650000 0.15649500 9759.47693065 0 111.28130634 0 2518.15644632 0 -33.00873306 0 1282.89656861 0 26331
0.15750000 0.15749700 9707.31503140 0 69.86899518 0 2321.86444273 0 -24.88609498 0 1127.65308492 0 27345
0.15850000 0.15849900 9479.63494045 0 175.88752856 0 2802.27963854 0 -87.75865220 0 1589.87871774 0 26980
0.15950000 0.15949700 9403.97079487 0 167.77764536 0 2955.43797720 0 -268.84174107 0 1291.21496632 0 27777
0.16050000 0.16050000 9135.50837274 0 84.34189807 0 2833.13534845 0 345.03382762 0 1339.59476741 0 28224
0.16150000 0.16150500 9089.15826069 0 167.16208392 0 3144.68707073 0 -173.56614104 0 1130.35933698 0 28075
0.16250000 0.16249700 8925.46328493 0 98.43903122 0 2795.75801474 0 -74.24092319 0 857.04451618 0 28590
0.16350000 0.16349900 8966.01270097 0 42.74835675 0 3131.08926327 0 234.10078487 0 1453.42372169 0 29163
0.16450000 0.16449100 8850.19842244 0 -6.29356661 0 2814.65741434 0 88.19553445 0 694.34442079 0 28996
0.16550000 0.16550500 8802.45081958 0 85.12637843 0 2632.92815234 0 34.77400797 0 1017.73821405 0 30777
0.16650000 0.16650700 8685.58287733 0 101.37997300 0 2652.09374067 0 12.15550821 0 490.10557459 0 29211
0.16750000 0.16749900 8565.87558867 0 179.57646067 0 2652.17137905 0 -107.61344751 0 879.46426169 0 30922
0.16850000 0.16850800 8408.11440328 0 132.67178877 0 2801.92472024 0 -24.20997561 0 307.33484920 0 30867
0.16950000 0.16949900 8166.91414325 0 180.16096675 0 3201.18562798 0 -197.80262461 0 791.84824228 0 30852
0.17050000 0.17049200 8084.05181085 0 138.86954963 0 3060.02796442 0 -142.78585127 0 -57.12077340 0 31257
0.17150000 0.17149500 7933.43335629 0 103.65621935 0 3480.01831926 0 -187.84605711 0 259.06041448 0 32608
0.17250000 0.17250900 7712.03088281 0 65.37517491 0 3212.83138478 0 -11.30115331 0 55.83497094 0 32361
0.17350000 0.17350400 7853.82074460 0 -74.16838676 0 3333.81416109 0 296.00186415 0 49.55502432 0 32508
0.17450000 0.17449800 7932.39078378 0 -100.95063277 0 2821.84450996 0 423.98207662 0 -105.16750585 0 32791
0.17550000 0.17549800 8024.75827196 0 44.49499845 0 2744.19504013 0 177.50795244 0 -109.87039518 0 33633
0.17650000 0.17650100 7956.09267166 0 52.93684118 0 2468.74516392 0 5.62925937 0 -23.00935354 0 33984
0.17750000 0.17750300 7867.21891051 0 -12.90749136 0 2325.28053139 0 162.69122244 0 -87.12589942 0 34069
0.17850000 0.17849800 7946.99789016 0 -54.11960642 0 1910.09266483 0 284.69106151 0 164.61221775 0 34536
