### header ###
fiducial parameters:
Omega_m = 0.31
Omega_nu = 0
Omega_de = 0.69
Omega_k = 0
H_0 = 100
w_de = -1
zeff = 0
beta = 0
fgrowth = 0
b_1 = 2
gamma = 0.55
Lx = 3500 Ly = 3500 Lz = 3500
nx = 700 ny = 700 nz = 700
xoffset = 1379.75464 yoffset = 22.6059522 zoffset = 368.141391
bins = 400 dk = 0.001
kx_ny = 0.628318531 ky_ny = 0.628318531 kz_ny = 0.628318531
############################
A(data) = 3.32372789 (not used)
A(ran) = 3.32281777 (used)
Ngal = 186931
weighted Ngal = 0
Nran = 9399747
weighted Nran = 0
SN(data) = 6645.37879
SN(ran) = 132.166349
SN(data+ran) = 6777.54514
############################
13 columns: k_central k_mean P_0(k) sigma^{lin}_{P_0(k)} P^img_1(k) sigma^{lin}_{P_1(k)} P_2(k) sigma^{lin}_{P_2(k)} P^img_3(k) sigma^{lin}_{P_3(k)} P_4(k) sigma^{lin}_{P_4(k)} N_modes
### header ###
0.00050000 0 0 0 0 0 0 0 0 0 0 0 0
0.00150000 0.00179520 3582.70062061 0 -14310.30595047 0 -7479.86994829 0 -16665.74344637 0 21557.18312447 0 3
0.00250000 0.00253879 22353.30924142 0 -25760.85767982 0 -28396.90245850 0 -1194.47754654 0 -21795.86568280 0 6
0.00350000 0.00331552 46576.81611224 0 -32668.23331523 0 -47322.14454716 0 8333.49283021 0 17398.53882874 0 7
0.00450000 0.00420575 68449.32196596 0 -18355.93094931 0 -42310.80903005 0 -22234.30069816 0 -11965.07235577 0 24
0.00550000 0.00557378 94062.44490243 0 -12482.47669341 0 -37309.67741413 0 -18027.07695979 0 -1456.35179768 0 45
0.00650000 0.00659388 96707.58446261 0 -3969.23992545 0 -26825.27985094 0 -15384.93202279 0 -26962.36704522 0 40
0.00750000 0.00754703 98422.94898262 0 2429.19395560 0 -16349.64433334 0 -49545.81862331 0 -17070.35031104 0 57
0.00850000 0.00846663 108511.16899081 0 7243.50545013 0 15902.00362451 0 -36088.42571816 0 -34323.70537173 0 75
0.00950000 0.00948925 88330.18158368 0 5275.77183475 0 9746.78860134 0 -28495.83593528 0 -16204.01691741 0 112
0.01050000 0.01054430 88546.90357204 0 8977.42554263 0 55482.71452576 0 -3654.92649514 0 -18987.68552748 0 105
0.01150000 0.01145670 90764.03384199 0 2859.72094754 0 58757.05768881 0 2444.78817851 0 -24337.08072758 0 144
0.01250000 0.01249090 86588.19819099 0 -6804.94843160 0 45212.93162352 0 31473.60049194 0 -13635.96117602 0 169
0.01350000 0.01339930 111109.39278790 0 -10355.16293634 0 43857.92009236 0 27311.29610121 0 10387.17213074 0 180
0.01450000 0.01448870 113169.02806119 0 -5359.35509496 0 10372.97539864 0 4791.72981754 0 9475.34264723 0 267
0.01550000 0.01550050 109073.27085215 0 4021.29091273 0 55107.49933300 0 4465.07188502 0 4186.37228811 0 238
0.01650000 0.01653350 112761.98113319 0 5973.01993090 0 12215.17884696 0 -17.71630162 0 8855.76620331 0 315
0.01750000 0.01747870 97077.14314492 0 5179.02332378 0 43147.97257570 0 1450.56219287 0 -8364.70345843 0 297
0.01850000 0.01844180 100988.12101280 0 5105.16704330 0 32256.52808452 0 -17685.13535788 0 6156.84542912 0 388
0.01950000 0.01947590 88436.43525044 0 10346.46743794 0 50556.33757727 0 -5340.78843127 0 -8723.13767020 0 399
0.02050000 0.02045430 80125.24681729 0 6254.38141509 0 40743.73381323 0 1924.89941276 0 -7510.74784059 0 462
0.02150000 0.02154770 71419.32268475 0 3153.70421385 0 52290.77895603 0 12217.06435044 0 -3146.32856788 0 571
0.02250000 0.02255340 68400.07705151 0 3985.66598813 0 46450.04373113 0 5688.53072918 0 7492.71355436 0 510
0.02350000 0.02348930 64954.26398363 0 872.84281711 0 36576.32747191 0 13964.92607751 0 2975.29121974 0 555
0.02450000 0.02439640 67649.86848993 0 -585.46657683 0 33824.04694921 0 15023.58082621 0 17556.36656131 0 592
0.02550000 0.02547300 64444.51257189 0 -89.39515831 0 26718.24980039 0 4604.97624333 0 19446.41743326 0 837
0.02650000 0.02652900 63807.87786706 0 363.79347814 0 19753.08902888 0 3946.02605024 0 10376.02547780 0 723
0.02750000 0.02749970 63006.53888755 0 -658.59305655 0 21046.54441698 0 4168.97020009 0 17705.21042436 0 826
0.02850000 0.02848090 63987.11160975 0 1070.54894832 0 17531.52228015 0 -2097.33425171 0 8188.54197730 0 831
0.02950000 0.02946900 62603.48479046 0 3230.65493828 0 23371.37020929 0 -1042.93852263 0 10846.71369389 0 996
0.03050000 0.03053250 57485.67378264 0 1795.09913487 0 21964.23005247 0 -988.91330230 0 8278.32521659 0 1041
0.03150000 0.03150510 56786.70655096 0 444.44200763 0 22738.06286355 0 4842.40549640 0 1926.49654512 0 1036
0.03250000 0.03246190 57857.33979237 0 -258.13097217 0 19440.53909888 0 3652.56407019 0 6918.50010595 0 1059
0.03350000 0.03345080 55581.86982648 0 1479.61003768 0 14538.11913579 0 1395.76058875 0 -4434.67091419 0 1302
0.03450000 0.03451200 52544.76736614 0 3020.18838499 0 20446.17792617 0 -1797.84975172 0 4548.30022692 0 1339
0.03550000 0.03553350 48442.90999878 0 2591.26961660 0 18459.74455274 0 -2803.32221106 0 -4420.08599020 0 1365
0.03650000 0.03647120 46652.56898740 0 1841.72652684 0 19083.95711699 0 3252.97042654 0 1330.75508344 0 1308
0.03750000 0.03744890 45062.20225699 0 -893.46135224 0 14514.93853417 0 6192.30398577 0 -3419.29401597 0 1579
0.03850000 0.03847530 44365.89691259 0 -937.57991546 0 6920.13051190 0 4844.53500621 0 -364.63751823 0 1662
0.03950000 0.03950240 45206.83146520 0 783.24147345 0 7800.09498658 0 3048.98113226 0 2559.64861410 0 1683
0.04050000 0.04050350 42955.09666077 0 1728.35231164 0 6795.65400855 0 -2399.35863581 0 -994.61750489 0 1822
0.04150000 0.04152450 41219.98981019 0 2173.87460185 0 8610.37347083 0 -2002.77070653 0 4027.65725978 0 1887
0.04250000 0.04250150 39369.20177544 0 638.66883035 0 9436.47909312 0 813.23983383 0 224.71097753 0 1920
0.04350000 0.04349210 38619.10412583 0 119.33018797 0 11437.57502892 0 146.68884348 0 5978.65425895 0 2005
0.04450000 0.04448520 37966.49809740 0 889.92215130 0 10418.48257972 0 -567.60753150 0 -150.10160478 0 2151
0.04550000 0.04548030 37667.14669177 0 839.08454096 0 13021.84160100 0 -1229.34826974 0 5332.03747687 0 2274
0.04650000 0.04648670 36322.00632589 0 627.55323277 0 12388.09060738 0 1692.13955360 0 5833.34848774 0 2311
0.04750000 0.04749250 36840.40887125 0 -282.87099609 0 11358.82753058 0 1968.32144881 0 3551.83381950 0 2568
0.04850000 0.04851840 37643.74426621 0 332.90671288 0 13252.76032146 0 1064.19147422 0 3475.37110774 0 2493
0.04950000 0.04949480 36001.91438196 0 1236.02517030 0 11644.75858791 0 -627.71072776 0 -311.87891259 0 2644
0.05050000 0.05050630 32851.57080079 0 2282.34650801 0 14602.22625415 0 -4067.01991775 0 6119.44591302 0 2829
0.05150000 0.05149060 31064.88988440 0 1581.70450559 0 12672.91254501 0 -58.87207340 0 1291.95807651 0 2784
0.05250000 0.05249300 30997.67723089 0 -376.36091340 0 17756.89540213 0 3226.91720490 0 2616.04735059 0 3055
0.05350000 0.05348950 31711.61757845 0 -864.24935772 0 15288.43860934 0 2664.46042527 0 1149.13673341 0 3009
0.05450000 0.05448610 31483.47165722 0 -35.97263362 0 12847.93163285 0 597.54489030 0 2030.99780276 0 3336
0.05550000 0.05550870 32579.83647556 0 610.48942626 0 13728.68358251 0 -880.87728018 0 2369.25712729 0 3349
0.05650000 0.05647670 32016.95823043 0 -308.16668897 0 13364.11593882 0 45.71913385 0 1927.05110497 0 3324
0.05750000 0.05747970 32580.50194737 0 -831.67451228 0 12714.39362159 0 2197.07738587 0 1091.48136432 0 3639
0.05850000 0.05849280 33337.47613909 0 -175.74667036 0 12233.47932192 0 1437.36366850 0 1078.63997649 0 3846
0.05950000 0.05951020 33035.68467013 0 801.82699217 0 10687.20009938 0 36.39465367 0 1414.60453237 0 3787
0.06050000 0.06049470 32078.95802137 0 1152.61936925 0 11692.22891085 0 -1394.05254442 0 813.60251597 0 3930
0.06150000 0.06148310 29790.40044308 0 1595.33558664 0 12401.84369159 0 -1651.62341115 0 -1447.64520808 0 4083
0.06250000 0.06249100 27793.09769664 0 1726.13407225 0 14358.21992129 0 -1181.15701900 0 -1581.03903377 0 4303
0.06350000 0.06350600 26616.76534831 0 361.14933679 0 14178.54253073 0 1408.03854377 0 -301.02506725 0 4470
0.06450000 0.06451750 26518.60825532 0 -531.58886941 0 12779.27712374 0 3669.53360152 0 117.55226910 0 4479
0.06550000 0.06550280 27051.20753278 0 -1112.79088101 0 9186.60551708 0 4413.88601111 0 1823.96952053 0 4636
0.06650000 0.06648880 28220.55242703 0 -933.18891059 0 6558.19148189 0 3759.01737849 0 4519.59620922 0 4653
0.06750000 0.06749660 29301.50048160 0 -390.46004296 0 4622.07886902 0 1305.56697517 0 5743.60961323 0 5220
0.06850000 0.06852730 28507.14895617 0 576.69454916 0 4152.75487016 0 51.75152496 0 5897.10068779 0 5029
0.06950000 0.06949320 28469.32797458 0 743.42740376 0 5177.86983929 0 -1070.82622824 0 6058.71051853 0 5040
0.07050000 0.07048030 28035.21852602 0 212.91659870 0 5675.52075516 0 -1834.53943122 0 4537.55285708 0 5475
0.07150000 0.07148790 28010.48515683 0 -203.38149668 0 6356.18751188 0 1150.30130909 0 4675.62716789 0 5509
0.07250000 0.07249820 27178.86720965 0 562.91595519 0 8158.30737442 0 -480.07358695 0 2992.58239578 0 5916
0.07350000 0.07351270 27015.82661451 0 783.16383507 0 5429.55128044 0 -1564.63515349 0 858.68157685 0 5721
0.07450000 0.07449140 25716.82562794 0 865.23314689 0 8756.05634274 0 -71.69061336 0 1171.67404561 0 6028
0.07550000 0.07549160 24912.15928934 0 761.37628778 0 8357.46090682 0 -1583.15745239 0 1387.46437343 0 6183
0.07650000 0.07648840 24300.92342553 0 426.72271139 0 8934.23642172 0 1015.79836370 0 690.64550661 0 6330
0.07750000 0.07749960 23773.98065852 0 -137.62068085 0 7736.70879602 0 1012.41776687 0 -498.31306033 0 6583
0.07850000 0.07848650 24077.10307111 0 -595.64607739 0 6982.41867397 0 1507.95913708 0 910.14473069 0 6549
0.07950000 0.07947320 24792.15253836 0 -345.79579285 0 5720.04081971 0 1804.59319946 0 195.72857078 0 6828
0.08050000 0.08048110 24649.74156955 0 -14.76016490 0 5694.79725546 0 -402.82783668 0 763.22962679 0 7147
0.08150000 0.08149960 24831.30446359 0 552.29835235 0 4720.87925144 0 -410.59500190 0 -315.84956109 0 7386
0.08250000 0.08250610 24199.54988542 0 512.74825316 0 6420.03953271 0 -1510.62102435 0 -175.66126815 0 7227
0.08350000 0.08350160 23254.13625755 0 775.74715167 0 7770.86968262 0 -1246.57289860 0 -960.23923083 0 7798
0.08450000 0.08449610 22769.11821501 0 762.51424459 0 8474.69485856 0 -1479.18857220 0 -2787.27324907 0 7371
0.08550000 0.08548940 21945.81866554 0 421.79267434 0 8864.18442179 0 -399.94190723 0 -3096.14090169 0 8256
0.08650000 0.08650700 21660.77490397 0 -16.92793934 0 9527.40472570 0 1431.14150702 0 -1365.83653939 0 8037
0.08750000 0.08749060 21924.63447937 0 -386.72785519 0 7656.91872517 0 1320.32935831 0 -2505.31284026 0 8155
0.08850000 0.08849210 22212.11830427 0 -251.53836471 0 6724.45961534 0 1362.56463629 0 -1809.16277260 0 8718
0.08950000 0.08949900 22570.69670160 0 296.54533280 0 5485.93892573 0 275.11159470 0 -2350.00280939 0 8571
0.09050000 0.09049190 21084.03266266 0 648.45792077 0 6027.51098151 0 -158.96458026 0 -1233.15255029 0 8932
0.09150000 0.09150830 20384.17813523 0 822.26917727 0 5727.51628646 0 -900.79041518 0 -2305.39401526 0 9285
0.09250000 0.09250820 19556.88575486 0 632.77607741 0 6609.77663890 0 -220.34104593 0 -2849.40613438 0 9204
0.09350000 0.09350330 18521.85525565 0 740.70340579 0 5926.68091006 0 428.23998713 0 -3022.08497966 0 9349
0.09450000 0.09448040 17852.94516771 0 263.30390643 0 6911.03573041 0 24.81877141 0 -2611.22267991 0 9564
0.09550000 0.09549270 17130.24277456 0 416.77168948 0 5475.12500870 0 398.70634789 0 -2184.17832382 0 10155
0.09650000 0.09649430 16955.22368672 0 250.01443425 0 6172.38419605 0 512.44324524 0 -2355.12694238 0 9913
0.09750000 0.09749140 16398.66742386 0 109.00860917 0 5287.82796584 0 159.27624289 0 -1530.27462534 0 10476
0.09850000 0.09850240 16695.68967813 0 -77.46934880 0 5263.52715332 0 1137.79043893 0 -1657.72356947 0 10575
0.09950000 0.09950330 16565.92267383 0 -163.34560305 0 4461.47833721 0 24.64707968 0 -1520.90256392 0 10882
0.10050000 0.10051200 16715.87565657 0 150.46983252 0 4608.35905840 0 206.83196805 0 -786.11631170 0 10875
0.10150000 0.10150300 16427.83727183 0 201.12111074 0 4707.31471757 0 87.02729868 0 -631.79339736 0 11118
0.10250000 0.10250800 16418.63157836 0 162.95741116 0 4730.87241989 0 -181.12590088 0 -33.52647014 0 11575
0.10350000 0.10349800 15880.81943834 0 496.72369180 0 5281.30634203 0 -135.10741562 0 -943.20758879 0 11364
0.10450000 0.10450100 15539.98695612 0 236.91240329 0 5487.81333801 0 -13.30255980 0 533.45551786 0 12093
0.10550000 0.10551000 15272.46728573 0 106.72215892 0 5223.48793234 0 713.12403546 0 696.85879514 0 12067
0.10650000 0.10649700 15307.07182021 0 27.40324212 0 5359.36618615 0 436.82679181 0 1315.89287953 0 12054
0.10750000 0.10749900 15193.71978740 0 -45.29278824 0 5215.53554413 0 285.24673047 0 887.13826086 0 12807
0.10850000 0.10850100 15626.72011626 0 36.60039537 0 4926.87605235 0 34.11352719 0 1376.92773633 0 12736
0.10950000 0.10950300 14990.75088325 0 238.03926890 0 5658.01884638 0 -475.32433641 0 140.53877477 0 12933
0.11050000 0.11050200 14866.30765349 0 394.70131668 0 5538.53338166 0 -317.76168345 0 1187.44572767 0 13428
0.11150000 0.11150900 14532.90627323 0 150.57076241 0 6103.11967111 0 -14.48244133 0 102.34346528 0 13453
0.11250000 0.11250000 14510.61296736 0 127.34801424 0 6140.04226575 0 279.93626537 0 1184.37346612 0 13668
0.11350000 0.11349100 14205.93778719 0 -59.36163883 0 5950.33843315 0 848.10279320 0 1122.20730722 0 13791
0.11450000 0.11448600 14564.62709650 0 -87.57143280 0 4853.13068385 0 498.35409776 0 1418.99664636 0 14205
0.11550000 0.11549300 14201.83404432 0 233.26450862 0 5418.04970921 0 379.86351340 0 1684.61972207 0 14776
0.11650000 0.11649800 14065.85596974 0 304.54984964 0 4648.52028255 0 -421.94129638 0 1392.15594974 0 14553
0.11750000 0.11747300 13734.67282886 0 187.17503970 0 5100.51983178 0 213.17502358 0 1694.66834651 0 14568
0.11850000 0.11849100 13667.57108733 0 -59.39413604 0 4415.68278501 0 21.91332146 0 757.32689178 0 16015
0.11950000 0.11950300 13809.20567235 0 -56.14563537 0 4604.03349159 0 488.60382652 0 596.19730987 0 15270
0.12050000 0.12050700 13657.81083401 0 57.67100768 0 3893.84196860 0 456.99280610 0 885.81729930 0 15999
0.12150000 0.12150000 13477.46797163 0 13.45972206 0 3564.86597592 0 121.91110950 0 48.61193984 0 15670
0.12250000 0.12250700 13693.41357621 0 55.62434911 0 3279.32311048 0 433.12011379 0 1108.85572433 0 16887
0.12350000 0.12352200 13236.67808589 0 120.52803724 0 3412.53947703 0 199.80236742 0 359.19950437 0 16407
0.12450000 0.12449800 13434.10139157 0 29.31214803 0 2984.28618046 0 294.47571545 0 1656.88063850 0 16306
0.12550000 0.12549900 13115.11856733 0 165.92541547 0 3152.93892126 0 -190.17299023 0 574.57945790 0 17523
0.12650000 0.12650100 13260.52415933 0 206.91404291 0 3488.85800323 0 -187.79725585 0 1282.20891440 0 17154
0.12750000 0.12750600 12682.11823848 0 174.46230976 0 3596.26515448 0 -48.49237674 0 1133.24304818 0 18007
0.12850000 0.12850300 12597.27058182 0 112.05990837 0 3647.25138685 0 26.81884696 0 1260.85836027 0 17496
0.12950000 0.12949900 12851.03716800 0 -86.02487630 0 3501.23577902 0 389.55611041 0 1254.93566110 0 18405
0.13050000 0.13049000 12849.37348845 0 -199.63156299 0 3293.88585208 0 676.02065431 0 1060.98611831 0 18100
0.13150000 0.13148800 12933.99932117 0 -11.54948521 0 3068.41290932 0 -3.10183069 0 1653.76401216 0 19059
0.13250000 0.13249300 12957.84539461 0 386.39290104 0 3113.90899920 0 -481.08066763 0 606.08733019 0 18957
0.13350000 0.13349100 12644.96272870 0 152.18009509 0 3824.95454435 0 -617.99151188 0 802.70541497 0 19468
0.13450000 0.13450700 12389.97611086 0 215.26016861 0 3852.33870962 0 -285.74250698 0 706.81203528 0 19953
0.13550000 0.13551000 12487.91137991 0 -31.47082769 0 3986.97474937 0 600.54838644 0 769.79339715 0 19956
0.13650000 0.13649900 12144.74974633 0 51.24565547 0 3737.93301310 0 111.58076866 0 638.88399957 0 19723
0.13750000 0.13749600 12345.61132307 0 224.34718627 0 4320.99723666 0 -71.93728158 0 342.45512433 0 20946
0.13850000 0.13851100 12044.59623789 0 248.24427921 0 3945.21639286 0 -169.78293376 0 492.68205964 0 20955
0.13950000 0.13949800 11668.27192544 0 219.92623517 0 4509.51431119 0 -149.04239547 0 1065.32943103 0 20506
0.14050000 0.14048300 11362.26580164 0 164.09980445 0 4582.67184626 0 18.81954298 0 685.36055126 0 21447
0.14150000 0.14148400 11313.46453506 0 213.04858394 0 4617.46493109 0 181.43645440 0 640.71182883 0 21771
0.14250000 0.14249400 11073.91686338 0 155.42648843 0 4476.28508514 0 211.42926918 0 1134.29671189 0 22470
0.14350000 0.14350900 10756.37589475 0 -28.64567801 0 4276.65463127 0 552.72092696 0 1018.60776389 0 22519
0.14450000 0.14449900 10825.78460525 0 117.97817106 0 4210.16290556 0 237.24513920 0 1807.26617793 0 22218
0.14550000 0.14550500 10676.14217603 0 64.80752745 0 3654.61594162 0 276.94496956 0 1480.68588378 0 23559
0.14650000 0.14650700 10572.76112927 0 79.63812145 0 3741.98129998 0 473.49539804 0 1608.56738460 0 23044
0.14750000 0.14750500 10451.11288114 0 58.58237134 0 3350.93896918 0 117.97595282 0 1584.87658792 0 23649
0.14850000 0.14849900 10290.63435250 0 266.73108629 0 3439.00307295 0 -61.38378586 0 1598.61858094 0 23640
0.14950000 0.14949500 9889.64321803 0 323.53132410 0 3321.69148283 0 -467.21334408 0 1292.43499798 0 24457
0.15050000 0.15050000 9511.07848380 0 153.47111041 0 3572.91818490 0 142.25901942 0 1036.08083556 0 24591
0.15150000 0.15149900 9618.18617273 0 42.20167165 0 3623.58277256 0 62.31056628 0 1012.36896560 0 25020
0.15250000 0.15250500 9271.19807620 0 123.76666675 0 3340.61306482 0 173.25004193 0 277.99752415 0 25297
0.15350000 0.15350100 9161.53941197 0 164.34048342 0 3372.48916485 0 -276.96382459 0 684.22703093 0 25452
0.15450000 0.15450400 9094.47094403 0 163.75264998 0 3494.29268973 0 -188.54258428 0 467.14679690 0 26061
0.15550000 0.15549900 8960.67783524 0 -40.29442942 0 3476.00330597 0 317.07070188 0 -31.62366439 0 26128
0.15650000 0.15649500 9115.54421823 0 -105.55004123 0 3215.69291359 0 373.88314000 0 403.71291420 0 26331
0.15750000 0.15749700 8993.99579087 0 20.88006555 0 2917.00697978 0 145.02072746 0 262.45542986 0 27345
0.15850000 0.15849900 9293.38047010 0 2.81094186 0 3059.87268767 0 74.57920470 0 976.44457869 0 26980
0.15950000 0.15949700 9173.66209024 0 -72.48574127 0 2785.82030227 0 280.47197019 0 478.92786630 0 27777
0.16050000 0.16050000 9235.31805407 0 63.09116472 0 2781.86074496 0 51.70372190 0 944.29563521 0 28224
0.16150000 0.16150500 9242.58278807 0 88.88695967 0 2860.08695704 0 -101.24000210 0 565.69873651 0 28075
0.16250000 0.16249700 9081.52751719 0 171.91022534 0 3004.96017158 0 -199.39199314 0 479.28056636 0 28590
0.16350000 0.16349900 8953.45746603 0 121.21125497 0 2948.25088158 0 -181.28783236 0 250.09096351 0 29163
0.16450000 0.16449100 8774.96683354 0 81.49467690 0 2934.25379103 0 21.09102012 0 -116.70933813 0 28996
0.16550000 0.16550500 8692.52596662 0 106.33751621 0 2814.76832631 0 55.02143164 0 -45.49265161 0 30777
0.16650000 0.16650700 8496.73306690 0 82.15859595 0 2731.91708510 0 277.04368121 0 -277.97312351 0 29211
0.16750000 0.16749900 8530.51685280 0 -55.88532497 0 2411.50349647 0 366.08824679 0 22.84553656 0 30922
0.16850000 0.16850800 8487.22791111 0 4.92243957 0 2089.74787300 0 261.17661486 0 -127.89481025 0 30867
0.16950000 0.16949900 8491.13201244 0 70.43730811 0 2040.80242087 0 224.13867177 0 227.23644308 0 30852
0.17050000 0.17049200 8480.88374646 0 -5.62118498 0 2140.39027826 0 44.31376829 0 322.74495824 0 31257
0.17150000 0.17149500 8509.38812262 0 34.94625426 0 1728.21921728 0 94.43233632 0 -114.21381881 0 32608
0.17250000 0.17250900 8395.60353312 0 209.97964974 0 2195.01442323 0 -414.22958714 0 498.78887268 0 32361
0.17350000 0.17350400 8041.27306422 0 284.92286752 0 2388.69999554 0 -428.86663976 0 -314.52970866 0 32508
0.17450000 0.17449800 8033.75323269 0 84.25172664 0 2747.25621048 0 -229.88169355 0 448.37605519 0 32791
0.17550000 0.17549800 7814.90173451 0 84.27890007 0 2844.78110525 0 160.45634625 0 -269.80889344 0 33633
0.17650000 0.17650100 7773.35411074 0 61.32478069 0 2785.33228961 0 224.72428697 0 116.31670976 0 33984
0.17750000 0.17750300 7680.69825143 0 30.59617590 0 2703.88963042 0 214.13441212 0 -124.13378536 0 34069
0.17850000 0.17849800 7715.62443062 0 138.97824336 0 2640.44798387 0 4.32302693 0 85.43549009 0 34536
