### header ###
fiducial parameters:
Omega_m = 0.31
Omega_nu = 0
Omega_de = 0.69
Omega_k = 0
H_0 = 100
w_de = -1
zeff = 0
beta = 0
fgrowth = 0
b_1 = 2
gamma = 0.55
Lx = 3500 Ly = 3500 Lz = 3500
nx = 700 ny = 700 nz = 700
xoffset = 1379.75464 yoffset = 22.6059522 zoffset = 368.141391
bins = 400 dk = 0.001
kx_ny = 0.628318531 ky_ny = 0.628318531 kz_ny = 0.628318531
############################
A(data) = 3.26931587 (not used)
A(ran) = 3.2637538 (used)
Ngal = 183092
weighted Ngal = 0
Nran = 9399747
weighted Nran = 0
SN(data) = 6715.75958
SN(ran) = 129.817057
SN(data+ran) = 6845.57663
############################
13 columns: k_central k_mean P_0(k) sigma^{lin}_{P_0(k)} P^img_1(k) sigma^{lin}_{P_1(k)} P_2(k) sigma^{lin}_{P_2(k)} P^img_3(k) sigma^{lin}_{P_3(k)} P_4(k) sigma^{lin}_{P_4(k)} N_modes
### header ###
0.00050000 0 0 0 0 0 0 0 0 0 0 0 0
0.00150000 0.00179520 44002.54930056 0 447.10278578 0 -17410.85005735 0 32549.89024380 0 -59450.03567414 0 3
0.00250000 0.00253879 65911.21245632 0 2428.73921652 0 25795.79495021 0 -23704.10611774 0 65870.50776352 0 6
0.00350000 0.00331552 54469.20094863 0 2780.06397106 0 5644.89796039 0 18758.20866262 0 28970.09551679 0 7
0.00450000 0.00420575 44990.99677259 0 3470.10278919 0 39068.96307405 0 3088.86507649 0 8961.88677571 0 24
0.00550000 0.00557378 73408.08520954 0 -15225.66243461 0 19360.79339282 0 29350.63448408 0 -11338.41972820 0 45
0.00650000 0.00659388 85494.49525992 0 -10849.54194911 0 40911.87635897 0 18438.56036657 0 15773.45665188 0 40
0.00750000 0.00754703 95148.05125972 0 -2495.89641405 0 -10989.29103066 0 7213.35957682 0 39081.27430267 0 57
0.00850000 0.00846663 94082.51996890 0 1093.12618882 0 18678.68478050 0 11835.41626345 0 11659.84261576 0 75
0.00950000 0.00948925 108424.10309477 0 4151.44610892 0 -4483.43890717 0 718.11063761 0 14975.44503146 0 112
0.01050000 0.01054430 78828.02042222 0 3555.24990816 0 20829.71151664 0 8181.14414893 0 12625.77495798 0 105
0.01150000 0.01145670 81140.75680987 0 4516.09139098 0 9879.10658093 0 -1127.73072330 0 18594.39168370 0 144
0.01250000 0.01249090 74996.89917237 0 3446.77800201 0 4717.00842370 0 800.75669167 0 -1816.99315765 0 169
0.01350000 0.01339930 65692.82678841 0 10250.65058750 0 4157.30226091 0 -7339.51085091 0 2055.49825682 0 180
0.01450000 0.01448870 61399.97900960 0 3267.69953608 0 9429.93528692 0 -2991.04071941 0 -450.47894613 0 267
0.01550000 0.01550050 52660.67037425 0 -6010.88527729 0 3244.82948798 0 13308.32721817 0 -23091.98295817 0 238
0.01650000 0.01653350 63183.66530282 0 -647.56064294 0 2652.41538538 0 -9117.50736009 0 -22939.25717619 0 315
0.01750000 0.01747870 62814.21753247 0 -2078.07993381 0 -12323.87257705 0 -9025.82752612 0 -30219.18611710 0 297
0.01850000 0.01844180 66675.17410212 0 -760.79954554 0 4941.13933163 0 -8415.50114045 0 -36287.40179141 0 388
0.01950000 0.01947590 66950.45761037 0 -1740.36407793 0 4307.14433168 0 -7440.49619912 0 -39620.30647435 0 399
0.02050000 0.02045430 70663.79034864 0 -237.06768005 0 429.32137883 0 -1832.98666365 0 -36336.42488192 0 462
0.02150000 0.02154770 69299.35130007 0 2376.66604685 0 12641.41354568 0 -8706.22359486 0 -35080.01409162 0 571
0.02250000 0.02255340 66037.87392547 0 3443.39518694 0 7967.21714220 0 -6288.40920732 0 -33014.27866002 0 510
0.02350000 0.02348930 63376.76304169 0 3983.13719523 0 23558.81143772 0 -5363.62520578 0 -29809.03365395 0 555
0.02450000 0.02439640 60007.47923276 0 2414.67557879 0 19824.18360131 0 1491.22252089 0 -30203.43661743 0 592
0.02550000 0.02547300 59008.93877151 0 -1628.42062713 0 21612.41728528 0 7843.42829306 0 -17836.41928425 0 837
0.02650000 0.02652900 60652.87598317 0 -1846.27391759 0 6923.32477663 0 6841.47174315 0 -16900.10043788 0 723
0.02750000 0.02749970 59777.22598411 0 1326.70679655 0 14599.67527885 0 -427.11977624 0 -11670.15742892 0 826
0.02850000 0.02848090 61873.79494323 0 2422.29523110 0 8418.47358123 0 -249.67948010 0 -13568.08305070 0 831
0.02950000 0.02946900 57273.27736108 0 -463.69077993 0 16021.12307974 0 -193.95397927 0 -3398.84184880 0 996
0.03050000 0.03053250 55833.52908523 0 1713.35701336 0 11928.69322978 0 -3480.43978475 0 -3618.31445401 0 1041
0.03150000 0.03150510 56778.05541734 0 957.54739733 0 18452.86801064 0 896.50255844 0 -9512.12105631 0 1036
0.03250000 0.03246190 53825.68970169 0 390.12508882 0 16291.63737331 0 1927.68330319 0 -2702.62523396 0 1059
0.03350000 0.03345080 56486.68967351 0 988.90664758 0 19894.83452587 0 1023.54223741 0 -4345.74169706 0 1302
0.03450000 0.03451200 53457.24013907 0 721.50565300 0 16523.11065361 0 -630.81626291 0 -1583.85619780 0 1339
0.03550000 0.03553350 53116.07492095 0 3121.55083390 0 23910.62420492 0 -2760.18854613 0 -2322.24154343 0 1365
0.03650000 0.03647120 49639.31741359 0 1660.68491906 0 27231.21765925 0 -1713.42356055 0 1451.51603581 0 1308
0.03750000 0.03744890 46761.59545340 0 1368.37642349 0 24495.79575591 0 1857.11001701 0 -2973.09516274 0 1579
0.03850000 0.03847530 45649.03748753 0 1567.46340871 0 28695.81021626 0 3174.87730882 0 -624.13714411 0 1662
0.03950000 0.03950240 45181.87627207 0 919.10419959 0 24443.11257040 0 -107.61244930 0 1575.65980325 0 1683
0.04050000 0.04050350 44591.27003457 0 424.30593957 0 27060.08049033 0 4297.65026709 0 -2003.79109665 0 1822
0.04150000 0.04152450 42308.36896672 0 1355.64372939 0 24496.35031575 0 -1467.91991610 0 -1835.98128682 0 1887
0.04250000 0.04250150 40642.58209707 0 1400.69617139 0 20075.62103613 0 -277.17455733 0 -5846.25864098 0 1920
0.04350000 0.04349210 39268.27188321 0 1249.40115382 0 24862.13799111 0 3197.22607067 0 -3833.66113396 0 2005
0.04450000 0.04448520 38655.37233985 0 31.56111004 0 18722.27318451 0 1677.78754475 0 -5048.77939801 0 2151
0.04550000 0.04548030 36781.95826333 0 239.85822520 0 18418.59621207 0 5151.57261133 0 -1823.73660539 0 2274
0.04650000 0.04648670 37324.53961804 0 163.26241908 0 13901.15169505 0 2107.29414657 0 -1302.02888334 0 2311
0.04750000 0.04749250 35844.41938530 0 -338.17059495 0 10145.59477001 0 6070.82210559 0 2463.82067247 0 2568
0.04850000 0.04851840 36577.76932751 0 -777.81898726 0 7759.21283463 0 4897.05182376 0 4763.24762378 0 2493
0.04950000 0.04949480 36550.92863090 0 -125.61113280 0 4350.53309414 0 2508.76220251 0 4582.99349098 0 2644
0.05050000 0.05050630 36629.56521726 0 655.75925573 0 4563.09588365 0 -1115.07566758 0 4010.57681648 0 2829
0.05150000 0.05149060 35600.19122850 0 972.04026438 0 4615.24669170 0 -2633.47162099 0 3921.99142645 0 2784
0.05250000 0.05249300 34107.42703124 0 600.30548922 0 6268.16777289 0 -2234.89836746 0 669.28497040 0 3055
0.05350000 0.05348950 33953.70304153 0 551.74379251 0 8069.07869497 0 -1760.29495885 0 -1890.12851033 0 3009
0.05450000 0.05448610 34166.65402294 0 466.85953490 0 9095.25841901 0 -1112.09213560 0 -1466.06768621 0 3336
0.05550000 0.05550870 32301.55834413 0 759.37876321 0 11312.57723931 0 -1247.50455915 0 -3234.63667798 0 3349
0.05650000 0.05647670 32618.65566488 0 201.31853405 0 9704.32040823 0 1318.08893652 0 -417.69004059 0 3324
0.05750000 0.05747970 33385.27919794 0 -1352.37182629 0 10206.50762365 0 3451.82449662 0 -1461.17646835 0 3639
0.05850000 0.05849280 34259.48734140 0 -183.66356674 0 7415.52991479 0 1984.86951466 0 578.09314910 0 3846
0.05950000 0.05951020 33306.19896370 0 1029.85756495 0 8906.58606773 0 756.32757493 0 3466.49815018 0 3787
0.06050000 0.06049470 32269.17204904 0 1350.54177879 0 8244.21978598 0 -1662.55933134 0 1998.50059571 0 3930
0.06150000 0.06148310 31194.10232885 0 1178.24003420 0 10396.56637455 0 -2161.64101162 0 2433.71916395 0 4083
0.06250000 0.06249100 30135.55849211 0 260.70967546 0 13382.41641379 0 -899.42287060 0 2391.91644266 0 4303
0.06350000 0.06350600 29773.43091175 0 -88.18311231 0 10635.24893288 0 771.16537821 0 90.62572662 0 4470
0.06450000 0.06451750 31156.50317119 0 -53.35875031 0 11749.34857513 0 -485.38627028 0 -2007.05190855 0 4479
0.06550000 0.06550280 29757.79232405 0 -151.36600123 0 11000.50423078 0 326.71117026 0 -2530.87804922 0 4636
0.06650000 0.06648880 30953.97791492 0 -25.74455362 0 11851.27667508 0 -521.87298089 0 -2510.11532853 0 4653
0.06750000 0.06749660 30835.96757939 0 -113.01929690 0 9057.84781170 0 1254.24800689 0 -3532.77914314 0 5220
0.06850000 0.06852730 31314.44181573 0 -269.72238211 0 10519.17955681 0 1446.24771726 0 -3063.79897139 0 5029
0.06950000 0.06949320 30852.49346284 0 328.17409914 0 7042.33331988 0 784.31066483 0 -2997.57343441 0 5040
0.07050000 0.07048030 31095.50158798 0 45.53657275 0 8122.38298750 0 1266.83651543 0 -286.55992819 0 5475
0.07150000 0.07148790 30919.59520438 0 286.30150330 0 7218.55025699 0 1159.09662827 0 -648.98253439 0 5509
0.07250000 0.07249820 29533.86105767 0 681.24460807 0 7864.62357042 0 348.69946821 0 2378.78446547 0 5916
0.07350000 0.07351270 28435.05617601 0 1186.02605446 0 7981.48042147 0 -30.90695124 0 1801.85367381 0 5721
0.07450000 0.07449140 27972.22052736 0 1407.23997759 0 9721.67813145 0 -1319.06496186 0 3590.89701515 0 6028
0.07550000 0.07549160 25673.56995984 0 881.26547208 0 9780.41711049 0 -118.52163971 0 4460.79068300 0 6183
0.07650000 0.07648840 25323.64269612 0 215.61286867 0 11965.07235577 0 1593.38353598 0 4464.42859560 0 6330
0.07750000 0.07749960 24807.01474227 0 110.55560932 0 9832.24627383 0 1619.73621992 0 5119.04213068 0 6583
0.07850000 0.07848650 24153.41050611 0 498.18329332 0 9949.55786395 0 171.69727436 0 4705.70649401 0 6549
0.07950000 0.07947320 23845.74070277 0 777.79125927 0 9765.36635623 0 -277.69029799 0 5085.77963103 0 6828
0.08050000 0.08048110 22808.15922826 0 590.84802559 0 9811.92720102 0 15.26958357 0 3594.98966683 0 7147
0.08150000 0.08149960 22113.62847537 0 230.29095871 0 9248.91586153 0 263.65106090 0 4099.47276002 0 7386
0.08250000 0.08250610 21585.68750063 0 200.82164842 0 8834.69292911 0 553.73909884 0 2404.32749204 0 7227
0.08350000 0.08350160 21819.93358018 0 -100.26308947 0 7621.24943579 0 1280.63396443 0 2798.26462525 0 7798
0.08450000 0.08449610 21541.10088890 0 -238.04481450 0 7376.89927582 0 1448.24413271 0 2530.45658374 0 7371
0.08550000 0.08548940 21715.12176902 0 34.64102452 0 5567.74759442 0 238.06477866 0 1099.27182105 0 8256
0.08650000 0.08650700 21810.06241489 0 102.05132315 0 6963.24199444 0 -387.87246672 0 1536.01986536 0 8037
0.08750000 0.08749060 21381.60947678 0 285.59055758 0 5243.49645164 0 -429.70180689 0 662.00914521 0 8155
0.08850000 0.08849210 21352.10689290 0 347.85431901 0 6414.12792473 0 -936.70814738 0 1028.00755330 0 8718
0.08950000 0.08949900 20957.92575336 0 423.81238131 0 7454.28255693 0 -558.68244532 0 -932.78851838 0 8571
0.09050000 0.09049190 20433.75578559 0 291.58978601 0 7718.82978654 0 413.06390234 0 67.87535252 0 8932
0.09150000 0.09150830 20242.98719808 0 102.35000909 0 7039.97089493 0 646.49921539 0 -963.80505065 0 9285
0.09250000 0.09250820 19998.64812931 0 -30.46907078 0 6994.98500011 0 276.79080192 0 -625.35717577 0 9204
0.09350000 0.09350330 20065.97169479 0 307.58883761 0 6082.53440957 0 193.55802354 0 -42.19956432 0 9349
0.09450000 0.09448040 19456.51042248 0 262.91571454 0 6703.46397952 0 61.02154737 0 -1973.51212898 0 9564
0.09550000 0.09549270 19217.16239234 0 415.69806162 0 6207.53219918 0 -26.58304811 0 -550.12891423 0 10155
0.09650000 0.09649430 18268.19958145 0 459.52270812 0 6327.36149101 0 -46.71667611 0 -1720.81029771 0 9913
0.09750000 0.09749140 18009.66378058 0 407.41293750 0 6930.15695395 0 451.37400572 0 -416.92252976 0 10476
0.09850000 0.09850240 17217.53049454 0 311.78131005 0 5987.16120701 0 -397.81905214 0 -2093.06414089 0 10575
0.09950000 0.09950330 17258.34609931 0 195.90381170 0 6460.11202728 0 1090.47539275 0 -496.27006185 0 10882
0.10050000 0.10051200 16703.12078008 0 92.01844822 0 5248.65385822 0 191.38082158 0 -857.33621466 0 10875
0.10150000 0.10150300 16767.67154632 0 116.15810564 0 6274.35666079 0 951.79106611 0 -387.83586577 0 11118
0.10250000 0.10250800 16093.10494793 0 350.11026847 0 4778.08764529 0 -293.52409076 0 380.87835792 0 11575
0.10350000 0.10349800 15896.67984998 0 270.96681440 0 4943.97867805 0 724.19637738 0 417.03787821 0 11364
0.10450000 0.10450100 15525.34657615 0 92.18581438 0 5106.60889890 0 858.77585203 0 912.59921258 0 12093
0.10550000 0.10551000 15302.41351749 0 244.93133869 0 4080.89500513 0 507.65739376 0 1709.23108810 0 12067
0.10650000 0.10649700 14956.25726074 0 74.82598383 0 4122.48699368 0 633.30401838 0 2988.67829446 0 12054
0.10750000 0.10749900 14686.40843899 0 208.51561175 0 4162.93658896 0 -145.86809490 0 1887.68844700 0 12807
0.10850000 0.10850100 14709.92177652 0 427.18521430 0 4043.15166191 0 -391.26415474 0 2255.21744027 0 12736
0.10950000 0.10950300 13951.72755314 0 310.47920353 0 5223.52120593 0 -340.21470255 0 2190.51139727 0 12933
0.11050000 0.11050200 13845.58479834 0 223.06060742 0 5414.65580294 0 -792.22423386 0 2085.47776217 0 13428
0.11150000 0.11150900 13970.80441189 0 -88.21472222 0 5721.81541122 0 356.50656175 0 1472.41185086 0 13453
0.11250000 0.11250000 14106.56066254 0 -47.28299262 0 6068.51513663 0 193.48703988 0 1625.12654164 0 13668
0.11350000 0.11349100 14284.46346159 0 -190.85177149 0 5567.63668245 0 135.26601974 0 1273.82396950 0 13791
0.11450000 0.11448600 14504.18007313 0 51.47468868 0 5662.38877798 0 52.33259277 0 797.69773955 0 14205
0.11550000 0.11549300 14323.72629878 0 342.53165359 0 5767.84387856 0 -654.17876016 0 532.19999436 0 14776
0.11650000 0.11649800 13898.37889582 0 347.18995631 0 6164.97527649 0 -197.64180226 0 487.72207636 0 14553
0.11750000 0.11747300 13447.18900396 0 132.43221892 0 6787.82362351 0 -254.92783450 0 43.66659694 0 14568
0.11850000 0.11849100 13642.61589419 0 -43.09839493 0 5895.44809945 0 452.50308957 0 -255.21842386 0 16015
0.11950000 0.11950300 13837.26640063 0 -90.87017660 0 6092.62739879 0 394.35970781 0 -930.44716670 0 15270
0.12050000 0.12050700 13741.77119491 0 -11.02051275 0 5467.46099161 0 28.46577879 0 -987.19416677 0 15999
0.12150000 0.12150000 13545.56792089 0 327.59735690 0 6110.71714102 0 -616.53745596 0 -2150.47217629 0 15670
0.12250000 0.12250700 13397.94408951 0 350.74246669 0 6002.85525070 0 -645.39231394 0 -1059.85703446 0 16887
0.12350000 0.12352200 12833.29125288 0 112.56899431 0 6272.23824217 0 400.80480236 0 -1984.15967805 0 16407
0.12450000 0.12449800 12833.06942894 0 57.81375139 0 6624.15083014 0 584.40736752 0 -488.60937212 0 16306
0.12550000 0.12549900 12916.91887787 0 -38.94097066 0 5904.63161052 0 721.04204096 0 -719.30848688 0 17523
0.12650000 0.12650100 12947.75240539 0 40.57071114 0 5662.77696987 0 696.27207082 0 436.34321562 0 17154
0.12750000 0.12750600 12687.33110104 0 51.43986233 0 5148.37834661 0 454.73796576 0 536.83611469 0 18007
0.12850000 0.12850300 12855.25182284 0 17.62346830 0 4892.14951471 0 182.17845547 0 1267.59071682 0 17496
0.12950000 0.12949900 12686.99836513 0 26.40414710 0 5029.49180652 0 94.93321477 0 1034.54248654 0 18405
0.13050000 0.13049000 12722.15745946 0 92.25979266 0 4470.46220674 0 345.51962205 0 823.38827904 0 18100
0.13150000 0.13148800 12544.69830829 0 -39.35866514 0 4236.95923739 0 661.14070449 0 1236.22481185 0 19059
0.13250000 0.13249300 12578.85919489 0 -6.72088825 0 3813.86334740 0 383.05445076 0 839.97516408 0 18957
0.13350000 0.13349100 12268.63841625 0 269.36191820 0 3440.13437504 0 353.98331444 0 1347.12569013 0 19468
0.13450000 0.13450700 12155.39729540 0 102.66510999 0 3339.04920605 0 38.98367177 0 1553.54395654 0 19953
0.13550000 0.13551000 11769.86728948 0 74.03739972 0 2554.06974204 0 361.85140956 0 1249.07950911 0 19956
0.13650000 0.13649900 11915.82744132 0 134.29443089 0 3105.05822403 0 37.30180266 0 1069.83467523 0 19723
0.13750000 0.13749600 11426.92747985 0 263.53127597 0 2648.08981857 0 -468.22818861 0 278.36242453 0 20946
0.13850000 0.13851100 11212.97829071 0 178.65478220 0 2963.75637491 0 -200.14508541 0 446.28647368 0 20955
0.13950000 0.13949800 11084.40913569 0 50.43344712 0 3144.72034432 0 -174.84051957 0 373.29752481 0 20506
0.14050000 0.14048300 11170.05535852 0 42.88766218 0 3232.00806430 0 190.22068238 0 99.93279362 0 21447
0.14150000 0.14148400 11148.42752448 0 -18.47771229 0 3172.17105677 0 99.08464979 0 -279.19980990 0 21771
0.14250000 0.14249400 11127.35425027 0 92.72950485 0 3262.42012633 0 48.14477862 0 308.95527307 0 22470
0.14350000 0.14350900 10953.00063425 0 179.33578170 0 3040.99547046 0 291.96245023 0 539.69209790 0 22519
0.14450000 0.14449900 10785.13536844 0 172.80972141 0 3135.57010684 0 188.17768390 0 643.57335764 0 22218
0.14550000 0.14550500 10543.62455489 0 103.16876124 0 3247.61337841 0 327.79256197 0 1237.73321463 0 23559
0.14650000 0.14650700 10286.65261280 0 111.71829950 0 3078.88299924 0 454.59267108 0 1310.41382824 0 23044
0.14750000 0.14750500 10361.45164501 0 28.07015580 0 2515.50565025 0 261.83543196 0 1526.32615923 0 23649
0.14850000 0.14849900 10122.82454267 0 146.79310073 0 2501.16473260 0 -227.83314947 0 946.96528632 0 23640
0.14950000 0.14949500 9867.43864174 0 371.96436293 0 2741.48878807 0 -652.53726301 0 1094.73773974 0 24457
0.15050000 0.15050000 9514.05092458 0 207.69929965 0 3220.57304025 0 -113.78348037 0 653.79833211 0 24591
0.15150000 0.15149900 9260.10687925 0 49.56190086 0 2911.07318941 0 83.28523974 0 207.58395120 0 25020
0.15250000 0.15250500 9336.54740862 0 100.14286089 0 2934.95253644 0 95.11755047 0 -200.77173804 0 25297
0.15350000 0.15350100 9184.29854811 0 74.71584824 0 3016.26210127 0 91.54673961 0 -74.02375755 0 25452
0.15450000 0.15450400 9017.74204354 0 150.68389262 0 2904.85102792 0 -81.92867544 0 -173.81458385 0 26061
0.15550000 0.15549900 8925.19709620 0 161.86049178 0 3073.88086941 0 -321.09902461 0 105.02110205 0 26128
0.15650000 0.15649500 8732.12153973 0 84.60609038 0 3016.22882768 0 205.89919839 0 -130.13634115 0 26331
0.15750000 0.15749700 8732.08826614 0 10.89644662 0 3355.22017120 0 193.75655597 0 -85.48218403 0 27345
0.15850000 0.15849900 8681.96714713 0 53.29619596 0 2889.81136486 0 191.00704824 0 586.18639551 0 26980
0.15950000 0.15949700 8738.15515087 0 -3.36126487 0 2723.25486029 0 413.26243477 0 162.51487240 0 27777
0.16050000 0.16050000 8606.96847337 0 -69.28903649 0 2628.28094082 0 204.91651834 0 905.65168681 0 28224
0.16150000 0.16150500 8699.69087985 0 22.87869924 0 2259.75373982 0 228.74040938 0 689.87577754 0 28075
0.16250000 0.16249700 8819.80854280 0 -37.29093329 0 2304.22943958 0 357.94508999 0 1025.28244621 0 28590
0.16350000 0.16349900 8822.72552760 0 -66.18350134 0 1631.48179749 0 228.21357753 0 272.16577279 0 29163
0.16450000 0.16449100 8892.89953069 0 45.05466024 0 2044.95052853 0 -209.52269243 0 903.64972576 0 28996
0.16550000 0.16550500 8626.85498949 0 224.03108716 0 1884.44981749 0 -238.85890836 0 418.87679866 0 30777
0.16650000 0.16650700 8619.56807310 0 131.14674919 0 2053.69039172 0 -394.57709527 0 170.79556005 0 29211
0.16750000 0.16749900 8406.29544698 0 17.52420209 0 2051.54979071 0 -54.01945291 0 -496.02272816 0 30922
0.16850000 0.16850800 8510.49724231 0 48.75523810 0 1970.58405299 0 244.69953267 0 -304.75060031 0 30867
0.16950000 0.16949900 8340.64665225 0 -8.18602428 0 2090.67953354 0 -71.07837929 0 -594.83309265 0 30852
0.17050000 0.17049200 8505.92766917 0 63.31897791 0 1796.58535526 0 108.41445375 0 -889.96097048 0 31257
0.17150000 0.17149500 8216.66925276 0 134.29221265 0 1872.92606386 0 72.48795951 0 -591.98709151 0 32608
0.17250000 0.17250900 8218.31074991 0 95.50285865 0 1526.49252718 0 31.45308178 0 -358.73700145 0 32361
0.17350000 0.17350400 8015.79658483 0 60.87214895 0 1681.69164608 0 301.02173989 0 -329.40522200 0 32508
0.17450000 0.17449800 7970.17849178 0 119.68288803 0 1595.00285073 0 315.04323107 0 -16.04718739 0 32791
0.17550000 0.17549800 7746.51341412 0 168.93778456 0 1676.03513563 0 -187.23049568 0 -77.78777706 0 33633
0.17650000 0.17650100 7637.76422805 0 119.83261919 0 1884.86019177 0 -156.91381794 0 253.85198839 0 33984
0.17750000 0.17750300 7471.60700656 0 81.04404157 0 1729.80525844 0 -91.40621415 0 174.63755067 0 34069
0.17850000 0.17849800 7428.59534480 0 119.83040095 0 1783.42010449 0 -8.87197044 0 256.88764900 0 34536
