### header ###
fiducial parameters:
Omega_m = 0.31
Omega_nu = 0
Omega_de = 0.69
Omega_k = 0
H_0 = 100
w_de = -1
zeff = 0
beta = 0
fgrowth = 0
b_1 = 2
gamma = 0.55
Lx = 3500 Ly = 3500 Lz = 3500
nx = 700 ny = 700 nz = 700
xoffset = 1379.75464 yoffset = 22.6059522 zoffset = 368.141391
bins = 400 dk = 0.001
kx_ny = 0.628318531 ky_ny = 0.628318531 kz_ny = 0.628318531
############################
A(data) = 3.36679542 (not used)
A(ran) = 3.36666592 (used)
Ngal = 189062
weighted Ngal = 0
Nran = 9399747
weighted Nran = 0
SN(data) = 6610.61937
SN(ran) = 133.910426
SN(data+ran) = 6744.52979
############################
13 columns: k_central k_mean P_0(k) sigma^{lin}_{P_0(k)} P^img_1(k) sigma^{lin}_{P_1(k)} P_2(k) sigma^{lin}_{P_2(k)} P^img_3(k) sigma^{lin}_{P_3(k)} P_4(k) sigma^{lin}_{P_4(k)} N_modes
### header ###
0.00050000 0 0 0 0 0 0 0 0 0 0 0 0
0.00150000 0.00179520 51288.57839979 0 -59551.40921424 0 -78855.52659066 0 90200.37921308 0 88730.46288154 0 3
0.00250000 0.00253879 74272.53309968 0 -48990.03874424 0 -26969.90905915 0 -88541.13614963 0 -47001.71986733 0 6
0.00350000 0.00331552 100692.42970216 0 -13926.66144804 0 -60621.37698384 0 -52154.91179341 0 -9785.74088502 0 7
0.00450000 0.00420575 109816.60287162 0 8019.21267349 0 -34341.11855093 0 -73962.53414498 0 -6389.89365940 0 24
0.00550000 0.00557378 71515.81609820 0 24616.35706673 0 12250.44885325 0 -48643.10610370 0 9631.45124428 0 45
0.00650000 0.00659388 56804.67429002 0 14740.31165616 0 7873.81817269 0 17491.37214719 0 -293.94555624 0 40
0.00750000 0.00754703 38203.29515224 0 -71.68650962 0 30688.45465998 0 7242.47396881 0 -19607.01796507 0 57
0.00850000 0.00846663 48935.47005525 0 -3340.79052397 0 4464.16240687 0 7382.31177993 0 -21906.00126850 0 75
0.00950000 0.00948925 51536.24482764 0 -3855.69934229 0 14356.77806569 0 -5833.69231484 0 -28473.54262942 0 112
0.01050000 0.01054430 55103.72832604 0 34.07104791 0 16908.08609969 0 -19675.78338615 0 -19260.97262028 0 105
0.01150000 0.01145670 54998.14013109 0 4580.59779243 0 19872.76304395 0 -12892.85098049 0 -41464.55070290 0 144
0.01250000 0.01249090 59480.86920165 0 -1990.31529236 0 33925.53140128 0 1032.98750073 0 -18841.94719958 0 169
0.01350000 0.01339930 61391.32787598 0 -8397.88831969 0 29447.68245738 0 21445.71659514 0 -12018.64283703 0 180
0.01450000 0.01448870 77207.15290021 0 -10480.46018827 0 13904.70087808 0 12540.59456542 0 -10609.92773025 0 267
0.01550000 0.01550050 84094.00982127 0 2996.18703479 0 8868.87599810 0 -5244.76084809 0 -27328.48745648 0 238
0.01650000 0.01653350 86673.04584764 0 1420.79342026 0 13526.15832624 0 -13143.06838364 0 909.63675387 0 315
0.01750000 0.01747870 74441.11929329 0 6870.56395274 0 37373.00814870 0 -7729.36642364 0 -27136.83157322 0 297
0.01850000 0.01844180 79777.53779296 0 3706.60038172 0 26903.36187746 0 -4785.59638563 0 -10665.15079985 0 388
0.01950000 0.01947590 74067.67869205 0 -2296.42123693 0 40009.38566329 0 4048.25361251 0 -18402.07032861 0 399
0.02050000 0.02045430 75501.77045745 0 -58.90767614 0 25365.12377271 0 11397.86854384 0 -10626.80853200 0 462
0.02150000 0.02154770 78614.40396900 0 -2438.45510505 0 18954.07920073 0 9757.66906555 0 -5974.45069531 0 571
0.02250000 0.02255340 75731.02549837 0 -754.79920799 0 17981.04849246 0 8919.86223047 0 -6202.88498766 0 510
0.02350000 0.02348930 78315.27438731 0 5581.01266597 0 6181.15733284 0 -1146.68557889 0 1129.19476130 0 555
0.02450000 0.02439640 71410.33881522 0 3154.46950644 0 17717.07800509 0 -6372.90194568 0 -7081.08596202 0 592
0.02550000 0.02547300 64704.37931639 0 4492.38950311 0 19491.78042878 0 -9022.95490611 0 -815.43921819 0 837
0.02650000 0.02652900 64869.30541501 0 -649.14668411 0 26235.67182117 0 8833.42853265 0 -1796.28589295 0 723
0.02750000 0.02749970 63982.34239506 0 -731.83266647 0 21359.53799486 0 1783.84156997 0 -3939.83716234 0 826
0.02850000 0.02848090 64644.59776484 0 -796.92690136 0 14009.84542515 0 8474.56176420 0 -10294.70482178 0 831
0.02950000 0.02946900 65842.44703525 0 608.86456591 0 21758.59926105 0 955.93695553 0 5814.40472335 0 996
0.03050000 0.03053250 63881.19067889 0 893.70757681 0 12953.85256371 0 -89.34957350 0 1271.61682131 0 1041
0.03150000 0.03150510 62793.36608221 0 1898.44690804 0 21086.91637387 0 -193.04782848 0 322.32903835 0 1036
0.03250000 0.03246190 57291.02327620 0 3237.96403706 0 15954.35407411 0 -4032.68157200 0 296.94239766 0 1059
0.03350000 0.03345080 57217.48864043 0 3415.50082661 0 19978.57306283 0 -5122.59131370 0 -12272.63124715 0 1302
0.03450000 0.03451200 51331.50133198 0 3550.31432552 0 25668.80074515 0 -804.33249357 0 -3371.38004515 0 1339
0.03550000 0.03553350 47943.02975233 0 1533.23597493 0 18781.27835227 0 3739.61887503 0 -17495.91953794 0 1365
0.03650000 0.03647120 47573.13833410 0 -331.02342764 0 23714.75366681 0 1399.32086297 0 -3387.61755749 0 1308
0.03750000 0.03744890 45628.62968514 0 156.22949109 0 14061.53040293 0 5303.63292149 0 -13910.24647655 0 1579
0.03850000 0.03847530 45500.19362448 0 572.34901820 0 15245.51567715 0 1525.49431946 0 -4868.10379973 0 1662
0.03950000 0.03950240 43407.06293641 0 2110.92096797 0 10860.14513340 0 -2470.19811072 0 -10104.96771559 0 1683
0.04050000 0.04050350 43138.32323436 0 924.43019236 0 15909.43472647 0 1856.57763956 0 -5684.97045496 0 1822
0.04150000 0.04152450 40517.58430746 0 -792.38838357 0 12041.82343865 0 1456.42943606 0 -4882.07870788 0 1887
0.04250000 0.04250150 42962.86049864 0 -229.64988753 0 10856.99523346 0 4692.91834393 0 -5972.17699994 0 1920
0.04350000 0.04349210 41160.87373046 0 726.93257566 0 11538.72674508 0 489.81276699 0 -4526.22874499 0 2005
0.04450000 0.04448520 39541.55897602 0 1988.36324170 0 11059.66467530 0 -3697.61651219 0 -2077.78047149 0 2151
0.04550000 0.04548030 38725.24688063 0 1508.04786666 0 13669.90023868 0 -415.85555662 0 -2025.69621062 0 2274
0.04650000 0.04648670 36750.01561612 0 1188.87649208 0 15313.28289050 0 -1115.35294751 0 -4192.64990558 0 2311
0.04750000 0.04749250 34567.37896868 0 1379.24579650 0 12870.77949856 0 552.77194646 0 -4824.79267564 0 2568
0.04850000 0.04851840 34466.22725251 0 -864.20388381 0 12280.28417304 0 3454.60838705 0 -2579.73477178 0 2493
0.04950000 0.04949480 34414.32045079 0 -1311.41203596 0 9334.59535796 0 4447.34815230 0 -5139.60520982 0 2644
0.05050000 0.05050630 36785.84018226 0 -895.10950411 0 6796.07547404 0 2907.39091202 0 -2005.16640507 0 2829
0.05150000 0.05149060 35687.47894848 0 459.24542820 0 4942.28172492 0 -341.05652440 0 -4628.15684495 0 2784
0.05250000 0.05249300 35599.30393274 0 649.85319335 0 3430.51830728 0 -1013.38048277 0 -1692.76066063 0 3055
0.05350000 0.05348950 35748.48053169 0 722.52604311 0 4268.60242228 0 -1460.34462858 0 -5273.34286262 0 3009
0.05450000 0.05448610 32989.76711476 0 565.01108230 0 6149.18141203 0 -1756.42413111 0 -4373.34768626 0 3336
0.05550000 0.05550870 33599.89385888 0 1206.60022480 0 9055.65175471 0 -2164.02561896 0 -5938.61503797 0 3349
0.05650000 0.05647670 32526.37690627 0 656.70755306 0 9376.83063594 0 -1533.42452527 0 -8348.65449644 0 3324
0.05750000 0.05747970 31118.57127763 0 549.64201068 0 9955.29201277 0 -703.87730457 0 -5950.88190180 0 3639
0.05850000 0.05849280 32263.29371465 0 -429.54763925 0 9971.16351560 0 1151.58788794 0 -7378.80696170 0 3846
0.05950000 0.05951020 32173.34410740 0 -1016.32408644 0 7920.56756783 0 3486.20720716 0 -4489.42815352 0 3787
0.06050000 0.06049470 33221.35130704 0 -724.32392614 0 6633.66707713 0 3738.39884337 0 -4783.52233180 0 3930
0.06150000 0.06148310 34553.29314855 0 -719.49592811 0 2924.59335849 0 303.84334040 0 -1668.19365939 0 4083
0.06250000 0.06249100 33511.60793118 0 716.55897916 0 5440.05464395 0 -832.95332729 0 -3215.44890726 0 4303
0.06350000 0.06350600 32867.87486030 0 1759.51857506 0 5954.63072636 0 -2713.66097493 0 -5378.79796321 0 4470
0.06450000 0.06451750 30997.34449498 0 1431.07495984 0 7275.47027973 0 -4012.91705903 0 -6272.04969183 0 4479
0.06550000 0.06550280 29463.54286901 0 1116.86135029 0 11792.04968338 0 -2336.31627236 0 -6368.59856126 0 4636
0.06650000 0.06648880 28744.94421874 0 231.80047062 0 10334.95477550 0 -83.83802500 0 -9676.30404473 0 4653
0.06750000 0.06749660 28927.72714445 0 158.80486702 0 12466.17263389 0 537.92748847 0 -8397.10084471 0 5220
0.06850000 0.06852730 28823.80262904 0 -278.96911300 0 9661.73021194 0 2437.05761424 0 -7392.43804275 0 5029
0.06950000 0.06949320 28753.59535236 0 -151.34603708 0 11537.50671342 0 1913.32020314 0 -5123.41206228 0 5040
0.07050000 0.07048030 29054.27770162 0 618.34864842 0 8166.62577213 0 659.84081620 0 -2553.28226706 0 5475
0.07150000 0.07148790 28685.93905097 0 -59.07836966 0 9311.49239471 0 2272.94117299 0 -535.11808828 0 5509
0.07250000 0.07249820 27445.38867232 0 784.22193526 0 9896.85249605 0 173.58721432 0 2901.20202413 0 5916
0.07350000 0.07351270 27161.67585438 0 694.30560160 0 10117.00166428 0 389.20008299 0 4225.93458762 0 5721
0.07450000 0.07449140 26661.57378398 0 229.85285644 0 10517.98170754 0 1290.33876176 0 4620.33755110 0 6028
0.07550000 0.07549160 25966.71029518 0 402.03037962 0 11036.65044163 0 878.02462433 0 5807.59472842 0 6183
0.07650000 0.07648840 26087.27160601 0 484.34037041 0 11005.09598631 0 154.87081947 0 7536.64578547 0 6330
0.07750000 0.07749960 24841.61927675 0 206.56134284 0 10353.24415927 0 932.06869970 0 6435.11246936 0 6583
0.07850000 0.07848650 25295.69287981 0 -139.11133772 0 10117.85568644 0 1592.77352014 0 7649.23252569 0 6549
0.07950000 0.07947320 24888.42412787 0 -358.78358448 0 6814.53122576 0 1171.06402978 0 6396.28218884 0 6828
0.08050000 0.08048110 25200.75223393 0 35.81646957 0 8721.26325792 0 595.65827770 0 5513.77783007 0 7147
0.08150000 0.08149960 25010.53820627 0 735.39626805 0 7104.41074920 0 -1316.60271613 0 4380.98952096 0 7386
0.08250000 0.08250610 24085.19964488 0 760.85943801 0 8090.45143149 0 -680.41609566 0 3544.52472071 0 7227
0.08350000 0.08350160 22858.06961453 0 701.15996131 0 7973.36166530 0 -810.96835670 0 1997.72421192 0 7798
0.08450000 0.08449610 22207.46000155 0 399.33854612 0 8809.93737752 0 919.05761656 0 1406.00885473 0 7371
0.08550000 0.08548940 21430.52165533 0 218.54981763 0 8273.87764662 0 434.69728199 0 905.39326192 0 8256
0.08650000 0.08650700 21475.10826706 0 408.19153952 0 8488.92486425 0 400.88576810 0 2991.77273840 0 8037
0.08750000 0.08749060 20905.35347983 0 81.73213943 0 7204.63080482 0 716.37375617 0 710.83148505 0 8155
0.08850000 0.08849210 20688.29875555 0 258.45372601 0 6987.37643900 0 426.72714786 0 2745.71453411 0 8718
0.08950000 0.08949900 20461.26195402 0 427.53347788 0 6570.22543058 0 23.83243127 0 1658.53322685 0 8571
0.09050000 0.09049190 20086.49040914 0 -47.88036449 0 6110.72823221 0 995.15431882 0 2621.00511562 0 8932
0.09150000 0.09150830 19427.78422238 0 363.29991988 0 5734.31519019 0 309.26804482 0 1413.49541267 0 9285
0.09250000 0.09250820 19129.98558432 0 508.47148761 0 5872.78878408 0 -119.04847156 0 1360.73458879 0 9204
0.09350000 0.09350330 18514.20232976 0 401.89063054 0 5398.65120574 0 -389.13908141 0 2226.83506728 0 9349
0.09450000 0.09448040 17915.72134243 0 125.94719607 0 6026.40186182 0 84.98396746 0 -221.76848298 0 9564
0.09550000 0.09549270 18359.36922036 0 227.40059279 0 5634.15059055 0 114.22601913 0 1331.33182568 0 10155
0.09650000 0.09649430 17537.95517438 0 71.90666988 0 5501.85479335 0 -56.57730475 0 -566.93540497 0 9913
0.09750000 0.09749140 17347.29749884 0 477.72003495 0 5788.08531299 0 171.70614731 0 1309.03851981 0 10476
0.09850000 0.09850240 16884.24002625 0 379.97775273 0 5493.86913154 0 71.50062116 0 -171.98564548 0 10575
0.09950000 0.09950330 16452.79246496 0 213.04303834 0 6069.34697640 0 211.80193340 0 1617.16306223 0 10882
0.10050000 0.10051200 15921.85686705 0 336.45589590 0 5242.70897665 0 612.41153069 0 606.00303710 0 10875
0.10150000 0.10150300 16021.56672762 0 345.75253719 0 6945.65135608 0 -282.18223276 0 1394.93984018 0 11118
0.10250000 0.10250800 15102.99379636 0 328.38261364 0 5519.58961727 0 -597.93640956 0 1050.36518811 0 11575
0.10350000 0.10349800 15181.63038273 0 56.35437169 0 6944.46459801 0 -307.99144806 0 1405.66502763 0 11364
0.10450000 0.10450100 15175.41931244 0 -363.49845230 0 5790.98011539 0 855.42963791 0 348.06061527 0 12093
0.10550000 0.10551000 16010.14279476 0 -370.98168288 0 5200.42933389 0 828.36157175 0 -94.01386546 0 12067
0.10650000 0.10649700 16119.39108470 0 -262.79038401 0 5660.11508260 0 434.60411594 0 728.67167534 0 12054
0.10750000 0.10749900 16077.79909614 0 230.96641261 0 4375.07791298 0 208.86165709 0 -120.76317061 0 12807
0.10850000 0.10850100 16274.22419410 0 74.53483991 0 5358.55652878 0 2.16100881 0 914.69877616 0 12736
0.10950000 0.10950300 15980.75112285 0 18.26875414 0 4319.62192824 0 316.90766128 0 12.24035586 0 12933
0.11050000 0.11050200 15783.10599323 0 271.03447070 0 4744.08203545 0 240.28301805 0 688.97184499 0 13428
0.11150000 0.11150900 15588.12275088 0 278.18940186 0 4511.06707877 0 60.66141620 0 1911.46797325 0 13453
0.11250000 0.11250000 15082.69690595 0 233.82350494 0 4260.45039252 0 473.99561102 0 819.58288937 0 13668
0.11350000 0.11349100 15105.10112378 0 173.02267239 0 5138.97301160 0 92.50568450 0 1909.36064583 0 13791
0.11450000 0.11448600 14619.63943336 0 280.20910882 0 4337.07947224 0 -244.02962437 0 958.67426294 0 14205
0.11550000 0.11549300 14287.12534885 0 402.81563636 0 5525.71195798 0 -609.32928706 0 1938.59704099 0 14776
0.11650000 0.11649800 13869.54178375 0 267.97995506 0 5177.58146817 0 -469.15319443 0 255.85949504 0 14553
0.11750000 0.11747300 13851.13039682 0 -51.91212549 0 5478.43018539 0 421.39339125 0 714.79436972 0 14568
0.11850000 0.11849100 13803.66007388 0 -12.36435545 0 4871.89698908 0 429.08624546 0 99.15186245 0 16015
0.11950000 0.11950300 13821.73872491 0 136.48605141 0 4651.67018248 0 480.29430177 0 140.21380270 0 15270
0.12050000 0.12050700 13491.88652767 0 90.32382424 0 4321.09705744 0 40.95679571 0 360.93749493 0 15999
0.12150000 0.12150000 13622.20809181 0 121.80796136 0 4731.85953641 0 299.00092381 0 6.00395328 0 15670
0.12250000 0.12250700 13120.99690172 0 200.19721404 0 4163.51333120 0 -236.32235162 0 330.80493106 0 16887
0.12350000 0.12352200 13091.38340587 0 206.17536919 0 4307.99835384 0 -31.77982844 0 -176.09382483 0 16407
0.12450000 0.12449800 12707.29525555 0 200.11735742 0 4756.75927356 0 -297.04443667 0 319.67269668 0 16306
0.12550000 0.12549900 12654.50115807 0 281.60992699 0 4780.89371812 0 -292.78208968 0 -303.09468460 0 17523
0.12650000 0.12650100 12320.76704190 0 52.29443905 0 5436.64964649 0 -130.20288833 0 -127.23044755 0 17154
0.12750000 0.12750600 12506.10094291 0 11.35583291 0 5194.60645549 0 -75.76019535 0 31.27662083 0 18007
0.12850000 0.12850300 12603.48165211 0 -242.53564015 0 5039.36297180 0 597.71902210 0 -438.10227945 0 17496
0.12950000 0.12949900 13070.08830772 0 -212.91548958 0 4745.21333754 0 380.75968211 0 -224.93501971 0 18405
0.13050000 0.13049000 13187.54408341 0 -92.37968850 0 4335.18287756 0 181.02053451 0 -876.92881407 0 18100
0.13150000 0.13148800 13232.01978317 0 62.60415026 0 4442.47911684 0 8.12677510 0 -282.39185638 0 19059
0.13250000 0.13249300 13049.12594549 0 288.96782705 0 4390.31721759 0 -606.42561170 0 -897.25454160 0 18957
0.13350000 0.13349100 12541.81459708 0 499.63956748 0 5381.02729379 0 -406.92159747 0 -799.06750237 0 19468
0.13450000 0.13450700 12068.10957542 0 484.11300087 0 5543.86824739 0 -393.09309312 0 -1089.48051239 0 19953
0.13550000 0.13551000 11507.67139363 0 264.46959123 0 5865.49077649 0 227.47934029 0 -573.80640148 0 19956
0.13650000 0.13649900 11061.01780133 0 197.63403842 0 5675.55402875 0 520.67291338 0 -481.44778625 0 19723
0.13750000 0.13749600 11215.41835404 0 -32.09160199 0 5371.20049330 0 822.22370336 0 -247.32814635 0 20946
0.13850000 0.13851100 11163.84428823 0 -168.33664168 0 4875.27980415 0 645.62744731 0 526.57564839 0 20955
0.13950000 0.13949800 11049.40531812 0 72.25127337 0 4384.57197757 0 278.76614410 0 456.36060787 0 20506
0.14050000 0.14048300 11150.53485190 0 244.95130284 0 4303.61733105 0 -336.20301661 0 286.94479273 0 21447
0.14150000 0.14148400 10935.48763427 0 132.59747776 0 4619.84953843 0 -294.26609183 0 41.66374860 0 21771
0.14250000 0.14249400 10625.93232744 0 63.48024391 0 4439.30703451 0 215.86020237 0 -143.39919446 0 22470
0.14350000 0.14350900 10474.91458979 0 148.35363214 0 4715.15619381 0 -338.48225759 0 -665.45185274 0 22519
0.14450000 0.14449900 10531.51296782 0 104.25802770 0 4174.61561934 0 188.99066864 0 -1071.01588771 0 22218
0.14550000 0.14550500 10392.58463485 0 93.39120566 0 4574.05398623 0 100.32575473 0 -900.68726705 0 23559
0.14650000 0.14650700 10148.01265094 0 161.03752497 0 4122.63117925 0 59.84898603 0 -1010.83727130 0 23044
0.14750000 0.14750500 10058.04086130 0 60.81491837 0 4118.22797406 0 95.49564937 0 -875.31615403 0 23649
0.14850000 0.14849900 10036.97867829 0 32.08539092 0 3886.44414023 0 453.26283656 0 -1021.48038390 0 23640
0.14950000 0.14949500 9758.00180146 0 64.84667937 0 3729.34842666 0 263.36934449 0 -676.61957895 0 24457
0.15050000 0.15050000 9992.42534015 0 -71.23620702 0 3611.71519183 0 257.28471385 0 -87.30014212 0 24591
0.15150000 0.15149900 9926.84309260 0 64.56684847 0 3493.16138765 0 436.05928098 0 -197.68949441 0 25020
0.15250000 0.15250500 9950.25660936 0 4.35104329 0 2935.46273150 0 335.85142567 0 465.35445948 0 25297
0.15350000 0.15350100 10075.78677642 0 -46.74606778 0 3212.52083126 0 164.36266582 0 494.44666907 0 25452
0.15450000 0.15450400 9821.74291032 0 6.62228751 0 2891.90760108 0 462.48627595 0 1108.55071642 0 26061
0.15550000 0.15549900 10136.26707337 0 37.41870388 0 2920.37870365 0 176.15371729 0 999.40779285 0 26128
0.15650000 0.15649500 9840.88631625 0 69.05379220 0 2975.98996515 0 -192.76943944 0 1156.22400826 0 26331
0.15750000 0.15749700 9704.68641773 0 237.10095364 0 2617.95503646 0 -256.02253563 0 388.39375297 0 27345
0.15850000 0.15849900 9620.73714802 0 144.59038902 0 3386.91881208 0 -98.34431240 0 1230.92321971 0 26980
0.15950000 0.15949700 9232.90017314 0 193.45931189 0 3189.93915428 0 -65.98873992 0 687.53553498 0 27777
0.16050000 0.16050000 9268.05926746 0 143.18402524 0 3007.01204301 0 291.15501109 0 844.56581050 0 28224
0.16150000 0.16150500 9023.03254448 0 60.86871068 0 2967.62720265 0 84.00150924 0 434.16490454 0 28075
0.16250000 0.16249700 8857.17478532 0 52.27835682 0 2911.09537180 0 348.00294105 0 1056.67607917 0 28590
0.16350000 0.16349900 8623.12834732 0 93.30591436 0 2721.04771210 0 61.80292219 0 931.52855841 0 29163
0.16450000 0.16449100 8785.66983860 0 151.02328325 0 2419.95498854 0 -43.68711566 0 766.23090469 0 28996
0.16550000 0.16550500 8417.28682316 0 115.70669392 0 2671.44787934 0 132.01297168 0 638.04439596 0 30777
0.16650000 0.16650700 8316.34583973 0 53.55972280 0 2426.44333876 0 -20.03158898 0 367.88945717 0 29211
0.16750000 0.16749900 8240.34895824 0 141.77987971 0 2544.84186618 0 -115.09445985 0 419.02320246 0 30922
0.16850000 0.16850800 8251.25160484 0 4.84279369 0 2287.71464733 0 73.17905199 0 112.58008550 0 30867
0.16950000 0.16949900 8203.17126607 0 -77.79731549 0 2320.60004628 0 272.45081655 0 31.45319269 0 30852
0.17050000 0.17049200 8358.10419624 0 30.00157683 0 1839.10900436 0 0.48158864 0 -174.00646156 0 31257
0.17150000 0.17149500 8254.54569034 0 9.57114841 0 2156.78306735 0 32.63739979 0 -34.92939564 0 32608
0.17250000 0.17250900 8242.51174165 0 76.84790903 0 1934.70403086 0 240.69117409 0 397.54953605 0 32361
0.17350000 0.17350400 8207.54119767 0 47.75947044 0 1957.38552862 0 171.38782996 0 283.18154960 0 32508
0.17450000 0.17449800 8094.74372471 0 185.16753305 0 2202.47879878 0 -63.91124782 0 450.12624607 0 32791
0.17550000 0.17549800 7976.18992053 0 232.83527929 0 2402.24234702 0 -248.00249112 0 643.52788373 0 33633
0.17650000 0.17650100 7557.59705650 0 175.30745896 0 2781.22854674 0 -163.55300844 0 1126.71033318 0 33984
0.17750000 0.17750300 7466.10577288 0 91.81603387 0 2704.71037899 0 35.29950888 0 747.77737121 0 34069
0.17850000 0.17849800 7486.79085519 0 31.79236149 0 2926.60086514 0 79.33422265 0 1001.11805542 0 34536
