### header ###
fiducial parameters:
Omega_m = 0.31
Omega_nu = 0
Omega_de = 0.69
Omega_k = 0
H_0 = 100
w_de = -1
zeff = 0
beta = 0
fgrowth = 0
b_1 = 2
gamma = 0.55
Lx = 3500 Ly = 3500 Lz = 3500
nx = 700 ny = 700 nz = 700
xoffset = 1379.75464 yoffset = 22.6059522 zoffset = 368.141391
bins = 400 dk = 0.001
kx_ny = 0.628318531 ky_ny = 0.628318531 kz_ny = 0.628318531
############################
A(data) = 3.3461993 (not used)
A(ran) = 3.34562194 (used)
Ngal = 187985
weighted Ngal = 0
Nran = 9399747
weighted Nran = 0
SN(data) = 6634.9585
SN(ran) = 133.073394
SN(data+ran) = 6768.0319
############################
13 columns: k_central k_mean P_0(k) sigma^{lin}_{P_0(k)} P^img_1(k) sigma^{lin}_{P_1(k)} P_2(k) sigma^{lin}_{P_2(k)} P^img_3(k) sigma^{lin}_{P_3(k)} P_4(k) sigma^{lin}_{P_4(k)} N_modes
### header ###
0.00050000 0 0 0 0 0 0 0 0 0 0 0 0
0.00150000 0.00179520 5689.12965382 0 -15366.52063585 0 -4818.53724056 0 -10144.49674151 0 21481.98480916 0 3
0.00250000 0.00253879 19304.56102429 0 -21318.05691827 0 -31656.71615356 0 5719.04261199 0 -5579.10498009 0 6
0.00350000 0.00331552 42599.73471055 0 -30011.22617432 0 -38367.88851496 0 -11227.84049462 0 -7787.09610376 0 7
0.00450000 0.00420575 65658.66590181 0 -25366.23289240 0 -55164.06443744 0 -19079.85337412 0 -10443.99233270 0 24
0.00550000 0.00557378 85787.74650723 0 -4220.82154583 0 -55113.59949132 0 -47721.31672533 0 -12456.07964467 0 45
0.00650000 0.00659388 83800.20401411 0 6484.46829578 0 -33217.91303599 0 -41121.38906932 0 -13698.29370287 0 40
0.00750000 0.00754703 66712.10778796 0 8030.34823522 0 -18551.46875151 0 -25753.98113771 0 -20913.22822966 0 57
0.00850000 0.00846663 64942.84005078 0 4368.99993706 0 -4241.58426651 0 -22416.52906402 0 -35547.28621905 0 75
0.00950000 0.00948925 63772.16421289 0 3524.06146234 0 11666.83006984 0 -22928.60962712 0 -49807.12722341 0 112
0.01050000 0.01054430 53402.00597827 0 8192.83427052 0 10298.45364635 0 -17187.47335081 0 -16276.55334546 0 105
0.01150000 0.01145670 52935.06658675 0 2491.26029372 0 22630.25642921 0 653.94806326 0 -17358.16687185 0 144
0.01250000 0.01249090 57242.88748144 0 -8762.31177782 0 16170.07785475 0 25161.82213265 0 -11402.52684656 0 169
0.01350000 0.01339930 82591.59628266 0 -16861.72489644 0 11533.18114661 0 28565.71047606 0 -21990.18345333 0 180
0.01450000 0.01448870 82110.01651117 0 -5745.27329277 0 -10948.34233153 0 -2726.90386408 0 1209.35084164 0 267
0.01550000 0.01550050 92984.60238300 0 5150.57440360 0 1448.24413271 0 -2941.11924194 0 15606.31231387 0 238
0.01650000 0.01653350 81356.92423839 0 2736.32029029 0 5221.49151689 0 -17973.50647853 0 15479.31810882 0 315
0.01750000 0.01747870 86859.26704440 0 8099.93440488 0 32982.66874872 0 -1265.19501828 0 -174.92037619 0 297
0.01850000 0.01844180 77479.55269726 0 6879.44800150 0 35639.12132978 0 -6380.53268918 0 13201.74081550 0 388
0.01950000 0.01947590 67784.51562088 0 6509.57876567 0 45565.29895057 0 -12121.68005668 0 6125.81226006 0 399
0.02050000 0.02045430 70213.59866451 0 2625.82978629 0 58521.25884169 0 8929.28974788 0 9786.45072163 0 462
0.02150000 0.02154770 67040.62904156 0 -620.65450826 0 62977.59086352 0 7248.66285671 0 6119.53464259 0 571
0.02250000 0.02255340 64757.17341386 0 1490.92305857 0 43692.88308177 0 10863.74977241 0 282.93088855 0 510
0.02350000 0.02348930 69266.96500498 0 -846.75299453 0 52456.81417434 0 3616.19603539 0 12892.51824458 0 555
0.02450000 0.02439640 69636.30186335 0 -3676.06631652 0 40944.92812588 0 17237.60556102 0 3787.01155959 0 592
0.02550000 0.02547300 74689.89484084 0 -4827.80948121 0 27625.17697485 0 21029.90762156 0 15849.20952704 0 837
0.02650000 0.02652900 78632.70444397 0 -3491.27588416 0 10709.27158131 0 5463.30179276 0 -80.28706738 0 723
0.02750000 0.02749970 78064.94607219 0 1872.75969590 0 6376.41785511 0 -1766.53930273 0 6183.89685848 0 826
0.02850000 0.02848090 75146.40850723 0 7009.33700896 0 11786.61499688 0 -13556.10455800 0 -9000.88342418 0 831
0.02950000 0.02946900 63693.19489062 0 6535.70962568 0 13548.56254407 0 -10524.05968347 0 -4719.31539267 0 996
0.03050000 0.03053250 60314.03991640 0 2198.68560942 0 21377.39482194 0 -1106.20603738 0 -14416.55961724 0 1041
0.03150000 0.03150510 59666.31401463 0 -650.93125769 0 19314.09945367 0 1010.67090335 0 -24673.80946692 0 1036
0.03250000 0.03246190 55100.40096695 0 -330.10729477 0 13732.01094159 0 6537.14039009 0 -14847.67444262 0 1059
0.03350000 0.03345080 60384.13628112 0 -167.64898747 0 12369.34648454 0 -1843.57875673 0 -22488.06728434 0 1302
0.03450000 0.03451200 58471.57027937 0 1003.06123312 0 12145.08248224 0 -2182.90283617 0 -19589.60478586 0 1339
0.03550000 0.03553350 56252.55450593 0 2598.36798265 0 15367.85157949 0 -22.16220792 0 -20489.87724215 0 1365
0.03650000 0.03647120 52724.22293277 0 2915.33220904 0 12703.63516056 0 -2857.83544406 0 -10104.15805821 0 1308
0.03750000 0.03744890 49964.40039614 0 2930.61587843 0 19596.03768009 0 -390.42898761 0 -16155.43747478 0 1579
0.03850000 0.03847530 45759.06216125 0 2936.41657444 0 22096.54803207 0 2126.30445814 0 -5054.00335178 0 1662
0.03950000 0.03950240 41916.73880248 0 2345.39996266 0 19357.02238585 0 3270.64979447 0 -4546.60327379 0 1683
0.04050000 0.04050350 40389.92463059 0 201.37066267 0 20662.89991454 0 5362.74900122 0 5187.10880635 0 1822
0.04150000 0.04152450 39968.79188246 0 -1158.25369730 0 13769.83192319 0 8179.39173981 0 6081.66929621 0 1887
0.04250000 0.04250150 40649.01499130 0 -380.42694620 0 12570.54079718 0 3641.98306830 0 8605.71516811 0 1920
0.04350000 0.04349210 40086.02583421 0 1065.53461817 0 9414.70707351 0 -1469.25085973 0 5259.01303617 0 2005
0.04450000 0.04448520 39380.07114845 0 740.70007843 0 11182.36658714 0 -442.16720314 0 5389.47878587 0 2151
0.04550000 0.04548030 39280.36128789 0 -301.55855383 0 10481.84658789 0 -1565.32280770 0 5739.51696155 0 2274
0.04650000 0.04648670 38993.21019890 0 966.31609764 0 11905.29080422 0 -2453.05112024 0 -1499.28582107 0 2311
0.04750000 0.04749250 38931.65405583 0 1447.01300985 0 15930.17526476 0 -2439.96350784 0 106.81465951 0 2568
0.04850000 0.04851840 36844.06896624 0 711.50250247 0 16251.04359247 0 -1806.85580364 0 -3161.82297001 0 2493
0.04950000 0.04949480 36465.52641440 0 -70.45738317 0 19219.93519157 0 3009.24137360 0 2689.47107438 0 2644
0.05050000 0.05050630 37136.87656567 0 143.17737052 0 17007.90687222 0 2372.47357441 0 -248.78109315 0 2829
0.05150000 0.05149060 37454.75027021 0 242.52343983 0 17181.92775234 0 2578.70329046 0 1987.75322586 0 2784
0.05250000 0.05249300 36932.79854183 0 179.88812330 0 18358.37101264 0 -177.47135149 0 5052.30639864 0 3055
0.05350000 0.05348950 36941.11693954 0 710.67509918 0 18249.67728254 0 -336.89399818 0 6219.69924223 0 3009
0.05450000 0.05448610 35654.75991748 0 740.78104417 0 18364.36025899 0 1501.50406046 0 4101.52463145 0 3336
0.05550000 0.05550870 34299.97021026 0 803.42745189 0 17380.34926574 0 -411.31149323 0 6558.15820830 0 3349
0.05650000 0.05647670 34337.45845594 0 -61.30614748 0 17114.71509883 0 4210.51782386 0 6300.36551763 0 3324
0.05750000 0.05747970 33850.33308598 0 50.04148421 0 15096.89363804 0 4185.66245150 0 7117.67582075 0 3639
0.05850000 0.05849280 32802.21497437 0 -297.54132229 0 11761.88162768 0 3979.61019460 0 8720.16522942 0 3846
0.05950000 0.05951020 33435.74414405 0 -47.56504176 0 6579.45330644 0 2516.29312523 0 8754.83631108 0 3787
0.06050000 0.06049470 32555.54675424 0 512.78152675 0 8319.86174916 0 30.59162851 0 6356.87516609 0 3930
0.06150000 0.06148310 31601.37108078 0 1472.86658994 0 6564.73528809 0 -3037.74574975 0 5072.27055315 0 4083
0.06250000 0.06249100 29725.73876487 0 1285.51409109 0 9611.96401124 0 -2664.84861716 0 2750.57247837 0 4303
0.06350000 0.06350600 28659.43109027 0 665.71138675 0 8454.24269139 0 -2760.27727570 0 -642.38327221 0 4470
0.06450000 0.06451750 28025.68009665 0 654.19428784 0 10213.00706506 0 -237.51354617 0 -3130.78980095 0 4479
0.06550000 0.06550280 27274.80606325 0 -128.90632741 0 11750.79043073 0 251.73800625 0 -3454.85239339 0 4636
0.06650000 0.06648880 28182.39870953 0 -683.27207888 0 9190.15470010 0 2277.26673980 0 -4678.93234458 0 4653
0.06750000 0.06749660 28722.42908893 0 -779.06674692 0 8174.93307864 0 1790.15246103 0 -3597.04153826 0 5220
0.06850000 0.06852730 29337.10322380 0 -36.84129617 0 6480.28691453 0 1610.02033140 0 -3154.79115115 0 5029
0.06950000 0.06949320 29632.12906263 0 -85.24028503 0 6305.14582352 0 643.12860064 0 -1690.30950611 0 5040
0.07050000 0.07048030 28980.18850601 0 -12.09339750 0 5164.54931176 0 -601.70519828 0 -2382.18946293 0 5475
0.07150000 0.07148790 29276.10164059 0 537.85650481 0 5870.14907921 0 -713.87712773 0 -3741.71511126 0 5509
0.07250000 0.07249820 28953.79145727 0 535.17465339 0 5810.60044280 0 -1219.48819565 0 -4447.91380334 0 5916
0.07350000 0.07351270 27643.92109769 0 366.84910290 0 6239.84085589 0 -1016.56698365 0 -5133.03922123 0 5721
0.07450000 0.07449140 27682.51846307 0 347.56927525 0 7167.94112532 0 419.47350506 0 -4277.33119428 0 6028
0.07550000 0.07549160 27351.77897007 0 440.43919465 0 7035.21277144 0 -344.52030520 0 -6015.24411769 0 6183
0.07650000 0.07648840 26973.56915414 0 442.04630909 0 8230.83271126 0 -380.24394145 0 -4543.91920413 0 6330
0.07750000 0.07749960 26317.85759056 0 396.64449438 0 7215.92164332 0 564.89684297 0 -3589.20006202 0 6583
0.07850000 0.07848650 25736.67887047 0 582.75810653 0 9369.62135792 0 217.26212966 0 -1838.93154521 0 6549
0.07950000 0.07947320 25337.17395640 0 523.76957556 0 7686.21057632 0 596.75852444 0 -463.69965289 0 6828
0.08050000 0.08048110 24681.90604070 0 238.76796054 0 10242.27673381 0 1146.85194684 0 -530.72486517 0 7147
0.08150000 0.08149960 23888.33089905 0 536.56548948 0 7842.30808216 0 726.32366895 0 2636.35533220 0 7386
0.08250000 0.08250610 23602.73257763 0 -42.38123813 0 8215.04993800 0 1221.95044138 0 548.20015508 0 7227
0.08350000 0.08350160 22980.84916475 0 285.83678215 0 7600.55326228 0 517.62061598 0 2140.76737896 0 7798
0.08450000 0.08449610 23358.39350887 0 335.92573669 0 6076.75589596 0 -43.69410311 0 556.14145210 0 7371
0.08550000 0.08548940 22340.55436493 0 228.75371882 0 5717.96676588 0 161.80614492 0 -665.23113792 0 8256
0.08650000 0.08650700 22114.07212324 0 159.81416595 0 5202.63648208 0 220.30333586 0 -1053.50288773 0 8037
0.08750000 0.08749060 21451.70584150 0 550.07900384 0 3919.64009270 0 -102.06463259 0 -3367.73104136 0 8155
0.08850000 0.08849210 20648.48135851 0 627.35248210 0 4324.86806440 0 -105.13168128 0 -2461.61352428 0 8718
0.08950000 0.08949900 20059.64971252 0 280.16918051 0 4393.82203583 0 -351.23824320 0 -4732.93538252 0 8571
0.09050000 0.09049190 19416.13846559 0 277.71913510 0 3832.56310546 0 408.97014155 0 -3014.96443122 0 8932
0.09150000 0.09150830 19209.39855447 0 -37.54059613 0 3123.99089722 0 457.38543447 0 -4819.41344512 0 9285
0.09250000 0.09250820 19189.65622391 0 -10.73533589 0 3535.81813111 0 -36.21708360 0 -3329.64387104 0 9204
0.09350000 0.09350330 19335.83819968 0 -3.77496652 0 3197.21497948 0 332.64717887 0 -3617.81535015 0 9349
0.09450000 0.09448040 19450.29935219 0 250.34051544 0 3940.44717817 0 -625.12426064 0 -4041.51016477 0 9564
0.09550000 0.09549270 18991.90018232 0 353.83469240 0 3378.84442070 0 -66.63036567 0 -2649.88659248 0 10155
0.09650000 0.09649430 18352.93632613 0 511.49827526 0 5412.67047869 0 88.61622355 0 -2376.02275743 0 9913
0.09750000 0.09749140 18194.66494568 0 93.64197763 0 4183.39984732 0 779.23644223 0 942.11399677 0 10476
0.09850000 0.09850240 18138.09984125 0 -136.83098763 0 4741.38687459 0 1369.19717206 0 437.36471486 0 10575
0.09950000 0.09950330 18493.90543934 0 -57.30178174 0 3283.52667413 0 678.25996697 0 980.65701529 0 10882
0.10050000 0.10051200 17993.80336895 0 280.84463440 0 4047.23322239 0 -512.74825316 0 1016.95628466 0 10875
0.10150000 0.10150300 18062.79061397 0 552.41148256 0 4583.47041244 0 -1233.75147493 0 2000.90738544 0 11118
0.10250000 0.10250800 17004.24677723 0 330.10951301 0 5647.53766526 0 -305.39388973 0 1741.50647122 0 11575
0.10350000 0.10349800 16971.86048214 0 250.39597142 0 5818.53064861 0 139.76017274 0 639.10027791 0 11364
0.10450000 0.10450100 16675.94734756 0 97.19127156 0 5308.64614251 0 143.04094880 0 167.47152832 0 12093
0.10550000 0.10551000 16769.00248996 0 162.70120451 0 5816.34568281 0 215.60066836 0 334.41733390 0 12067
0.10650000 0.10649700 16073.02988146 0 619.29361840 0 5676.78515161 0 -364.11734109 0 711.40379082 0 12054
0.10750000 0.10749900 15682.17610100 0 446.13452428 0 6548.90815005 0 -562.00425880 0 458.55555575 0 12807
0.10850000 0.10850100 15154.90059808 0 -10.38920182 0 6012.16076494 0 172.32281786 0 165.25772541 0 12736
0.10950000 0.10950300 15226.77155431 0 21.99262352 0 6382.68438138 0 473.83367954 0 -56.76674240 0 12933
0.11050000 0.11050200 15160.88984443 0 -4.80781205 0 5158.83734533 0 640.74510242 0 -681.24793543 0 13428
0.11150000 0.11150900 15090.57165578 0 80.24525357 0 5501.92134053 0 415.28214173 0 592.15235035 0 13453
0.11250000 0.11250000 15125.17619026 0 -33.34912190 0 4741.36469220 0 37.68944000 0 -222.47942870 0 13668
0.11350000 0.11349100 15441.16439132 0 -133.43486312 0 4817.22847932 0 871.75366157 0 414.56454129 0 13791
0.11450000 0.11448600 15148.13496794 0 -38.25730928 0 4069.27143073 0 147.84787356 0 -247.31261867 0 14205
0.11550000 0.11549300 15179.85579122 0 272.24452029 0 3848.19060196 0 -91.11551387 0 353.39991748 0 14776
0.11650000 0.11649800 14886.16089603 0 427.56453323 0 4855.01618733 0 -73.34453265 0 -219.87188830 0 14553
0.11750000 0.11747300 14271.15402525 0 382.55867426 0 4782.14702338 0 -599.64001741 0 747.23168432 0 14568
0.11850000 0.11849100 13899.04436763 0 288.32897411 0 5396.82115825 0 -154.11883631 0 61.87701139 0 16015
0.11950000 0.11950300 13743.65669839 0 40.12040854 0 5070.79542395 0 67.76410782 0 -199.29106324 0 15270
0.12050000 0.12050700 13585.71805385 0 225.11691534 0 5566.74938669 0 214.57695088 0 -296.48433122 0 15999
0.12150000 0.12150000 13346.81367158 0 69.25421013 0 4776.82324884 0 -146.22634057 0 -472.62362996 0 15670
0.12250000 0.12250700 13476.58067588 0 -146.11431948 0 5042.01376787 0 680.64790168 0 428.48732082 0 16887
0.12350000 0.12352200 13672.78394989 0 -145.78823829 0 4774.18354397 0 419.42359467 0 -348.91463744 0 16407
0.12450000 0.12449800 13906.47546959 0 -0.06137702 0 4386.34656908 0 40.95036281 0 248.49604939 0 16306
0.12550000 0.12549900 13871.76002314 0 220.39317456 0 4712.26139141 0 -238.19454566 0 44.88474311 0 17523
0.12650000 0.12650100 13301.22885213 0 493.15676287 0 5148.98836244 0 -423.54951994 0 389.49289059 0 17154
0.12750000 0.12750600 13146.72847864 0 186.00824578 0 5688.48636440 0 -137.18812417 0 971.83951372 0 18007
0.12850000 0.12850300 12678.56905545 0 59.94015567 0 5648.36950503 0 987.36164384 0 604.39037706 0 17496
0.12950000 0.12949900 12914.81155045 0 -60.58078320 0 5326.80243191 0 509.06486665 0 1444.15148104 0 18405
0.13050000 0.13049000 12752.21460319 0 -42.41539902 0 4332.13279840 0 536.63425490 0 978.42324822 0 18100
0.13150000 0.13148800 12677.68175970 0 201.57141334 0 4597.30113504 0 157.47835987 0 2045.81564189 0 19059
0.13250000 0.13249300 12649.51011945 0 145.37897312 0 4419.64234232 0 -195.16402886 0 769.98416574 0 18957
0.13350000 0.13349100 12311.45043647 0 181.76364471 0 4217.87128744 0 8.31296302 0 912.02357945 0 19468
0.13450000 0.13450700 12035.72328033 0 169.94264700 0 4236.30485677 0 236.42328151 0 1115.71895701 0 19953
0.13550000 0.13551000 11830.20340088 0 -5.33791581 0 3737.65573317 0 194.27340575 0 842.84112937 0 19956
0.13650000 0.13649900 12150.18443284 0 -9.36530688 0 3906.88521621 0 628.42389173 0 1708.27724516 0 19723
0.13750000 0.13749600 11698.10724523 0 183.59923780 0 3021.90752051 0 -48.67970705 0 183.19662735 0 20946
0.13850000 0.13851100 11634.00012687 0 436.54507540 0 3844.04249430 0 -478.86131912 0 1568.19542771 0 20955
0.13950000 0.13949800 11020.24656134 0 214.86088552 0 4177.93188723 0 -386.33411770 0 837.24118403 0 20506
0.14050000 0.14048300 11040.11089508 0 110.46754522 0 4144.33665167 0 424.41574242 0 1400.67398900 0 21447
0.14150000 0.14148400 10869.43955644 0 -69.31376986 0 4071.05711344 0 149.66682986 0 564.76707596 0 21771
0.14250000 0.14249400 10852.10401561 0 100.51896338 0 3609.87405313 0 277.42965486 0 596.96814806 0 22470
0.14350000 0.14350900 10650.69897023 0 182.38696998 0 3676.50996440 0 119.35237036 0 878.39285207 0 22519
0.14450000 0.14449900 10366.99724349 0 125.66326142 0 3623.63822854 0 38.25265098 0 1050.31416860 0 22218
0.14550000 0.14550500 10310.24358870 0 52.93828303 0 3556.96904369 0 263.48136558 0 724.27290663 0 23559
0.14650000 0.14650700 10358.32392747 0 -64.25995505 0 2944.05840913 0 537.96519854 0 860.40736710 0 23044
0.14750000 0.14750500 10341.85350001 0 -69.70429090 0 2695.74869186 0 519.74901667 0 1144.44515710 0 23649
0.14850000 0.14849900 10300.06186991 0 115.73885839 0 2394.06813486 0 15.61341068 0 1199.46858516 0 23640
0.14950000 0.14949500 10225.77303275 0 131.88764115 0 2250.68114072 0 237.03440646 0 1325.60876805 0 24457
0.15050000 0.15050000 10017.67999560 0 154.54141092 0 2731.51780201 0 -155.67271301 0 1551.89136819 0 24591
0.15150000 0.15149900 9839.35573107 0 190.28390220 0 2425.53386061 0 -90.64646715 0 1610.77453279 0 25020
0.15250000 0.15250500 9707.74758808 0 45.72700860 0 2720.26023711 0 115.95513673 0 1593.47226555 0 25297
0.15350000 0.15350100 9595.58231335 0 125.54791298 0 2640.40361908 0 5.72172668 0 1340.09387127 0 25452
0.15450000 0.15450400 9608.99157046 0 108.14515949 0 2763.71554676 0 -9.70612827 0 1560.02121556 0 26061
0.15550000 0.15549900 9345.48691336 0 14.02892228 0 2676.73838029 0 121.11587067 0 1077.68724267 0 26128
0.15650000 0.15649500 9322.65013884 0 39.59956594 0 2602.72682305 0 59.76347290 0 1303.51510373 0 26331
0.15750000 0.15749700 9285.61663223 0 53.43417045 0 2423.51526276 0 58.85177651 0 535.85343464 0 27345
0.15850000 0.15849900 9357.59850043 0 154.17207406 0 2345.35559787 0 -155.00391383 0 1059.01410349 0 26980
0.15950000 0.15949700 9043.44034687 0 67.95520914 0 2441.40536344 0 -109.72887150 0 533.78048993 0 27777
0.16050000 0.16050000 9128.12163557 0 -25.65560222 0 2309.95249721 0 193.64786224 0 583.34926733 0 28224
0.16150000 0.16150500 8927.13805567 0 122.50670677 0 2232.18102421 0 -110.55782756 0 -2.45559100 0 28075
0.16250000 0.16249700 8898.20112283 0 194.04603621 0 2392.18263138 0 -204.66142081 0 201.78214608 0 28590
0.16350000 0.16349900 8763.84236300 0 109.06473063 0 2666.70084705 0 -120.25297555 0 -28.96044618 0 29163
0.16450000 0.16449100 8610.83930110 0 148.06415190 0 2641.23545886 0 4.80430723 0 39.47412450 0 28996
0.16550000 0.16550500 8465.02333482 0 131.79114774 0 2863.86905520 0 18.25622109 0 -102.83458348 0 30777
0.16650000 0.16650700 8242.27882651 0 89.89548221 0 2613.33000733 0 -137.36447420 0 -328.63216558 0 29211
0.16750000 0.16749900 8285.71195376 0 -24.09196528 0 2694.51756900 0 416.80939955 0 52.49873890 0 30922
0.16850000 0.16850800 8260.80112541 0 3.79252388 0 2256.54838390 0 119.14607410 0 -346.55443072 0 30867
0.16950000 0.16949900 8383.74704359 0 12.51364296 0 2392.37118173 0 -23.27343494 0 -236.76932685 0 30852
0.17050000 0.17049200 8218.56584744 0 118.70464446 0 2224.51700712 0 22.59376639 0 -167.55693054 0 31257
0.17150000 0.17149500 8151.06482281 0 -7.94467983 0 2014.01718024 0 335.94237348 0 -81.13787310 0 32608
0.17250000 0.17250900 8251.20724005 0 8.02196329 0 2025.70730182 0 289.84070425 0 41.02434110 0 32361
0.17350000 0.17350400 8237.73143576 0 22.65543345 0 1882.58649640 0 9.98336383 0 -64.82715887 0 32508
0.17450000 0.17449800 8070.85328648 0 89.87817994 0 1864.58548375 0 9.62821261 0 387.55414936 0 32791
0.17550000 0.17549800 8124.46813253 0 63.47181460 0 1720.49974420 0 3.63122461 0 45.73887618 0 33633
0.17650000 0.17650100 8012.60232011 0 9.13635130 0 1898.43581684 0 29.62613982 0 463.74956328 0 33984
0.17750000 0.17750300 7969.93448545 0 132.70506237 0 1846.08536724 0 40.69670714 0 302.82738676 0 34069
0.17850000 0.17849800 7872.24322273 0 112.18967537 0 2181.02842388 0 -14.46280991 0 514.66813935 0 34536
