### header ###
fiducial parameters:
Omega_m = 0.31
Omega_nu = 0
Omega_de = 0.69
Omega_k = 0
H_0 = 100
w_de = -1
zeff = 0
beta = 0
fgrowth = 0
b_1 = 2
gamma = 0.55
Lx = 3500 Ly = 3500 Lz = 3500
nx = 700 ny = 700 nz = 700
xoffset = 1379.75464 yoffset = 22.6059522 zoffset = 368.141391
bins = 400 dk = 0.001
kx_ny = 0.628318531 ky_ny = 0.628318531 kz_ny = 0.628318531
############################
A(data) = 3.32609179 (not used)
A(ran) = 3.32195724 (used)
Ngal = 186485
weighted Ngal = 0
Nran = 9399747
weighted Nran = 0
SN(data) = 6659.37957
SN(ran) = 132.132121
SN(data+ran) = 6791.51169
############################
13 columns: k_central k_mean P_0(k) sigma^{lin}_{P_0(k)} P^img_1(k) sigma^{lin}_{P_1(k)} P_2(k) sigma^{lin}_{P_2(k)} P^img_3(k) sigma^{lin}_{P_3(k)} P_4(k) sigma^{lin}_{P_4(k)} N_modes
### header ###
0.00050000 0 0 0 0 0 0 0 0 0 0 0 0
0.00150000 0.00179520 47973.86327984 0 -52740.85972819 0 -99320.33772770 0 116596.20791819 0 36649.97301965 0 3
0.00250000 0.00253879 82218.15568142 0 -48567.46414051 0 -30399.97262735 0 -69856.12938687 0 -65783.88551536 0 6
0.00350000 0.00331552 110662.41755089 0 -24747.56592663 0 -69417.36163560 0 -58127.07770215 0 46028.68915906 0 7
0.00450000 0.00420575 126094.70898465 0 -4179.62884036 0 -48964.97263914 0 -72076.80883984 0 9782.52443791 0 24
0.00550000 0.00557378 117161.85896255 0 4256.46865282 0 -37258.10334832 0 -54554.49225316 0 7215.91055212 0 45
0.00650000 0.00659388 117843.96757487 0 494.11504228 0 10105.61100501 0 1038.34676710 0 -64216.25573870 0 40
0.00750000 0.00754703 92769.65498614 0 17161.29812602 0 3966.18984629 0 -30537.50346951 0 -24124.35157011 0 57
0.00850000 0.00846663 98432.37650002 0 17215.20134318 0 38463.60554462 0 -21269.25565170 0 -19382.19940293 0 75
0.00950000 0.00948925 74146.53710235 0 3375.10668733 0 59582.35365373 0 2898.57341045 0 27354.10812143 0 112
0.01050000 0.01054430 68168.27103529 0 5294.13885690 0 43079.98353841 0 37733.13931361 0 -16239.95239553 0 105
0.01150000 0.01145670 73769.88005399 0 5947.21071561 0 56385.53795734 0 18463.29373577 0 25813.98451320 0 144
0.01250000 0.01249090 64166.34535243 0 3608.88693660 0 42313.02726944 0 21420.98322595 0 34455.57970344 0 169
0.01350000 0.01339930 65409.11397048 0 3647.87249388 0 59143.69681443 0 18922.13655352 0 74582.53205438 0 180
0.01450000 0.01448870 60909.41536858 0 -3251.90567163 0 26220.36596938 0 31999.65596319 0 51521.38262373 0 267
0.01550000 0.01550050 60685.26227826 0 -672.41601530 0 18140.42899260 0 10004.34837687 0 34466.78181236 0 238
0.01650000 0.01653350 61147.65427903 0 4542.39971014 0 17462.20229922 0 4772.63077640 0 43991.12536770 0 315
0.01750000 0.01747870 62355.04197882 0 -687.06859559 0 21931.62193345 0 3887.95254302 0 52992.07533907 0 297
0.01850000 0.01844180 57862.99630282 0 -4960.92602699 0 2228.48765562 0 11734.26454728 0 41348.64769479 0 388
0.01950000 0.01947590 71711.57572434 0 -10022.19411276 0 1062.42242831 0 10311.74090029 0 16085.67384598 0 399
0.02050000 0.02045430 75976.36277487 0 -4194.09176118 0 -17799.26377448 0 2781.73874180 0 3009.99557499 0 462
0.02150000 0.02154770 78077.47912474 0 5002.78420427 0 -1198.29291829 0 -13880.07842085 0 7755.04254458 0 571
0.02250000 0.02255340 70769.82219146 0 5200.39606029 0 3560.56259150 0 -22945.57915845 0 5504.60541019 0 510
0.02350000 0.02348930 63947.40512467 0 6647.03196945 0 21188.28991398 0 -9194.93500598 0 -15324.48499942 0 555
0.02450000 0.02439640 63576.07185085 0 3866.46889453 0 24824.31700951 0 -8851.99519635 0 -17956.64785917 0 592
0.02550000 0.02547300 57063.32100285 0 660.92331702 0 33396.25948292 0 3745.12010872 0 -13568.97034646 0 837
0.02650000 0.02652900 59638.14237438 0 847.01252854 0 28548.96276866 0 2082.41659182 0 -12594.38687062 0 723
0.02750000 0.02749970 58667.88446535 0 -293.57621938 0 26597.35575365 0 5167.33320219 0 -6314.75080008 0 826
0.02850000 0.02848090 58625.29426907 0 2440.88407718 0 25234.91312054 0 592.48286802 0 -12104.82143732 0 831
0.02950000 0.02946900 54765.44681912 0 2208.68986907 0 26378.30461393 0 -2966.52917415 0 -6115.47526451 0 996
0.03050000 0.03053250 51792.00782927 0 3432.13762204 0 30836.52213923 0 -2028.96811372 0 -11430.36575090 0 1041
0.03150000 0.03150510 49604.26923123 0 1335.31356538 0 29997.02944222 0 -2312.79184363 0 -13231.35431135 0 1036
0.03250000 0.03246190 48858.16441252 0 -621.91225000 0 27900.46048310 0 1215.96119502 0 -14527.47158672 0 1059
0.03350000 0.03345080 49837.73892699 0 -272.36097786 0 27355.66088900 0 5793.83055301 0 -14766.15414505 0 1302
0.03450000 0.03451200 49075.33004877 0 -195.19175685 0 26817.07236520 0 3808.81685279 0 -4672.84327745 0 1339
0.03550000 0.03553350 51735.33181286 0 -120.35945104 0 21885.26073020 0 7109.82325331 0 -10815.72488962 0 1365
0.03650000 0.03647120 48872.47205659 0 -419.69865636 0 18739.57545175 0 -479.70646833 0 3805.77786483 0 1308
0.03750000 0.03744890 48824.00352592 0 2044.24069192 0 19422.79318376 0 3901.40616492 0 -2066.55618018 0 1579
0.03850000 0.03847530 47634.69447717 0 1942.88933421 0 24561.23381790 0 -2336.49373151 0 1276.98496063 0 1662
0.03950000 0.03950240 44425.34572823 0 1785.03941924 0 19891.72899073 0 750.81525005 0 3312.55233654 0 1683
0.04050000 0.04050350 42237.82895413 0 599.23740696 0 25036.60251910 0 3362.15216929 0 1582.90235486 0 1822
0.04150000 0.04152450 41728.74301421 0 479.07981570 0 18735.80444479 0 -475.29549930 0 3074.13596694 0 1887
0.04250000 0.04250150 41641.23347028 0 -148.81613505 0 19057.11642038 0 4408.93933727 0 -4466.03681916 0 1920
0.04350000 0.04349210 41229.52823957 0 387.49203866 0 16216.54996997 0 639.62600064 0 1780.02619822 0 2005
0.04450000 0.04448520 41594.98317901 0 -516.12884999 0 12502.44084791 0 1254.68056357 0 -9007.36068320 0 2151
0.04550000 0.04548030 40524.23902563 0 352.26750627 0 15895.34890635 0 -1133.27632178 0 -6497.31190184 0 2274
0.04650000 0.04648670 39242.98395417 0 1709.71910077 0 10619.49943321 0 -2529.85765910 0 -10523.38312046 0 2311
0.04750000 0.04749250 38736.22716561 0 361.89688346 0 14217.91627990 0 1383.40499535 0 -11902.29618105 0 2568
0.04850000 0.04851840 37816.43420269 0 9.68231547 0 8170.50769106 0 1831.72226720 0 -10628.90476822 0 2493
0.04950000 0.04949480 37085.08067592 0 930.02459210 0 10325.13906621 0 1522.22241636 0 -11813.12295758 0 2644
0.05050000 0.05050630 36957.64282299 0 1202.78485305 0 8745.67498240 0 1237.56684668 0 -4998.66937020 0 2829
0.05150000 0.05149060 33967.12338984 0 355.74237828 0 7945.94422645 0 2325.11416344 0 -6070.17881617 0 2784
0.05250000 0.05249300 35177.83844871 0 -491.94560416 0 4841.72893338 0 3094.75450207 0 -759.62720603 0 3055
0.05350000 0.05348950 33246.30650018 0 140.58979428 0 4581.21889946 0 2189.53537194 0 -2045.16126127 0 3009
0.05450000 0.05448610 34879.26342686 0 30.34418391 0 4518.66454868 0 783.61524679 0 4679.33162767 0 3336
0.05550000 0.05550870 34091.89935551 0 233.28003629 0 5446.78700050 0 702.96449906 0 4270.31046661 0 3349
0.05650000 0.05647670 34354.64981121 0 457.56178450 0 6398.10114514 0 14.07262160 0 8012.24740181 0 3324
0.05750000 0.05747970 33957.58496046 0 -469.32954446 0 5408.05654076 0 1192.04857440 0 6174.82425938 0 3639
0.05850000 0.05849280 34280.11696772 0 34.35487164 0 6553.33353763 0 -292.53586511 0 7164.07029758 0 3846
0.05950000 0.05951020 35332.11699826 0 702.84804149 0 7471.76228332 0 -425.63577408 0 7582.97371512 0 3787
0.06050000 0.06049470 32722.69109225 0 682.13855855 0 8750.98766574 0 -2236.71732376 0 3595.69950343 0 3930
0.06150000 0.06148310 32370.43467717 0 1735.72795761 0 10801.60579590 0 -3051.21046285 0 3621.65290429 0 4083
0.06250000 0.06249100 31260.09495069 0 1025.29131917 0 12966.49652823 0 -1510.93157786 0 -39.70626325 0 4303
0.06350000 0.06350600 29483.28519958 0 863.40753587 0 12870.66858660 0 -1167.43720838 0 -930.05010185 0 4470
0.06450000 0.06451750 28896.89361693 0 257.06067167 0 13626.86639453 0 1064.76932559 0 -1909.60465217 0 4479
0.06550000 0.06550280 28813.15507997 0 -329.36751193 0 10855.37591871 0 908.34130207 0 -2694.78375772 0 4636
0.06650000 0.06648880 29716.53307140 0 -514.55611826 0 10825.39641336 0 2257.89041873 0 -2639.64941769 0 4653
0.06750000 0.06749660 29842.52906874 0 -622.52337495 0 8814.99496333 0 2079.54397181 0 -2969.54597972 0 5220
0.06850000 0.06852730 30143.10050603 0 564.20586140 0 7937.79219669 0 -1088.80949497 0 -3866.13615862 0 5029
0.06950000 0.06949320 29619.26327417 0 1133.85306402 0 10331.11722136 0 -2420.28772445 0 -2099.04229604 0 5040
0.07050000 0.07048030 28404.77720834 0 873.86875283 0 10755.85460849 0 -1700.99032877 0 -3243.15471724 0 5475
0.07150000 0.07148790 26860.10620936 0 538.01289068 0 12589.28492002 0 121.77690601 0 -4006.98326867 0 5509
0.07250000 0.07249820 27028.80331494 0 523.00650121 0 12223.82998058 0 614.79502892 0 -3382.69306604 0 5916
0.07350000 0.07351270 26909.79477169 0 -125.11535629 0 12012.32085477 0 1286.44575163 0 -4883.54274588 0 5721
0.07450000 0.07449140 26728.34278961 0 177.73975845 0 12677.79267167 0 1326.92862049 0 -755.92163713 0 6028
0.07550000 0.07549160 25898.05578607 0 643.21511198 0 11385.11366735 0 481.46664128 0 -554.17498288 0 6183
0.07650000 0.07648840 25295.69287981 0 388.28284100 0 10031.83236291 0 1036.65535956 0 582.16916397 0 6330
0.07750000 0.07749960 24903.72997966 0 9.68766143 0 12743.67438154 0 1771.90744205 0 4028.48909955 0 6583
0.07850000 0.07848650 24578.53608514 0 371.77470347 0 8500.08260838 0 2167.40843403 0 2844.94747320 0 6549
0.07950000 0.07947320 24709.30129716 0 278.49995537 0 10404.37457720 0 1144.42297471 0 6629.07532159 0 6828
0.08050000 0.08048110 23799.15767559 0 611.09944209 0 8417.49755590 0 -512.45988204 0 5063.84124347 0 7147
0.08150000 0.08149960 22959.33224267 0 586.80972078 0 10633.27469982 0 925.99072377 0 7950.74671473 0 7386
0.08250000 0.08250610 22372.71883608 0 350.19234332 0 9020.86976108 0 -371.28669080 0 5610.19360514 0 7227
0.08350000 0.08350160 22011.36763950 0 45.18431634 0 9823.16258353 0 481.03408460 0 5375.31532737 0 7798
0.08450000 0.08449610 22021.79336463 0 62.58706982 0 8729.57056443 0 1206.58913360 0 5509.28589530 0 7371
0.08550000 0.08548940 21892.91365610 0 -279.60907506 0 7067.65452251 0 999.04067423 0 3534.44282269 0 8256
0.08650000 0.08650700 22329.35225601 0 -173.63601558 0 6353.05979434 0 817.35466790 0 3911.57679252 0 8037
0.08750000 0.08749060 21591.23309910 0 532.12568334 0 6466.22327680 0 -726.24935793 0 2041.09079199 0 8155
0.08850000 0.08849210 21054.64099075 0 758.15873155 0 6818.30223272 0 -984.91714404 0 2467.07039318 0 8718
0.08950000 0.08949900 20256.96210623 0 623.27424898 0 7050.23025211 0 -688.67903739 0 875.04441971 0 8571
0.09050000 0.09049190 19743.43968753 0 364.62864527 0 7927.55502191 0 136.68347471 0 1089.58698788 0 8932
0.09150000 0.09150830 19289.14426053 0 146.26626887 0 8139.91816988 0 181.90672115 0 180.53141273 0 9285
0.09250000 0.09250820 18771.73992290 0 221.32261686 0 7510.14891596 0 599.26735319 0 1268.42255659 0 9204
0.09350000 0.09350330 19070.86950459 0 208.50119319 0 7136.10939008 0 161.76510749 0 304.26813324 0 9349
0.09450000 0.09448040 18875.77535027 0 -9.40332751 0 6853.21732072 0 338.15839463 0 137.16483266 0 9564
0.09550000 0.09549270 18471.61213348 0 116.78254003 0 6893.71128077 0 538.80702039 0 392.88346950 0 10155
0.09650000 0.09649430 18327.98113300 0 488.44633152 0 6366.04758596 0 -566.65479768 0 -13.19486427 0 9913
0.09750000 0.09749140 17431.25785974 0 382.66847711 0 7126.34913676 0 -351.64307188 0 158.82815854 0 10476
0.09850000 0.09850240 17197.56634004 0 294.92490893 0 7497.84877854 0 124.66394458 0 -919.95822175 0 10575
0.09950000 0.09950330 17019.21989311 0 118.86546681 0 7232.13697325 0 256.43956464 0 -123.49715066 0 10882
0.10050000 0.10051200 16857.84297751 0 110.66019931 0 6549.32961553 0 243.62035921 0 -880.87728018 0 10875
0.10150000 0.10150300 16752.14387060 0 276.09760211 0 7660.72300573 0 -153.93139509 0 -350.29549146 0 11118
0.10250000 0.10250800 16478.41312991 0 251.75686129 0 6809.87292304 0 -131.89096851 0 -339.03903567 0 11575
0.10350000 0.10349800 16401.10748718 0 -143.81955083 0 7452.40814465 0 1183.82999747 0 -373.34521695 0 11364
0.10450000 0.10450100 16396.44918447 0 -110.20058011 0 6265.22860570 0 595.55402045 0 368.33754153 0 12093
0.10550000 0.10551000 16215.88449815 0 353.34557062 0 6456.28556433 0 470.80911014 0 488.92658035 0 12067
0.10650000 0.10649700 16114.51095804 0 408.37787163 0 6201.38767607 0 7.21965938 0 1516.12225803 0 12054
0.10750000 0.10749900 15136.71103509 0 234.70414598 0 5447.24173957 0 350.69699278 0 1497.97705983 0 12807
0.10850000 0.10850100 15031.01192817 0 247.33036459 0 6211.48066529 0 611.26802829 0 1492.68655888 0 12736
0.10950000 0.10950300 14937.51313790 0 6.47781358 0 5021.32868557 0 413.67835466 0 1609.63213950 0 12933
0.11050000 0.11050200 14737.20612101 0 -150.24246298 0 4712.51648894 0 648.11298455 0 1465.23584644 0 13428
0.11150000 0.11150900 15037.00117452 0 -84.58446255 0 4690.13445349 0 424.95255635 0 1422.86747409 0 13453
0.11250000 0.11250000 15054.19252979 0 -169.14740818 0 3351.73753536 0 336.69546576 0 822.09060900 0 13668
0.11350000 0.11349100 14873.18419560 0 107.57618109 0 3959.76804326 0 307.87166313 0 1395.10620813 0 13791
0.11450000 0.11448600 15143.14392932 0 184.43995053 0 2743.93994260 0 -483.16359442 0 40.01914592 0 14205
0.11550000 0.11549300 14505.17828085 0 306.93002051 0 4034.01251563 0 -433.40183019 0 -40.00872019 0 14776
0.11650000 0.11649800 14274.81412024 0 408.41114522 0 3668.79049132 0 -1145.60973278 0 -856.22376761 0 14553
0.11750000 0.11747300 14297.44016201 0 -44.61223240 0 4410.54756082 0 546.88695736 0 -452.88019027 0 14568
0.11850000 0.11849100 14073.73071957 0 -154.42495335 0 3999.51889312 0 341.07537943 0 -1143.31385501 0 16015
0.11950000 0.11950300 14228.34200503 0 70.46570157 0 3441.92005774 0 -6.79424543 0 -1617.45143335 0 15270
0.12050000 0.12050700 14197.61938948 0 155.84240832 0 4057.49257957 0 -581.43603586 0 -2053.79021249 0 15999
0.12150000 0.12150000 13731.12364584 0 262.21142353 0 4088.12646554 0 -669.45799308 0 -2586.53367551 0 15670
0.12250000 0.12250700 13881.52027646 0 235.84210279 0 4857.02369397 0 -127.66854983 0 -2080.02089328 0 16887
0.12350000 0.12352200 13710.93766739 0 -109.23531324 0 4161.31727420 0 460.12385100 0 -2285.16367203 0 16407
0.12450000 0.12449800 13802.10730631 0 -128.52922671 0 4245.81001255 0 756.86438887 0 -1503.24537838 0 16306
0.12550000 0.12549900 13983.67020035 0 119.45440937 0 3735.87005046 0 730.78233012 0 -1334.94755589 0 17523
0.12650000 0.12650100 13557.10276572 0 198.30727408 0 3881.81911111 0 101.51051639 0 144.85879598 0 17154
0.12750000 0.12750600 13487.56096086 0 348.09943446 0 3625.84537674 0 -5.50772204 0 58.58348046 0 18007
0.12850000 0.12850300 13118.22410248 0 24.72316529 0 4530.84268292 0 260.93704500 0 641.05454681 0 17496
0.12950000 0.12949900 13060.77170229 0 38.78635938 0 3662.26886752 0 98.27732157 0 1014.96541481 0 18405
0.13050000 0.13049000 13018.95788979 0 -16.83532785 0 3909.30309714 0 152.83114835 0 516.38949311 0 18100
0.13150000 0.13148800 13004.09568588 0 86.86248349 0 3713.95384529 0 -62.76763451 0 738.50180320 0 19059
0.13250000 0.13249300 12915.80975817 0 97.87881486 0 3574.77041479 0 168.87012825 0 86.05936992 0 18957
0.13350000 0.13349100 12861.35198116 0 128.02346813 0 3754.43671416 0 -232.43710532 0 191.10243254 0 19468
0.13450000 0.13450700 12565.43884658 0 117.62103452 0 3457.24809193 0 185.19082456 0 -406.37147411 0 19953
0.13550000 0.13551000 12384.65233632 0 127.94250240 0 3469.44840857 0 5.39176357 0 -407.25876986 0 19956
0.13650000 0.13649900 12401.51095569 0 130.58553463 0 2991.71728242 0 155.02498710 0 -251.90770157 0 19723
0.13750000 0.13749600 12003.66972115 0 174.84606517 0 3404.55381523 0 -72.87770417 0 -1266.43723234 0 20946
0.13850000 0.13851100 11820.22132363 0 455.59198792 0 3447.28819707 0 -43.34894506 0 -433.15116914 0 20955
0.13950000 0.13949800 10870.16048424 0 443.34730649 0 3608.38783274 0 -414.29613433 0 -1168.45759850 0 20506
0.14050000 0.14048300 10733.90512973 0 339.34515271 0 3932.82752587 0 -19.31731590 0 -77.13628015 0 21447
0.14150000 0.14148400 10564.50927874 0 13.13219901 0 3764.84025689 0 623.68351415 0 -255.84951296 0 21771
0.14250000 0.14249400 10255.97436204 0 29.29695309 0 3501.21359663 0 413.29238100 0 110.56026763 0 22470
0.14350000 0.14350900 10398.44078684 0 2.34900460 0 3033.40909175 0 586.53909557 0 427.54124172 0 22519
0.14450000 0.14449900 10222.00202578 0 -23.75246374 0 3086.79102266 0 343.12614175 0 773.17510310 0 22218
0.14550000 0.14550500 10291.05581798 0 -34.71855198 0 2698.62131187 0 276.74865537 0 1224.63451104 0 23559
0.14650000 0.14650700 10385.09807691 0 71.65977983 0 2773.67544161 0 103.89257276 0 1185.58240658 0 23044
0.14750000 0.14750500 10167.17823927 0 125.68211646 0 2477.45175352 0 -245.07885161 0 1223.48102656 0 23649
0.14850000 0.14849900 10148.53393720 0 205.94578141 0 3186.32342407 0 -103.82513828 0 1179.49333946 0 23640
0.14950000 0.14949500 9971.69589306 0 121.91554597 0 3109.77198274 0 -212.50289705 0 1515.01313834 0 24457
0.15050000 0.15050000 9842.05089193 0 33.85188585 0 3215.51545444 0 303.91432406 0 1239.13070545 0 24591
0.15150000 0.15149900 9833.48848788 0 70.18819982 0 3363.13928582 0 -58.15447296 0 1637.29358469 0 25020
0.15250000 0.15250500 9924.17011413 0 59.82491813 0 2999.61421465 0 164.77304010 0 1124.21481387 0 25297
0.15350000 0.15350100 9757.01468493 0 66.52965760 0 3215.88146394 0 83.67864450 0 1680.21651688 0 25452
0.15450000 0.15450400 9595.79304609 0 92.72750844 0 3398.52020409 0 -290.80009279 0 1373.88874837 0 26061
0.15550000 0.15549900 9509.38153066 0 198.95832734 0 3301.51659558 0 -198.14645172 0 962.31883025 0 26128
0.15650000 0.15649500 9387.32290825 0 128.54586351 0 3829.26901996 0 -69.65438051 0 1032.50725190 0 26331
0.15750000 0.15749700 9117.05262101 0 74.50544824 0 3385.05549099 0 35.09055073 0 467.69248379 0 27345
0.15850000 0.15849900 9377.45174296 0 10.49069736 0 3601.06764276 0 35.65609086 0 697.18820369 0 26980
0.15950000 0.15949700 9202.65447906 0 53.45890382 0 3397.36671960 0 -2.74367375 0 -329.49062422 0 27777
0.16050000 0.16050000 9083.16901434 0 67.40098203 0 3280.41004778 0 12.51996494 0 31.48147524 0 28224
0.16150000 0.16150500 8985.04519494 0 83.58780759 0 2860.07586584 0 86.01201051 0 -729.45471385 0 28075
0.16250000 0.16249700 8863.36367322 0 181.98879601 0 3086.54701633 0 -94.19653747 0 -396.56574688 0 28590
0.16350000 0.16349900 8490.49981421 0 312.90595742 0 2929.69530909 0 -9.20469526 0 -543.68603792 0 29163
0.16450000 0.16449100 8257.75104625 0 76.41590691 0 3035.50532797 0 137.12046787 0 -207.52849522 0 28996
0.16550000 0.16550500 8190.05038008 0 10.73403822 0 2632.52886925 0 485.32083222 0 -458.65648564 0 30777
0.16650000 0.16650700 8270.23973402 0 -115.36508506 0 2480.34655592 0 500.43813366 0 -135.74072297 0 29211
0.16750000 0.16749900 8341.55613039 0 -73.62802365 0 2088.92712443 0 400.78483820 0 61.93346558 0 30922
0.16850000 0.16850800 8415.93369713 0 -18.97071600 0 1735.43958649 0 101.01063614 0 161.71297886 0 30867
0.16950000 0.16949900 8297.30225457 0 159.82969362 0 1887.48880545 0 -211.77420541 0 444.99324012 0 30852
0.17050000 0.17049200 8271.26012414 0 63.47791476 0 1823.68114941 0 92.68957654 0 298.62382311 0 31257
0.17150000 0.17149500 8275.43041419 0 -50.40815919 0 2041.90044936 0 169.36479564 0 512.93902174 0 32608
0.17250000 0.17250900 8323.85458007 0 -14.51726769 0 1725.53514761 0 90.40922645 0 286.88822762 0 32361
0.17350000 0.17350400 8430.55189471 0 7.88307932 0 1725.71260676 0 -12.73757422 0 178.63259981 0 32508
0.17450000 0.17449800 8257.37394556 0 137.94343468 0 1673.78362265 0 -257.74499852 0 148.12182612 0 32791
0.17550000 0.17549800 8192.77881453 0 171.79044041 0 2016.94525623 0 -388.86845620 0 -359.31374369 0 33633
0.17650000 0.17650100 8035.15072350 0 87.83806518 0 2005.12204028 0 36.11826104 0 -160.33434308 0 33984
0.17750000 0.17750300 7908.75544308 0 35.67195127 0 2090.02515292 0 163.35669425 0 -307.44354293 0 34069
0.17850000 0.17849800 7966.62930876 0 -49.16328324 0 1690.45369167 0 395.73723447 0 -363.92324515 0 34536
