### header ###
fiducial parameters:
Omega_m = 0.31
Omega_nu = 0
Omega_de = 0.69
Omega_k = 0
H_0 = 100
w_de = -1
zeff = 0
beta = 0
fgrowth = 0
b_1 = 2
gamma = 0.55
Lx = 3500 Ly = 3500 Lz = 3500
nx = 700 ny = 700 nz = 700
xoffset = 1379.75464 yoffset = 22.6059522 zoffset = 368.141391
bins = 400 dk = 0.001
kx_ny = 0.628318531 ky_ny = 0.628318531 kz_ny = 0.628318531
############################
A(data) = 3.34946693 (not used)
A(ran) = 3.35049178 (used)
Ngal = 188492
weighted Ngal = 0
Nran = 9399747
weighted Nran = 0
SN(data) = 6665.29812
SN(ran) = 133.267093
SN(data+ran) = 6798.56522
############################
13 columns: k_central k_mean P_0(k) sigma^{lin}_{P_0(k)} P^img_1(k) sigma^{lin}_{P_1(k)} P_2(k) sigma^{lin}_{P_2(k)} P^img_3(k) sigma^{lin}_{P_3(k)} P_4(k) sigma^{lin}_{P_4(k)} N_modes
### header ###
0.00050000 0 0 0 0 0 0 0 0 0 0 0 0
0.00150000 0.00179520 17141.55579545 0 -7444.00101736 0 -18197.99230477 0 18704.86000530 0 -39766.37753816 0 3
0.00250000 0.00253879 32332.28095967 0 -4235.77247931 0 682.94156121 0 -28768.45755627 0 19256.09249363 0 6
0.00350000 0.00331552 32244.54959181 0 -6334.23803311 0 -27658.89421357 0 21716.34180068 0 47075.25450310 0 7
0.00450000 0.00420575 29583.54961999 0 -6014.48991629 0 -10697.25981502 0 -11327.55035519 0 -7225.58207586 0 24
0.00550000 0.00557378 58046.11196443 0 -13483.01357011 0 -35664.18743489 0 -4665.55636106 0 -9707.30394021 0 45
0.00650000 0.00659388 48455.22122739 0 -6626.19161038 0 14246.42065605 0 -31392.85657816 0 -32306.54938275 0 40
0.00750000 0.00754703 72461.34063804 0 5854.03357004 0 -30980.59678759 0 -24519.64182934 0 18725.37871965 0 57
0.00850000 0.00846663 61113.04974455 0 -2188.22661070 0 2413.41118234 0 10952.23534166 0 -18033.84258993 0 75
0.00950000 0.00948925 64809.63477543 0 -11863.36607976 0 -15427.07857119 0 9454.60210894 0 1294.43141343 0 112
0.01050000 0.01054430 86026.98362541 0 -8240.89242689 0 -25909.92336680 0 13022.95072069 0 -15314.05927429 0 105
0.01150000 0.01145670 89622.19511617 0 -3806.39897186 0 -27661.99974871 0 -25905.04324015 0 -34495.72983639 0 144
0.01250000 0.01249090 91154.00032669 0 2878.43179679 0 -16450.13057770 0 -31478.48061860 0 -33230.33517657 0 169
0.01350000 0.01339930 84726.98443111 0 5807.61691082 0 1256.06696319 0 -35051.06606759 0 -38160.81586793 0 180
0.01450000 0.01448870 82584.27609268 0 2100.68379319 0 2992.81531092 0 -17909.06662426 0 -50512.63826129 0 267
0.01550000 0.01550050 85480.74217571 0 -522.10700514 0 28582.34727148 0 3470.66844023 0 -77400.13972711 0 238
0.01650000 0.01653350 78342.11508392 0 2850.17142697 0 3860.30218903 0 -2879.60746367 0 -47496.16542728 0 315
0.01750000 0.01747870 81050.58537868 0 1547.21088308 0 9502.48280616 0 -5770.07320915 0 -53033.22367974 0 297
0.01850000 0.01844180 79305.60736281 0 2133.66901291 0 10009.37268909 0 -2505.35720504 0 -42844.85016311 0 388
0.01950000 0.01947590 73160.08604577 0 -1384.49193265 0 10132.26315128 0 -1896.21757745 0 -55260.22511498 0 399
0.02050000 0.02045430 70443.96282512 0 4928.58409668 0 15982.96936224 0 -14274.81412024 0 -34103.76693624 0 462
0.02150000 0.02154770 67438.02662822 0 3563.32429954 0 17779.07779603 0 9.18202485 0 -32657.69667813 0 571
0.02250000 0.02255340 66806.38296202 0 -1399.11013023 0 16632.69167946 0 8780.16860491 0 -24450.76549630 0 510
0.02350000 0.02348930 66005.26580645 0 470.49412014 0 19533.03968142 0 1001.43637277 0 -19514.07373464 0 555
0.02450000 0.02439640 64259.40049483 0 5492.44945834 0 20573.94851501 0 497.36365387 0 -11816.45031667 0 592
0.02550000 0.02547300 58824.38125429 0 3796.25052665 0 22678.72495988 0 -2354.76093288 0 1996.95891933 0 837
0.02650000 0.02652900 52632.72055794 0 1974.61015748 0 30630.44769994 0 3823.24650002 0 -773.18841253 0 723
0.02750000 0.02749970 55868.68817956 0 853.67168319 0 32189.75907889 0 6728.33044308 0 11753.78505391 0 826
0.02850000 0.02848090 52329.93088126 0 -1488.38317447 0 25750.54286666 0 5497.24085542 0 2480.16909677 0 831
0.02950000 0.02946900 56818.20555029 0 -1049.03202624 0 21238.31121221 0 6255.78999710 0 15386.04114248 0 996
0.03050000 0.03053250 55970.50536754 0 -256.45065584 0 20110.22557061 0 1999.85372173 0 8970.59336531 0 1041
0.03150000 0.03150510 58102.78798084 0 751.89331439 0 13797.33809162 0 1242.67988847 0 11067.83888745 0 1036
0.03250000 0.03246190 55253.01583696 0 -179.99570791 0 17826.54811897 0 4033.93487725 0 3765.31717836 0 1059
0.03350000 0.03345080 55780.29133988 0 1825.59992648 0 14646.59104194 0 -2853.57642443 0 1629.82920915 0 1302
0.03450000 0.03451200 53611.29686468 0 2455.51336596 0 17306.26007013 0 -3290.48085461 0 -1005.55120684 0 1339
0.03550000 0.03553350 48450.78474862 0 2416.33925834 0 19541.46899110 0 -2631.07592245 0 -4570.44934723 0 1365
0.03650000 0.03647120 47155.44385703 0 2191.54287859 0 20941.73260582 0 -3645.67643688 0 -5409.22111644 0 1308
0.03750000 0.03744890 46134.72100189 0 1293.34447613 0 24987.02486874 0 3814.39572486 0 -4777.43326467 0 1579
0.03850000 0.03847530 45190.41649372 0 -580.53210330 0 20456.49273933 0 2888.22532370 0 -5984.26640461 0 1662
0.03950000 0.03950240 44489.12011068 0 504.68162562 0 20222.13574782 0 3129.15939500 0 -1801.58748509 0 1683
0.04050000 0.04050350 44047.24682426 0 1815.05219818 0 19011.19886501 0 -1773.20511210 0 -5882.54903740 0 1822
0.04150000 0.04152450 42000.14460353 0 974.52358338 0 20795.21789413 0 -1016.78437111 0 -740.89750174 0 1887
0.04250000 0.04250150 41756.91465445 0 40.61119401 0 20018.05772397 0 3253.91317828 0 -3444.29357389 0 1920
0.04350000 0.04349210 42351.29189891 0 -1774.12568144 0 16754.02937408 0 4929.93722271 0 2498.32538618 0 2005
0.04450000 0.04448520 42398.54039791 0 82.47458415 0 14986.20349250 0 3805.03475463 0 -3069.85476492 0 2151
0.04550000 0.04548030 44570.41858431 0 -28.22410161 0 13804.99101751 0 585.15824155 0 2645.66084644 0 2274
0.04650000 0.04648670 41103.86497814 0 1829.83676371 0 15250.50671578 0 -1301.40777631 0 -218.38788615 0 2311
0.04750000 0.04749250 39896.81001427 0 3168.32241143 0 16764.67692315 0 -3820.87298387 0 1317.10182000 0 2568
0.04850000 0.04851840 36223.29467305 0 1141.51708111 0 18370.90406519 0 163.06721401 0 1075.09855730 0 2493
0.04950000 0.04949480 34901.00217288 0 756.80116904 0 19708.83515305 0 1185.79313933 0 -885.91157448 0 2644
0.05050000 0.05050630 34387.03610630 0 120.06997080 0 18269.97417296 0 4335.52670467 0 3310.99956897 0 2829
0.05150000 0.05149060 34358.42081817 0 -279.88302763 0 17034.30392096 0 3179.05869007 0 1546.35686092 0 2784
0.05250000 0.05249300 35478.18806207 0 -648.75738309 0 12970.60027110 0 3530.05070870 0 7862.57169899 0 3055
0.05350000 0.05348950 34364.63188846 0 -352.60689690 0 10163.20759076 0 1948.78985098 0 4218.93604235 0 3009
0.05450000 0.05448610 34863.18119129 0 587.93214991 0 10449.41592801 0 601.82941968 0 6766.49525178 0 3336
0.05550000 0.05550870 34068.05328207 0 310.66442652 0 9396.38441616 0 1006.98086213 0 6097.74044059 0 3349
0.05650000 0.05647670 33276.03090800 0 844.71665077 0 12040.93614290 0 -295.33971970 0 4533.18292548 0 3324
0.05750000 0.05747970 32788.79462606 0 957.89233355 0 8638.34546953 0 -751.42970236 0 4478.08185904 0 3639
0.05850000 0.05849280 32031.48769844 0 -63.47370010 0 11126.35604255 0 612.75646692 0 3366.36682413 0 3846
0.05950000 0.05951020 31787.03771770 0 14.89170649 0 10232.06174142 0 -270.08284601 0 2347.55165486 0 3787
0.06050000 0.06049470 31926.45406334 0 587.43970076 0 11515.54614346 0 -1414.16088449 0 -1462.69596233 0 3930
0.06150000 0.06148310 30762.21111968 0 424.89377301 0 11186.35941804 0 -1288.86363257 0 1271.17317343 0 4083
0.06250000 0.06249100 31062.33890910 0 426.72271139 0 12942.53954282 0 -1067.62309056 0 -3121.63956347 0 4303
0.06350000 0.06350600 31318.10191073 0 151.76084784 0 10796.79221643 0 703.06542895 0 -4690.66683095 0 4470
0.06450000 0.06451750 30732.81944777 0 38.79689601 0 11152.08761947 0 394.77895506 0 -4780.10624314 0 4479
0.06550000 0.06550280 30696.77305769 0 -155.90895550 0 11114.04481394 0 1169.44471502 0 -5182.88306031 0 4636
0.06650000 0.06648880 31088.62504587 0 245.89516370 0 9892.60456762 0 1595.14703629 0 -4244.85616961 0 4653
0.06750000 0.06749660 30199.33287456 0 312.34585198 0 9554.26760471 0 1727.95302855 0 -2135.54342520 0 5220
0.06850000 0.06852730 29254.14107063 0 330.06625734 0 6052.36635387 0 1179.94807853 0 663.73826281 0 5029
0.06950000 0.06949320 28900.99735980 0 961.59679333 0 8852.87140090 0 552.12865704 0 374.76821752 0 5040
0.07050000 0.07048030 27659.89242129 0 776.33720335 0 6982.38540037 0 681.20911624 0 2315.39827491 0 5475
0.07150000 0.07148790 26971.01817884 0 249.49092975 0 8303.90151676 0 -365.21647871 0 1665.80905205 0 5509
0.07250000 0.07249820 26550.88363844 0 494.00967591 0 7783.04781687 0 318.58575938 0 3256.94107504 0 5916
0.07350000 0.07351270 25753.42657786 0 393.95709736 0 8472.74280790 0 -204.03587730 0 453.69206589 0 5721
0.07450000 0.07449140 26093.26085236 0 339.37398982 0 8908.47157121 0 -1517.49756646 0 1647.90786017 0 6028
0.07550000 0.07549160 24856.03783278 0 394.96528716 0 10398.30769247 0 44.07353296 0 -1358.09488392 0 6183
0.07650000 0.07648840 25778.49268297 0 -137.73381106 0 10481.70240233 0 -446.03359439 0 779.06120132 0 6330
0.07750000 0.07749960 25371.44575497 0 -361.56969315 0 9615.87920376 0 913.45101650 0 -747.13075442 0 6583
0.07850000 0.07848650 27009.06098437 0 -554.93362075 0 9437.56603042 0 1578.96497994 0 -653.61976383 0 6549
0.07950000 0.07947320 26409.24905341 0 446.28536456 0 9472.75839834 0 -915.47737818 0 -285.23785752 0 6828
0.08050000 0.08048110 26307.09912952 0 1108.46864156 0 10363.85843475 0 -1185.00566434 0 -1203.38377769 0 7147
0.08150000 0.08149960 24820.76782649 0 581.91961204 0 11401.75046277 0 -654.48154984 0 -331.89186836 0 7386
0.08250000 0.08250610 24265.32068332 0 391.35399344 0 11352.61646029 0 -176.34226764 0 -1947.17053623 0 7227
0.08350000 0.08350160 23683.47649142 0 555.24528338 0 12265.75470504 0 312.33919726 0 -2406.16863074 0 7798
0.08450000 0.08449610 23123.81469341 0 864.30703194 0 12471.49640843 0 -110.49272224 0 -1261.88984159 0 7371
0.08550000 0.08548940 21823.92641108 0 206.65894538 0 10918.09663745 0 1231.22268203 0 -1075.88381405 0 8256
0.08650000 0.08650700 21521.02582242 0 299.69856010 0 10972.19949617 0 2244.28152008 0 1204.30434703 0 8037
0.08750000 0.08749060 21248.95876128 0 30.63932066 0 8431.81629116 0 1492.57564691 0 -492.91497477 0 8155
0.08850000 0.08849210 20952.82380277 0 86.64187958 0 8304.03461112 0 1883.00796188 0 2302.28848012 0 8718
0.08950000 0.08949900 20169.23073837 0 297.11874769 0 6640.67671360 0 798.68374696 0 1372.21397763 0 8571
0.09050000 0.09049190 20231.23052931 0 294.04426789 0 6449.44229582 0 179.28254395 0 3877.62663866 0 8932
0.09150000 0.09150830 19615.33636278 0 21.51559114 0 5188.12919647 0 1043.69161490 0 1613.15914013 0 9285
0.09250000 0.09250820 19679.88712902 0 -51.69218706 0 5330.41816212 0 -25.05079925 0 1337.33216323 0 9204
0.09350000 0.09350330 19144.84778824 0 698.22079412 0 4545.95998436 0 -1179.85934896 0 427.61998922 0 9349
0.09450000 0.09448040 18319.66273529 0 880.29055587 0 6521.40198162 0 -1726.99918561 0 -1257.46445400 0 9564
0.09550000 0.09549270 17626.24110208 0 411.75403198 0 6459.86802095 0 -465.85467246 0 -672.13540802 0 10155
0.09650000 0.09649430 17586.53461701 0 -252.43009694 0 6323.59048404 0 846.77850429 0 -2592.13472997 0 9913
0.09750000 0.09749140 17835.97563638 0 -411.62759234 0 5575.66670904 0 1439.61518149 0 -1497.45577357 0 10476
0.09850000 0.09850240 18017.76035436 0 -65.15324006 0 4321.93998840 0 841.33272658 0 -2319.55747377 0 10575
0.09950000 0.09950330 17841.07758697 0 133.96613146 0 3925.96207496 0 222.44948247 0 -1316.00379150 0 10882
0.10050000 0.10051200 17641.76877781 0 332.16803916 0 3816.71378502 0 -145.34015393 0 -1749.75832175 0 10875
0.10150000 0.10150300 17039.84951943 0 404.67452097 0 4840.46453693 0 -335.41886899 0 -987.37717152 0 11118
0.10250000 0.10250800 16762.01503588 0 396.18310059 0 4461.37851644 0 -521.12987069 0 -1339.88313853 0 11575
0.10350000 0.10349800 16567.91908929 0 160.54396671 0 5502.34280601 0 -339.08783694 0 -2243.21676517 0 11364
0.10450000 0.10450100 16327.01829157 0 160.95434099 0 5425.27007842 0 -206.13100440 0 -1347.80225315 0 12093
0.10550000 0.10551000 16078.13183205 0 249.90019492 0 5834.08050673 0 10.46398976 0 -1672.53031740 0 12067
0.10650000 0.10649700 15938.05001460 0 176.54190918 0 5463.80089662 0 -16.73284519 0 -605.10908662 0 12054
0.10750000 0.10749900 15757.04168040 0 -28.94924407 0 6493.75162762 0 766.18986726 0 -1360.32421450 0 12807
0.10850000 0.10850100 15957.90325713 0 316.42852157 0 5549.22529551 0 109.03777902 0 -56.04037991 0 12736
0.10950000 0.10950300 15084.47149746 0 310.31727206 0 5944.51555475 0 -247.86939676 0 -1029.16103778 0 12933
0.11050000 0.11050200 15114.52864119 0 298.73362596 0 6466.35637116 0 -141.29297616 0 -72.58622752 0 13428
0.11150000 0.11150900 14637.93990833 0 64.48366450 0 5776.07354670 0 696.80444827 0 -633.34394669 0 13453
0.11250000 0.11250000 14721.56753331 0 -46.49596129 0 5736.20069367 0 635.63206062 0 71.97199703 0 13668
0.11350000 0.11349100 14493.97617194 0 -126.61266788 0 4418.65522579 0 1068.06119284 0 127.65856775 0 13791
0.11450000 0.11448600 14659.12409450 0 -20.57683223 0 4008.35857709 0 585.59856207 0 201.20873120 0 14205
0.11550000 0.11549300 14309.19683078 0 492.20291993 0 4040.87796654 0 -365.26195262 0 -323.14313221 0 14776
0.11650000 0.11649800 13771.71742667 0 634.70261832 0 4388.90863558 0 -797.25741903 0 -103.81049790 0 14553
0.11750000 0.11747300 13159.81609104 0 221.29932535 0 4474.54376722 0 -136.10118687 0 47.03920811 0 14568
0.11850000 0.11849100 12957.06901082 0 -36.88721372 0 4622.26741937 0 277.51838444 0 -47.94336249 0 16015
0.11950000 0.11950300 13290.13765518 0 -134.78577091 0 4401.75224164 0 764.37756568 0 -415.05809956 0 15270
0.12050000 0.12050700 13307.99448226 0 -132.39007237 0 3640.44139192 0 823.85854579 0 691.06364473 0 15999
0.12150000 0.12150000 13417.68642008 0 -49.06434976 0 3521.48830465 0 806.37216468 0 829.46514585 0 15670
0.12250000 0.12250700 13429.88673672 0 62.93023145 0 3283.52667413 0 -360.18107530 0 1085.08839839 0 16887
0.12350000 0.12352200 13391.28937134 0 265.63083955 0 4125.37070489 0 -548.79907972 0 568.12992688 0 16407
0.12450000 0.12449800 13114.78583143 0 238.47848030 0 4506.32004647 0 -607.98614311 0 1308.93869904 0 16306
0.12550000 0.12549900 12846.26795331 0 84.39602311 0 4350.46654696 0 -40.24540633 0 440.15969649 0 17523
0.12650000 0.12650100 12978.91866881 0 -137.82364976 0 4751.46877262 0 174.10517321 0 124.30458980 0 17154
0.12750000 0.12750600 13093.04708541 0 48.77886235 0 4558.59285769 0 379.48530358 0 566.68585303 0 18007
0.12850000 0.12850300 12932.11381769 0 173.28220640 0 4144.28119569 0 190.81960702 0 110.58466826 0 17496
0.12950000 0.12949900 12984.02061941 0 -94.33063004 0 3908.49343977 0 427.24067028 0 892.16257308 0 18405
0.13050000 0.13049000 12701.52783314 0 151.46138552 0 3403.23396279 0 138.86067667 0 -39.94782952 0 18100
0.13150000 0.13148800 12746.44718078 0 305.35063406 0 3387.20718320 0 -157.46505043 0 814.15818494 0 19059
0.13250000 0.13249300 12110.25612383 0 177.08648695 0 3681.34572627 0 118.42181894 0 10.77977832 0 18957
0.13350000 0.13349100 12101.05043036 0 176.02284117 0 3551.41235402 0 10.53353157 0 150.39441238 0 19468
0.13450000 0.13450700 11794.48974671 0 66.56293119 0 3531.48147310 0 12.65538845 0 -255.51788617 0 19953
0.13550000 0.13551000 11512.21878438 0 237.34717821 0 3401.44828008 0 -163.75708646 0 -72.48374486 0 19956
0.13650000 0.13649900 11601.05927193 0 3.43019666 0 3251.81694205 0 219.01786614 0 245.33949473 0 19723
0.13750000 0.13749600 11485.82173564 0 -14.64470554 0 3005.98056170 0 575.94700249 0 -308.37853083 0 20946
0.13850000 0.13851100 11505.23133030 0 27.06961892 0 2981.48010764 0 444.70819636 0 505.79296355 0 20955
0.13950000 0.13949800 11604.05389511 0 -44.87598106 0 2876.64611408 0 39.60777342 0 610.64581214 0 20506
0.14050000 0.14048300 11571.77851199 0 134.89779200 0 2658.08298702 0 106.07276934 0 824.02824111 0 21447
0.14150000 0.14148400 11219.41118494 0 339.15216588 0 3320.98164622 0 -444.35549629 0 688.62801788 0 21771
0.14250000 0.14249400 10917.29807127 0 319.42536299 0 3371.55750431 0 -346.04312655 0 910.26562474 0 22470
0.14350000 0.14350900 10693.53317284 0 77.10677757 0 4380.72333223 0 -66.68127426 0 1304.35803470 0 22519
0.14450000 0.14449900 10822.06905427 0 -90.90345019 0 3448.53041113 0 578.72756556 0 843.04188003 0 22218
0.14550000 0.14550500 11018.11705153 0 -139.96757813 0 3966.82204452 0 195.26939523 0 776.78972418 0 23559
0.14650000 0.14650700 10924.81790280 0 126.00043381 0 3094.62140771 0 -60.05694597 0 266.85752593 0 23044
0.14750000 0.14750500 10653.56049904 0 303.06252013 0 3695.86410307 0 -296.74275611 0 635.12297468 0 23649
0.14850000 0.14849900 10558.03201972 0 69.32663564 0 3275.08627325 0 -230.90430191 0 71.61541505 0 23640
0.14950000 0.14949500 10278.14566474 0 19.74366151 0 3413.28258722 0 480.70911253 0 -290.26660621 0 24457
0.15050000 0.15050000 10470.24519588 0 40.85775132 0 3057.22189160 0 203.13416299 0 -29.17273169 0 24591
0.15150000 0.15149900 10145.65022599 0 69.32297555 0 2525.11062681 0 268.56113378 0 -478.40214357 0 25020
0.15250000 0.15250500 10163.01904041 0 122.41575896 0 2536.34600932 0 168.10927214 0 -212.59162662 0 25297
0.15350000 0.15350100 9900.95623892 0 79.58610373 0 2012.74169259 0 186.85894059 0 -244.82264496 0 25452
0.15450000 0.15450400 9843.70348027 0 132.41003653 0 2083.05988124 0 53.59843108 0 -245.72879575 0 26061
0.15550000 0.15549900 9668.47365969 0 241.70047302 0 2313.97860170 0 -49.52729632 0 -476.70740867 0 26128
0.15650000 0.15649500 9110.53099721 0 308.68021139 0 2506.05595045 0 -503.40946533 0 -464.66458703 0 26331
0.15750000 0.15749700 9004.87625508 0 263.57785900 0 2753.96638464 0 -456.29073333 0 -589.59915681 0 27345
0.15850000 0.15849900 8605.98135684 0 269.57486919 0 3446.73363722 0 -180.68336212 0 -389.33650471 0 26980
0.15950000 0.15949700 8706.32341563 0 -59.86207364 0 3114.86284214 0 195.48123709 0 -583.27495631 0 27777
0.16050000 0.16050000 8809.54918563 0 -344.33286398 0 2943.85876759 0 656.48240177 0 -454.00705588 0 28224
0.16150000 0.16150500 9189.22303956 0 -77.13994025 0 2490.73900747 0 430.16763716 0 -364.24156250 0 28075
0.16250000 0.16249700 9086.37437026 0 59.47399266 0 2305.06127936 0 -9.00665085 0 -292.29851349 0 28590
0.16350000 0.16349900 9142.52910040 0 107.73023781 0 2453.76095684 0 -20.85211573 0 82.54490234 0 29163
0.16450000 0.16449100 9057.70362614 0 -7.22772268 0 2416.19507278 0 227.84756803 0 157.84880585 0 28996
0.16550000 0.16550500 9037.39564453 0 -42.41184983 0 2134.80031500 0 515.01418469 0 427.50131341 0 30777
0.16650000 0.16650700 8906.56388533 0 72.28044322 0 2100.71706678 0 204.06249617 0 242.30161589 0 29211
0.16750000 0.16749900 8968.75222662 0 191.35863919 0 1531.46138341 0 -30.93967027 0 459.50828956 0 30922
0.16850000 0.16850800 8645.68784191 0 138.89173202 0 2071.36975966 0 -52.63394059 0 451.98513067 0 30867
0.16950000 0.16949900 8453.28884845 0 143.39253975 0 1826.94196131 0 84.03167729 0 602.98623153 0 30852
0.17050000 0.17049200 8309.73548635 0 104.51390161 0 1805.38067444 0 -29.40176490 0 -303.40634724 0 31257
0.17150000 0.17149500 8142.26950363 0 215.89569420 0 1648.44023763 0 -136.62025489 0 154.14323695 0 32608
0.17250000 0.17250900 8020.74325867 0 21.54065724 0 1847.79341157 0 127.10178967 0 270.51207533 0 32361
0.17350000 0.17350400 7951.24581859 0 -1.47099218 0 1542.34184762 0 136.22873564 0 -45.29179003 0 32508
0.17450000 0.17449800 7969.13591927 0 101.64250163 0 1675.91313247 0 -69.41669616 0 232.43599620 0 32791
0.17550000 0.17549800 7807.41517657 0 149.57920940 0 1758.19872263 0 -261.97961752 0 -189.08716205 0 33633
0.17650000 0.17650100 7724.68593853 0 52.48942229 0 2167.05351573 0 -131.78782038 0 550.37735704 0 33984
0.17750000 0.17750300 7747.84435776 0 37.25976703 0 2183.57939918 0 -65.45048414 0 -200.74733740 0 34069
