### header ###
fiducial parameters:
Omega_m = 0.31
Omega_nu = 0
Omega_de = 0.69
Omega_k = 0
H_0 = 100
w_de = -1
zeff = 0
beta = 0
fgrowth = 0
b_1 = 2
gamma = 0.55
Lx = 3500 Ly = 3500 Lz = 3500
nx = 700 ny = 700 nz = 700
xoffset = 1379.75464 yoffset = 22.6059522 zoffset = 368.141391
bins = 400 dk = 0.001
kx_ny = 0.628318531 ky_ny = 0.628318531 kz_ny = 0.628318531
############################
A(data) = 3.31201969 (not used)
A(ran) = 3.31333233 (used)
Ngal = 186329
weighted Ngal = 0
Nran = 9399747
weighted Nran = 0
SN(data) = 6670.38537
SN(ran) = 131.789062
SN(data+ran) = 6802.17443
############################
13 columns: k_central k_mean P_0(k) sigma^{lin}_{P_0(k)} P^img_1(k) sigma^{lin}_{P_1(k)} P_2(k) sigma^{lin}_{P_2(k)} P^img_3(k) sigma^{lin}_{P_3(k)} P_4(k) sigma^{lin}_{P_4(k)} N_modes
### header ###
0.00050000 0 0 0 0 0 0 0 0 0 0 0 0
0.00150000 0.00179520 28903.88107101 0 -45368.65202867 0 -58586.47507975 0 65304.41307129 0 46898.79355965 0 3
0.00250000 0.00253879 53759.80799182 0 -41562.70779589 0 -26212.71304349 0 -60806.26723697 0 -25726.25314534 0 6
0.00350000 0.00331552 92836.97855162 0 -35189.04055763 0 -85089.22292344 0 18072.99451516 0 21354.43604426 0 7
0.00450000 0.00420575 126801.21823025 0 -26016.84250538 0 -54392.67168969 0 -73162.85884501 0 -6139.98680976 0 24
0.00550000 0.00557378 142493.04367259 0 6521.45743760 0 -43261.99008033 0 -79490.16488003 0 20086.26858520 0 45
0.00650000 0.00659388 125622.22399465 0 16928.27207813 0 9786.35090086 0 -12840.61144287 0 -66733.07015019 0 40
0.00750000 0.00754703 108329.60609677 0 19517.95565357 0 22810.93202750 0 -27313.07069272 0 29246.37723277 0 57
0.00850000 0.00846663 89620.75326057 0 19515.29376631 0 48046.84335576 0 14213.03615324 0 -26785.79518980 0 75
0.00950000 0.00948925 72016.58364041 0 7215.47799544 0 64137.73006430 0 34645.35008322 0 35106.96570021 0 112
0.01050000 0.01054430 63779.37349091 0 -3387.39573355 0 26853.89513907 0 34728.09041246 0 30433.13530623 0 105
0.01150000 0.01145670 72248.16783269 0 -1077.65064172 0 16766.89516254 0 37619.56545686 0 33851.55311764 0 144
0.01250000 0.01249090 73469.41952866 0 -5813.75034273 0 1849.93401258 0 7083.07128627 0 36245.14433104 0 169
0.01350000 0.01339930 73220.64398111 0 -4848.89384661 0 -1748.52719889 0 -1019.03033849 0 27140.93531609 0 180
0.01450000 0.01448870 74506.55735529 0 3998.49850300 0 -5299.00789236 0 -15213.24029403 0 12964.83284869 0 267
0.01550000 0.01550050 76020.61665069 0 2702.66959875 0 2438.94311772 0 -16004.92993219 0 -18097.61697238 0 238
0.01650000 0.01653350 73295.62047248 0 -674.14513291 0 17672.82412927 0 -6683.97674648 0 -2349.69225587 0 315
0.01750000 0.01747870 70631.51496552 0 2110.52168488 0 8590.84187300 0 10107.38559652 0 -16603.41091952 0 297
0.01850000 0.01844180 67819.12015536 0 3272.85694266 0 16044.30368136 0 -13468.48410210 0 -13929.87789515 0 388
0.01950000 0.01947590 72922.84534305 0 2322.28590822 0 17626.13019012 0 -1953.88071038 0 -16510.68851303 0 399
0.02050000 0.02045430 62779.94573390 0 1776.07773211 0 26115.66507019 0 4428.48202629 0 -3617.06114875 0 462
0.02150000 0.02154770 61781.07253675 0 1697.34132497 0 20593.46902164 0 484.08527288 0 -12500.77716837 0 571
0.02250000 0.02255340 64263.06058982 0 85.07136610 0 21134.38669681 0 4153.85289865 0 -12451.64316589 0 510
0.02350000 0.02348930 58766.70703016 0 869.69624454 0 18894.85220902 0 1010.43798821 0 -5431.33696315 0 555
0.02450000 0.02439640 61610.60083965 0 -157.09571357 0 11234.27338885 0 2936.25020648 0 -5321.11264788 0 592
0.02550000 0.02547300 61772.75413903 0 -1532.02703446 0 7087.68522420 0 8836.30115266 0 427.32274514 0 837
0.02650000 0.02652900 62970.04884959 0 -548.92441024 0 8461.04159512 0 4137.67084231 0 -5359.19981820 0 723
0.02750000 0.02749970 60301.39595188 0 11.77297282 0 1030.46868990 0 -3047.41727349 0 5223.14410524 0 826
0.02850000 0.02848090 62218.50934438 0 397.69483073 0 3062.30165980 0 1750.67889110 0 -10140.33754265 0 831
0.02950000 0.02946900 61204.66303135 0 -242.53896750 0 4361.18064321 0 -6593.06220510 0 -2312.31492216 0 996
0.03050000 0.03053250 61356.16878166 0 1963.95151721 0 2451.86436216 0 -5845.07188291 0 -11410.84524427 0 1041
0.03150000 0.03150510 62341.17798263 0 326.89972061 0 13295.46142971 0 -3718.56778322 0 -16386.91075509 0 1036
0.03250000 0.03246190 58366.64755624 0 1577.07947646 0 5474.08243619 0 -8370.34887767 0 -15102.55014849 0 1059
0.03350000 0.03345080 59537.98886594 0 1832.99775484 0 19704.39867427 0 430.50480955 0 -24906.61369087 0 1302
0.03450000 0.03451200 55176.81931393 0 3682.12211005 0 17567.56867023 0 -7241.16520757 0 -20547.55146628 0 1339
0.03550000 0.03553350 50681.66810278 0 3854.30185148 0 22353.42015339 0 -2098.43228021 0 -24890.86419120 0 1365
0.03650000 0.03647120 48426.27320336 0 1618.78237699 0 28732.63299013 0 -362.91061886 0 -13423.89749037 0 1308
0.03750000 0.03744890 45955.15452330 0 -395.86811060 0 20436.75040876 0 6003.69818166 0 -17114.27145095 0 1579
0.03850000 0.03847530 45748.96917203 0 2134.44539670 0 24646.52512243 0 2774.58491976 0 -10370.50206172 0 1662
0.03950000 0.03950240 42304.04339991 0 2935.86201459 0 20970.12607000 0 -216.03766152 0 -8844.23135848 0 1683
0.04050000 0.04050350 38928.21578478 0 1172.23969665 0 23970.40575647 0 3834.98098639 0 -2542.81217714 0 1822
0.04150000 0.04152450 39539.11891269 0 -482.16649581 0 24282.51203859 0 3440.92185002 0 2426.15496764 0 1887
0.04250000 0.04250150 38883.85099699 0 -1227.24094232 0 17405.30445888 0 5547.41743041 0 -1488.73809277 0 1920
0.04350000 0.04349210 40377.83522591 0 0.04205959 0 19249.77051137 0 1265.69412214 0 1851.71969529 0 2005
0.04450000 0.04448520 40664.20993112 0 908.44223196 0 13717.70329753 0 -754.77813472 0 741.30233043 0 2151
0.04550000 0.04548030 38688.86775464 0 1489.15955825 0 23171.39592832 0 -2065.83525238 0 4455.91055634 0 2274
0.04650000 0.04648670 38079.96104218 0 84.11663586 0 15843.10936872 0 3085.63753818 0 3165.25014987 0 2311
0.04750000 0.04749250 39190.30076867 0 -1590.20036245 0 17566.79228644 0 4506.44204964 0 2350.57955163 0 2568
0.04850000 0.04851840 40452.92262925 0 -904.51373000 0 10677.37329889 0 2963.64546294 0 1342.95540008 0 2493
0.04950000 0.04949480 40532.22468743 0 -122.41464984 0 10335.73115929 0 3185.93523218 0 2851.66873855 0 2644
0.05050000 0.05050630 40112.09014703 0 899.72787852 0 9349.50192666 0 -3306.51872540 0 3579.06270801 0 2829
0.05150000 0.05149060 39365.20894454 0 837.30329473 0 9211.62725739 0 -970.42760434 0 -4403.06100288 0 2784
0.05250000 0.05249300 38239.67427823 0 711.96167802 0 12145.85886603 0 -739.40573575 0 -1636.00700585 0 3055
0.05350000 0.05348950 37196.10355738 0 956.69226604 0 8793.05657576 0 -1556.57185330 0 -9058.80165464 0 3009
0.05450000 0.05448610 37247.34488728 0 813.67460875 0 14791.44207409 0 -2149.36305660 0 -4791.04216333 0 3336
0.05550000 0.05550870 34895.45657441 0 1187.71191640 0 11950.65379974 0 215.19583967 0 -9204.63980331 0 3349
0.05650000 0.05647670 35175.73112129 0 50.65094549 0 16216.88270587 0 802.24956678 0 -2145.34804330 0 3324
0.05750000 0.05747970 34179.40889943 0 690.06321877 0 14573.16731815 0 1395.87150072 0 -5341.75336540 0 3639
0.05850000 0.05849280 34285.44074225 0 891.21649398 0 15331.80518941 0 103.78765003 0 -1262.41112784 0 3846
0.05950000 0.05951020 31750.10403186 0 1045.17007146 0 18806.78810525 0 -742.61330991 0 1316.73581050 0 3787
0.06050000 0.06049470 31817.09486143 0 1000.24739646 0 15796.74816548 0 1496.62393380 0 1222.51609242 0 3930
0.06150000 0.06148310 30854.26805435 0 175.88420120 0 18816.65927054 0 1140.46341740 0 4781.75883148 0 4083
0.06250000 0.06249100 30888.76167686 0 216.62660407 0 15355.54035088 0 2260.44139403 0 1843.90040145 0 4303
0.06350000 0.06350600 29959.20846063 0 -72.08179988 0 15968.77263014 0 3171.08411947 0 6053.91912145 0 4470
0.06450000 0.06451750 30498.01880838 0 -589.57475618 0 10810.80039817 0 3290.64722257 0 5394.09272380 0 4479
0.06550000 0.06550280 30937.67385540 0 -768.00882356 0 10051.33068715 0 3768.47816949 0 6120.96540700 0 4636
0.06650000 0.06648880 31432.23032732 0 -212.29438255 0 6496.96807474 0 1074.74142076 0 6855.36901292 0 4653
0.06750000 0.06749660 31113.69115097 0 200.80501163 0 4420.38545252 0 308.79888719 0 4509.83595590 0 5220
0.06850000 0.06852730 31432.23032732 0 376.82452544 0 5793.64200266 0 -712.54840234 0 6710.40706881 0 5029
0.06950000 0.06949320 29423.06000015 0 554.06961651 0 5883.12577964 0 -677.59116780 0 1870.25308539 0 5040
0.07050000 0.07048030 30080.10250737 0 800.22431422 0 7038.52903933 0 -1174.54666562 0 5343.90505761 0 5475
0.07150000 0.07148790 28891.79166633 0 36.68025199 0 7950.80217071 0 708.74301267 0 1144.05696521 0 5509
0.07250000 0.07249820 29087.55129247 0 311.21233165 0 7964.76598767 0 -549.66862956 0 4687.27292468 0 5916
0.07350000 0.07351270 28611.96076733 0 511.39179977 0 10041.09351236 0 148.25824785 0 1774.83551805 0 5721
0.07450000 0.07449140 27959.68747480 0 752.17835816 0 8602.33235304 0 -714.77773293 0 2999.42566430 0 6028
0.07550000 0.07549160 27541.43843789 0 624.18927273 0 10934.42287936 0 338.35138146 0 3978.10179181 0 6183
0.07650000 0.07648840 25977.02510834 0 436.28775963 0 10197.59030130 0 411.50448005 0 4043.83931613 0 6330
0.07750000 0.07749960 26192.63797701 0 261.43725798 0 10339.05851838 0 1140.18613747 0 2566.15914671 0 6583
0.07850000 0.07848650 25372.99852254 0 586.36496378 0 10610.64865805 0 -656.37481716 0 2821.64486842 0 6549
0.07950000 0.07947320 24684.01336812 0 652.84781653 0 9223.06228145 0 19.77549325 0 3104.41493461 0 6828
0.08050000 0.08048110 24217.51762447 0 61.17105670 0 9879.61677599 0 908.62523671 0 2211.28520916 0 7147
0.08150000 0.08149960 23868.25583258 0 -151.09981250 0 8528.07678947 0 1379.46762044 0 2769.29441882 0 7386
0.08250000 0.08250610 23913.17518022 0 159.51359451 0 6331.13249797 0 1368.56497384 0 360.82991032 0 7227
0.08350000 0.08350160 23952.21619347 0 280.11705188 0 7027.02746809 0 449.06814588 0 3131.67709671 0 7798
0.08450000 0.08449610 22350.86917809 0 572.35900027 0 5173.41117812 0 -313.97403969 0 749.77933226 0 7371
0.08550000 0.08548940 22366.06411791 0 533.25587631 0 6024.08380165 0 226.68742883 0 1878.88203662 0 8256
0.08650000 0.08650700 21111.53883109 0 247.76070303 0 5738.38565947 0 526.24291248 0 958.02764616 0 8037
0.08750000 0.08749060 20847.67925570 0 356.16828024 0 5390.73209112 0 180.60239639 0 444.78028914 0 8155
0.08850000 0.08849210 20568.07018063 0 295.93309873 0 4895.57669457 0 192.76722120 0 500.86070827 0 8718
0.08950000 0.08949900 19944.74491214 0 346.94151350 0 4990.62825241 0 -408.72502610 0 -795.48726400 0 8571
0.09050000 0.09049190 19381.09028323 0 612.80748642 0 4688.49295635 0 -611.83922493 0 -13.10280734 0 8932
0.09150000 0.09150830 18834.84883353 0 337.22784321 0 5653.36054366 0 -418.71153983 0 -1756.87887019 0 9285
0.09250000 0.09250820 18584.96416629 0 65.72942774 0 5236.06534968 0 175.07454383 0 -1292.67900432 0 9204
0.09350000 0.09350330 18363.69478717 0 324.70810010 0 5369.05989229 0 -11.60239022 0 -931.92784150 0 9349
0.09450000 0.09448040 17905.07379336 0 324.90441428 0 5324.24036542 0 251.80898991 0 -1682.67876261 0 9564
0.09550000 0.09549270 17634.89223570 0 -4.21344590 0 5139.46102426 0 744.32024512 0 -609.98255856 0 10155
0.09650000 0.09649430 17726.72734644 0 -73.54262143 0 4270.11082507 0 684.91801250 0 -1538.94794135 0 9913
0.09750000 0.09749140 17857.27073452 0 -65.13405229 0 4200.05882514 0 670.73791720 0 -126.96204059 0 10476
0.09850000 0.09850240 17347.51932278 0 419.33597422 0 3860.10254748 0 -415.87108429 0 -1266.51487071 0 10575
0.09950000 0.09950330 17257.45880356 0 300.89419113 0 3811.05727458 0 -175.30856808 0 -523.36031040 0 10882
0.10050000 0.10051200 16712.88103340 0 334.25096595 0 4413.76400794 0 -573.04221801 0 -1643.28283105 0 10875
0.10150000 0.10150300 16476.63853840 0 345.32441698 0 4792.51729252 0 -532.33419785 0 -1381.41967110 0 11118
0.10250000 0.10250800 15622.06181354 0 286.79173421 0 5235.35551308 0 305.61238631 0 -1040.12690421 0 11575
0.10350000 0.10349800 15851.20594249 0 278.16500122 0 4861.80399986 0 71.30330876 0 -1421.28143293 0 11364
0.10450000 0.10450100 15305.51905264 0 1.37913488 0 4903.57344757 0 271.21747545 0 -954.96647580 0 12093
0.10550000 0.10551000 15438.50250405 0 212.95541788 0 5211.47616605 0 717.97088853 0 168.41760742 0 12067
0.10650000 0.10649700 15147.13676022 0 14.71080907 0 4477.09474251 0 252.08516072 0 417.06449708 0 12054
0.10750000 0.10749900 15046.09595602 0 96.37507038 0 4465.61535367 0 306.31113172 0 121.17354490 0 12807
0.10850000 0.10850100 15032.34287180 0 223.48207291 0 4857.71134819 0 -6.81912298 0 594.19867618 0 12736
0.10950000 0.10950300 14556.53052273 0 68.71850532 0 4145.63432172 0 -5.99697692 0 14.49819083 0 12933
0.11050000 0.11050200 14763.60316975 0 119.65848740 0 5442.13978898 0 -358.80687599 0 -160.23563143 0 13428
0.11150000 0.11150900 14640.04723575 0 99.64963537 0 4482.54052022 0 -152.70803606 0 281.72971192 0 13453
0.11250000 0.11250000 14348.57057995 0 -10.92897710 0 4754.43012220 0 69.20496521 0 -792.91521543 0 13668
0.11350000 0.11349100 14688.18303050 0 21.33779925 0 4654.13242820 0 360.79552761 0 -210.44437090 0 13791
0.11450000 0.11448600 14827.82120008 0 -168.65052256 0 4441.11489961 0 633.62122662 0 -1168.96779355 0 14205
0.11550000 0.11549300 14739.31344843 0 -61.08410172 0 4591.26752390 0 221.77181034 0 -53.70801210 0 14776
0.11650000 0.11649800 14932.52209927 0 166.75060052 0 3889.78259051 0 -130.19845186 0 -217.09243435 0 14553
0.11750000 0.11747300 14561.52156135 0 250.30835097 0 4359.12877177 0 -321.61587439 0 444.63055798 0 14568
0.11850000 0.11849100 14385.50426578 0 284.90512161 0 4939.30928413 0 -240.61131748 0 47.43560749 0 16015
0.11950000 0.11950300 14103.67695133 0 209.54265658 0 5041.53684641 0 213.30035411 0 68.59672397 0 15270
0.12050000 0.12050700 13889.06229038 0 69.39429195 0 5018.38951837 0 367.25836807 0 919.10530871 0 15999
0.12150000 0.12150000 13848.91215743 0 0.09149816 0 4973.07088764 0 202.80253620 0 -164.89393415 0 15670
0.12250000 0.12250700 13926.99418394 0 58.19883775 0 4783.33378145 0 191.29763760 0 1043.65612307 0 16887
0.12350000 0.12352200 13702.95200559 0 87.27829247 0 4582.48329592 0 234.32926352 0 366.50638491 0 16407
0.12450000 0.12449800 13948.06745815 0 -55.99790062 0 4084.83238005 0 506.74569737 0 1799.93489674 0 16306
0.12550000 0.12549900 13747.42770535 0 -22.43726960 0 3935.51159553 0 687.69302998 0 480.21666339 0 17523
0.12650000 0.12650100 13935.86714150 0 140.16056495 0 3639.26572504 0 2.84441510 0 1744.70073594 0 17154
0.12750000 0.12750600 13445.08167654 0 394.53162136 0 3770.15294023 0 -455.26257937 0 1021.41938231 0 18007
0.12850000 0.12850300 12937.54850419 0 439.63730111 0 4030.86261570 0 -269.71129091 0 1719.50153647 0 17496
0.12950000 0.12949900 12575.31001186 0 229.83178316 0 5127.47144036 0 61.72550564 0 1743.05923879 0 18405
0.13050000 0.13049000 12291.92992984 0 186.75357421 0 4453.35958104 0 330.88589680 0 1315.42704926 0 18100
0.13150000 0.13148800 12200.31664304 0 166.79496531 0 5025.73189075 0 37.82231254 0 2096.94605982 0 19059
0.13250000 0.13249300 11795.26613050 0 75.31477288 0 4537.10920920 0 330.91473391 0 1390.11516951 0 18957
0.13350000 0.13349100 11984.26012649 0 5.19544939 0 4457.62969187 0 300.63798448 0 2015.89159252 0 19468
0.13450000 0.13450700 11783.62037370 0 -74.25412171 0 3932.43933398 0 406.42471185 0 1832.16591507 0 19953
0.13550000 0.13551000 12052.24916379 0 -175.02130608 0 3500.94740790 0 472.66244915 0 1730.31545350 0 19956
0.13650000 0.13649900 12183.56893565 0 -130.92048878 0 3334.18017059 0 400.93900584 0 1364.21722463 0 19723
0.13750000 0.13749600 12350.49144972 0 19.72635924 0 2563.53053304 0 -116.21134338 0 754.80697183 0 20946
0.13850000 0.13851100 12144.41701043 0 168.44866277 0 2866.22038895 0 -351.02307397 0 928.63930160 0 20955
0.13950000 0.13949800 11996.68226708 0 243.86658378 0 2666.83394141 0 -374.38557123 0 -15.70025475 0 20506
0.14050000 0.14048300 11714.41130474 0 174.53883902 0 3101.71977375 0 -42.05948251 0 52.21280784 0 21447
0.14150000 0.14148400 11603.83207117 0 121.09368828 0 3011.65925453 0 30.61103811 0 -436.63158674 0 21771
0.14250000 0.14249400 11339.41793592 0 196.88094615 0 3151.34178890 0 17.01500524 0 -172.79752109 0 22470
0.14350000 0.14350900 11076.63420663 0 218.73393149 0 3228.80270838 0 -68.79592187 0 -167.14766537 0 22519
0.14450000 0.14449900 10809.29199539 0 232.08107790 0 3309.38025421 0 99.27863483 0 78.35098804 0 22218
0.14550000 0.14550500 10847.87826957 0 -11.13655994 0 3265.53675268 0 350.73248461 0 281.16627912 0 23559
0.14650000 0.14650700 10436.83851067 0 122.93371785 0 3055.08129058 0 358.44530297 0 217.84774486 0 23044
0.14750000 0.14750500 10518.00388994 0 151.69762802 0 3290.10375392 0 -206.06112986 0 831.84531672 0 23649
0.14850000 0.14849900 10400.02682800 0 147.83789148 0 3049.08095304 0 35.61527526 0 0.90207588 0 23640
0.14950000 0.14949500 10103.34840083 0 27.11453827 0 3103.33908851 0 255.08422037 0 535.89225383 0 24457
0.15050000 0.15050000 10066.98036604 0 141.93737471 0 2916.33041676 0 -255.83842177 0 -32.85101624 0 24591
0.15150000 0.15149900 10008.88467642 0 152.72023638 0 2751.43759173 0 273.02866792 0 402.29213187 0 25020
0.15250000 0.15250500 9703.17801494 0 140.33358763 0 2952.25480368 0 116.73484788 0 -15.67419044 0 25297
0.15350000 0.15350100 9421.27306211 0 -4.71430217 0 2109.01328210 0 434.68508168 0 153.88924854 0 25452
0.15450000 0.15450400 9730.44017704 0 -72.87504228 0 2192.87382222 0 583.16404434 0 239.69518461 0 26061
0.15550000 0.15549900 9507.91749267 0 -26.08083871 0 1650.62520343 0 87.71439833 0 469.84528512 0 26128
0.15650000 0.15649500 9548.58891188 0 133.15203760 0 1516.71009147 0 122.18949854 0 177.13528822 0 26331
0.15750000 0.15749700 9409.09492786 0 84.34644546 0 1527.24672857 0 -67.31846353 0 501.68367508 0 27345
0.15850000 0.15849900 9281.49070697 0 141.56471049 0 1477.25870393 0 -136.57256274 0 208.75407248 0 26980
0.15950000 0.15949700 9142.12981731 0 303.09246636 0 2222.50950047 0 -371.18021531 0 278.64081357 0 27777
0.16050000 0.16050000 8931.23070734 0 167.81202807 0 2259.24354476 0 -321.81995241 0 436.44747287 0 28224
0.16150000 0.16150500 8719.74376394 0 82.68232227 0 2575.16519864 0 82.25209474 0 459.12453415 0 28075
0.16250000 0.16249700 8677.33102681 0 -6.93780988 0 2621.32676033 0 192.45999504 0 439.87132537 0 28590
0.16350000 0.16349900 8773.90207863 0 100.09638878 0 2697.10181788 0 -43.81677175 0 708.43800475 0 29163
0.16450000 0.16449100 8569.53568367 0 118.10017422 0 2824.10711414 0 -202.54743867 0 615.03903525 0 28996
0.16550000 0.16550500 8666.61693055 0 -49.62767166 0 2710.94363168 0 349.99270178 0 874.19816138 0 30777
0.16650000 0.16650700 8603.00891606 0 -113.75907974 0 2427.14208416 0 476.20165009 0 467.49838785 0 29211
0.16750000 0.16749900 8704.91483362 0 77.91632403 0 2539.24081172 0 -157.05356703 0 812.09744055 0 30922
0.16850000 0.16850800 8795.78501021 0 126.86554717 0 2310.37396269 0 -105.29616373 0 403.95026581 0 30867
0.16950000 0.16949900 8466.82010873 0 153.06073612 0 2513.54250839 0 -163.27683763 0 655.87904065 0 30852
0.17050000 0.17049200 8362.66267819 0 7.17348672 0 2474.66786309 0 182.01874224 0 275.46096741 0 31257
0.17150000 0.17149500 8426.70324937 0 38.14839373 0 2396.68565734 0 128.86418086 0 526.05990773 0 32608
0.17250000 0.17250900 8360.52207718 0 43.54337375 0 2204.55285261 0 263.87288483 0 428.35089910 0 32361
0.17350000 0.17350400 8311.24388914 0 121.09036092 0 2116.03400977 0 91.05828330 0 709.06798474 0 32508
0.17450000 0.17449800 8222.22594243 0 13.11822410 0 1985.53498647 0 297.76980095 0 1157.08912162 0 32791
0.17550000 0.17549800 8118.62307174 0 -3.86358518 0 1812.27939895 0 452.08162409 0 1133.88633761 0 33633
0.17650000 0.17650100 8135.12677279 0 12.59161407 0 1621.26680510 0 179.47663990 0 1623.36304133 0 33984
0.17750000 0.17750300 8057.74349169 0 99.00268585 0 1378.73560144 0 98.54328847 0 1034.74767369 0 34069
0.17850000 0.17849800 7937.25981924 0 182.83949081 0 1560.32067787 0 -214.79988394 0 1332.72931650 0 34536
