### header ###
fiducial parameters:
Omega_m = 0.31
Omega_nu = 0
Omega_de = 0.69
Omega_k = 0
H_0 = 100
w_de = -1
zeff = 0
beta = 0
fgrowth = 0
b_1 = 2
gamma = 0.55
Lx = 3500 Ly = 3500 Lz = 3500
nx = 700 ny = 700 nz = 700
xoffset = 1379.75464 yoffset = 22.6059522 zoffset = 368.141391
bins = 400 dk = 0.001
kx_ny = 0.628318531 ky_ny = 0.628318531 kz_ny = 0.628318531
############################
A(data) = 3.34509756 (not used)
A(ran) = 3.34851647 (used)
Ngal = 188285
weighted Ngal = 0
Nran = 9399747
weighted Nran = 0
SN(data) = 6631.76786
SN(ran) = 133.188524
SN(data+ran) = 6764.95638
############################
13 columns: k_central k_mean P_0(k) sigma^{lin}_{P_0(k)} P^img_1(k) sigma^{lin}_{P_1(k)} P_2(k) sigma^{lin}_{P_2(k)} P^img_3(k) sigma^{lin}_{P_3(k)} P_4(k) sigma^{lin}_{P_4(k)} N_modes
### header ###
0.00050000 0 0 0 0 0 0 0 0 0 0 0 0
0.00150000 0.00179520 106401.29059535 0 -64587.92174843 0 -131567.10555890 0 171173.76986100 0 -26404.92348660 0 3
0.00250000 0.00253879 180169.83970571 0 -58736.42806249 0 -29690.91240645 0 -122342.55705706 0 82610.56222945 0 6
0.00350000 0.00331552 186729.17358089 0 -15626.83102823 0 -77318.95216545 0 -103346.88586778 0 -9252.69795969 0 7
0.00450000 0.00420575 178009.27454019 0 21374.40019877 0 -41413.86393285 0 -86324.44952756 0 23986.04434417 0 24
0.00550000 0.00557378 138829.62132060 0 9624.64124935 0 -33496.85663924 0 -32450.29129520 0 9004.67661354 0 45
0.00650000 0.00659388 138096.49320232 0 -7319.16959571 0 38911.80081330 0 13841.14831956 0 -90314.84036559 0 40
0.00750000 0.00754703 126050.34419685 0 -636.39513497 0 -45577.05561933 0 -9685.67610616 0 -34670.97074817 0 57
0.00850000 0.00846663 142020.55868260 0 -343.76055821 0 -5839.85902034 0 -34855.63917736 0 -59685.50178535 0 75
0.00950000 0.00948925 125646.62462794 0 12571.76082884 0 -8849.95441611 0 -37004.55858608 0 -4384.43888321 0 112
0.01050000 0.01054430 107112.34723170 0 17690.57004438 0 17767.65386317 0 -26412.90914841 0 -42706.54293716 0 105
0.01150000 0.01145670 95686.30704761 0 7192.67449451 0 9319.89952200 0 24561.34472987 0 -8367.34316330 0 144
0.01250000 0.01249090 95625.41637637 0 -9734.83229103 0 10354.35327897 0 39300.65817830 0 291.54320298 0 169
0.01350000 0.01339930 100576.74851799 0 -8145.92959862 0 -23228.95924048 0 19594.59582449 0 14269.15760980 0 180
0.01450000 0.01448870 102134.50712937 0 11749.01583922 0 -10744.10903092 0 -21157.45638646 0 14426.87443040 0 267
0.01550000 0.01550050 82839.92818234 0 10795.72746152 0 -2078.98941196 0 -19256.53614150 0 -15777.00583491 0 238
0.01650000 0.01653350 64782.46134290 0 12651.39562293 0 19220.60066339 0 -14335.92661543 0 16205.56968499 0 315
0.01750000 0.01747870 68023.75273905 0 -345.48967582 0 22982.62375626 0 6132.35606626 0 3199.96559632 0 297
0.01850000 0.01844180 63091.05380830 0 -4260.99386117 0 29985.82733331 0 13351.69379824 0 6792.34883186 0 388
0.01950000 0.01947590 67118.82198005 0 -860.86432441 0 3503.70911594 0 13277.38277869 0 -6385.35735985 0 399
0.02050000 0.02045430 67312.58519073 0 864.70631503 0 20083.27396202 0 -9054.81991494 0 7858.61214168 0 462
0.02150000 0.02154770 67237.83052330 0 2555.86651595 0 10235.94366035 0 -5341.39844710 0 -2786.91833077 0 571
0.02250000 0.02255340 66714.32602735 0 27.90068231 0 27874.83981815 0 -2798.68609073 0 -12986.23885880 0 510
0.02350000 0.02348930 65108.20979727 0 2360.45071691 0 16160.09577750 0 -12282.39150046 0 -19449.85570431 0 555
0.02450000 0.02439640 62778.28205436 0 2000.97393263 0 21765.69762710 0 -395.23480325 0 -24762.09539463 0 592
0.02550000 0.02547300 62557.23449918 0 -559.99786127 0 19656.59561543 0 321.97190181 0 -27198.72045219 0 837
0.02650000 0.02652900 61474.95550097 0 -225.21562699 0 18353.82362189 0 6368.84256759 0 -22339.88889311 0 723
0.02750000 0.02749970 64580.37973451 0 -1447.60084329 0 9434.52704246 0 6345.17395331 0 -23783.18635198 0 826
0.02850000 0.02848090 62143.31102907 0 437.46231739 0 9246.34270384 0 1761.53717291 0 -25578.18566608 0 831
0.02950000 0.02946900 58073.39630892 0 3291.73415987 0 7796.12433807 0 -5733.35025605 0 -21172.20767840 0 996
0.03050000 0.03053250 55076.11124564 0 4732.70246738 0 13932.76160636 0 -8413.48254260 0 -19317.75954866 0 1041
0.03150000 0.03150510 51527.70460599 0 3373.43191659 0 19203.85295600 0 -7071.59189743 0 -21888.25535338 0 1036
0.03250000 0.03246190 48144.22406497 0 1543.50642330 0 22971.53255931 0 1352.46055587 0 -20688.74240343 0 1059
0.03350000 0.03345080 50371.55823611 0 -1344.97399793 0 22917.29660623 0 3482.52492977 0 -22448.91535911 0 1302
0.03450000 0.03451200 49645.86121979 0 -560.24408585 0 17820.22613671 0 1572.29917058 0 -15486.74921077 0 1339
0.03550000 0.03553350 50970.48287131 0 1430.84204470 0 23440.02471840 0 -1055.18320406 0 -17345.85564323 0 1365
0.03650000 0.03647120 49404.07312632 0 951.50380411 0 23985.93343220 0 -3153.49348111 0 -16071.14437797 0 1308
0.03750000 0.03744890 48130.36006878 0 1897.91453058 0 28220.88516294 0 -881.74572090 0 -13286.36664821 0 1579
0.03850000 0.03847530 45762.05678443 0 1115.17548836 0 25109.91533093 0 1705.60426670 0 -14083.49097288 0 1662
0.03950000 0.03950240 45143.05708275 0 581.11660938 0 25843.93074496 0 694.48971547 0 -10510.11804891 0 1683
0.04050000 0.04050350 44866.55354283 0 1251.84121715 0 28571.92154635 0 3342.07710282 0 -11273.64713802 0 1822
0.04150000 0.04152450 43062.12671132 0 315.62219156 0 21141.59597482 0 2799.30719776 0 -5080.53349488 0 1887
0.04250000 0.04250150 43374.01116951 0 409.34724225 0 22407.43428252 0 4434.82619094 0 -8995.26018733 0 1920
0.04350000 0.04349210 40864.07330012 0 526.74312546 0 15550.07994535 0 2679.47790593 0 -6276.21998188 0 2005
0.04450000 0.04448520 41566.14606695 0 502.71959288 0 19287.70240493 0 2701.47174948 0 -591.36820272 0 2151
0.04550000 0.04548030 39085.93260538 0 76.46803554 0 12199.09661138 0 4317.57005681 0 -904.04235413 0 2274
0.04650000 0.04648670 40220.89478910 0 -827.95452483 0 11070.94442260 0 4907.16699538 0 2718.69637834 0 2311
0.04750000 0.04749250 39659.34748761 0 -309.69838327 0 7016.85684049 0 3236.72182301 0 1764.49852249 0 2568
0.04850000 0.04851840 39726.44922914 0 881.73241147 0 9625.00725885 0 966.96936914 0 9262.74658413 0 2493
0.04950000 0.04949480 38868.87788111 0 1378.73560144 0 7622.20327873 0 -1452.15932523 0 7654.94449212 0 2644
0.05050000 0.05050630 37499.55870588 0 704.71801729 0 10912.19612068 0 360.84432887 0 8720.63105969 0 2829
0.05150000 0.05149060 36936.56954879 0 230.78673522 0 10039.17473529 0 -1362.36499474 0 5616.04975713 0 2784
0.05250000 0.05249300 36091.97490118 0 946.31423306 0 11615.58873993 0 -2788.98129340 0 5366.87492649 0 3055
0.05350000 0.05348950 36692.34139199 0 313.96294849 0 15700.25475203 0 580.19936740 0 2529.94638868 0 3009
0.05450000 0.05448610 35518.44910699 0 -284.04444472 0 13037.59110067 0 -38.05489494 0 2312.14855421 0 3336
0.05550000 0.05550870 36228.95118349 0 -94.14418702 0 11483.04893640 0 -240.36731114 0 -4809.05426717 0 3349
0.05650000 0.05647670 37205.08742690 0 -179.30472634 0 12623.55671859 0 478.65613198 0 -1886.96751920 0 3324
0.05750000 0.05747970 35645.44331205 0 87.61247023 0 10770.09570537 0 -50.11901168 0 -6611.28504168 0 3639
0.05850000 0.05849280 36485.26874496 0 703.18632300 0 10849.73049946 0 -662.81436610 0 -6358.13956254 0 3846
0.05950000 0.05951020 35992.59777652 0 413.84139525 0 10256.82838420 0 -478.21913882 0 -6053.05400808 0 3787
0.06050000 0.06049470 33346.46000862 0 1375.33060397 0 9901.77698750 0 909.23525254 0 -7734.37964466 0 3930
0.06150000 0.06148310 34067.94237010 0 412.45610475 0 8818.36668720 0 955.09180632 0 -3696.41866292 0 4083
0.06250000 0.06249100 31870.77625466 0 479.54564597 0 9791.92977292 0 1620.40169174 0 -4617.39838391 0 4303
0.06350000 0.06350600 32450.84585505 0 -36.78384377 0 7570.64030411 0 3105.69042226 0 -548.85897218 0 4470
0.06450000 0.06451750 31388.53101135 0 -343.24814491 0 6276.35307624 0 1920.10801568 0 -1883.67343370 0 4479
0.06550000 0.06550280 31645.95769252 0 -98.31325704 0 5237.25210775 0 1208.85173778 0 2000.89629425 0 4636
0.06650000 0.06648880 32173.56593134 0 440.60778085 0 4877.81968825 0 -329.15788831 0 209.97299503 0 4653
0.06750000 0.06749660 31034.61091673 0 945.37702692 0 5727.80465758 0 -1173.62609627 0 860.03913936 0 5220
0.06850000 0.06852730 29512.67687149 0 952.58186845 0 7022.39134777 0 -673.75139542 0 882.73505567 0 5029
0.06950000 0.06949320 29214.32367359 0 908.18269795 0 8039.93102939 0 -720.32887700 0 1646.67673731 0 5040
0.07050000 0.07048030 28572.03245832 0 321.77336938 0 7823.51959453 0 -1341.60227405 0 -685.80641738 0 5475
0.07150000 0.07148790 27482.21144618 0 326.05124405 0 9509.64771939 0 645.98680209 0 -1072.28139328 0 5509
0.07250000 0.07249820 27983.75537218 0 -319.53516584 0 8724.86789693 0 333.92377564 0 272.44083448 0 5916
0.07350000 0.07351270 28562.71585288 0 -441.07915672 0 8240.47096141 0 47.94558073 0 -2315.76428441 0 5721
0.07450000 0.07449140 28655.77099528 0 286.36139577 0 8696.13060563 0 297.40490057 0 -2637.10953359 0 6028
0.07550000 0.07549160 27901.68051477 0 800.69901745 0 8797.12704504 0 -1652.18906220 0 -3345.54864746 0 6183
0.07650000 0.07648840 26912.01301108 0 762.60851977 0 9273.57159235 0 -884.08374522 0 -4139.30124826 0 6330
0.07750000 0.07749960 26375.97546257 0 584.77337702 0 10604.42649656 0 161.39577063 0 -3550.36978150 0 6583
0.07850000 0.07848650 25502.65461487 0 652.31876643 0 10224.65282185 0 121.07705149 0 -4314.02087378 0 6549
0.07950000 0.07947320 24421.48473635 0 553.83448313 0 9960.99288800 0 1310.40273704 0 -2102.97967096 0 6828
0.08050000 0.08048110 23466.53267911 0 339.79212795 0 8415.81169396 0 1588.52559171 0 -2053.72366531 0 7147
0.08150000 0.08149960 23708.32077258 0 -87.46107539 0 7419.17891859 0 2087.79582234 0 -765.68078132 0 7386
0.08250000 0.08250610 23523.65234339 0 -199.13800473 0 6586.93986438 0 1125.01338005 0 -1178.00711907 0 7227
0.08350000 0.08350160 22693.14351591 0 926.66285031 0 6036.94959011 0 -108.21070847 0 -253.95291828 0 7798
0.08450000 0.08449610 21935.61476435 0 532.85326586 0 4664.65797410 0 -970.21021688 0 1210.30468458 0 7371
0.08550000 0.08548940 21014.93450568 0 334.92974720 0 5997.25419624 0 1169.62217417 0 -375.98381271 0 8256
0.08650000 0.08650700 21628.49952085 0 -212.21674417 0 4540.18147075 0 383.55910022 0 342.04696828 0 8037
0.08750000 0.08749060 20840.58088965 0 4.44610594 0 4680.03037308 0 1325.05420821 0 -920.18226393 0 8155
0.08850000 0.08849210 21138.82317559 0 206.18091479 0 2956.56927929 0 380.10419237 0 693.40277817 0 8718
0.08950000 0.08949900 20198.06785044 0 319.34439725 0 4209.97435521 0 -812.01092921 0 -369.67292164 0 8571
0.09050000 0.09049190 20007.85382278 0 784.20418934 0 3775.26598202 0 -1023.49454526 0 -1042.67233391 0 8932
0.09150000 0.09150830 19484.90388667 0 394.15230243 0 5271.35753837 0 -77.28822955 0 -1058.95310191 0 9285
0.09250000 0.09250820 18822.09395704 0 9.09911816 0 4801.80062437 0 180.32955294 0 -1098.30245044 0 9204
0.09350000 0.09350330 19051.57082190 0 123.43725820 0 4050.84895260 0 1150.94459851 0 -903.29480746 0 9349
0.09450000 0.09448040 18516.86421703 0 350.44854997 0 4527.30459110 0 -351.74067442 0 -1052.41816866 0 9564
0.09550000 0.09549270 17863.48180481 0 426.41992171 0 4360.92554568 0 324.51954975 0 818.36840330 0 10155
0.09650000 0.09649430 17192.35347747 0 341.71201414 0 4901.26647860 0 1.36446123 0 -157.50608786 0 9913
0.09750000 0.09749140 17363.37973441 0 163.68832104 0 4424.95502566 0 481.63190012 0 1329.75687571 0 10476
0.09850000 0.09850240 16741.38540956 0 77.62440373 0 4958.99615872 0 153.85708407 0 417.37505060 0 10575
0.09950000 0.09950330 16964.65120412 0 128.54475439 0 4714.51290439 0 -264.72801612 0 1410.80025181 0 10882
0.10050000 0.10051200 16740.27628986 0 275.15817773 0 5331.19454591 0 -64.13961557 0 359.61431513 0 10875
0.10150000 0.10150300 16757.80038104 0 70.82583274 0 4667.17567581 0 150.49977875 0 1318.78768193 0 11118
0.10250000 0.10250800 16447.02504255 0 309.16489669 0 5457.26818162 0 -209.95746735 0 1581.20540173 0 11575
0.10350000 0.10349800 16089.33394097 0 291.42563629 0 5408.05654076 0 -72.95911356 0 1231.53323554 0 11364
0.10450000 0.10450100 15937.49545475 0 235.90199525 0 6022.03193022 0 221.35034485 0 1113.62272078 0 12093
0.10550000 0.10551000 15584.12991998 0 14.83791419 0 5945.16993537 0 40.36474761 0 1979.68992568 0 12067
0.10650000 0.10649700 15546.08711445 0 98.90452875 0 5691.50316997 0 703.93386967 0 1308.88324306 0 12054
0.10750000 0.10749900 15817.48870377 0 30.55669124 0 5297.37748641 0 232.36612166 0 1575.92599198 0 12807
0.10850000 0.10850100 14967.01572178 0 140.64303202 0 4944.53323790 0 266.51480795 0 1705.37135156 0 12736
0.10950000 0.10950300 15566.60582880 0 -51.71359307 0 4821.28785741 0 539.75088125 0 2100.60615481 0 12933
0.11050000 0.11050200 15304.40993294 0 -101.15326894 0 4072.11077715 0 439.75819516 0 1178.16239582 0 13428
0.11150000 0.11150900 15803.51379561 0 -82.91390647 0 3795.68487561 0 511.43283720 0 2608.90461975 0 13453
0.11250000 0.11250000 15289.43681706 0 51.87696640 0 3612.31411646 0 8.89609380 0 954.31320430 0 13668
0.11350000 0.11349100 15591.89375784 0 320.45351695 0 3909.90202178 0 -537.69679157 0 2392.84810320 0 13791
0.11450000 0.11448600 15028.12821696 0 390.17721744 0 4513.91751638 0 -390.53768134 0 276.58339654 0 14205
0.11550000 0.11549300 14526.02973112 0 516.96845359 0 5453.65245141 0 -611.24362765 0 1541.31036630 0 14776
0.11650000 0.11649800 13893.27694522 0 519.69356068 0 5704.63514715 0 -898.88494755 0 252.87041746 0 14553
0.11750000 0.11747300 13808.20746463 0 88.70439857 0 6205.42487176 0 248.99848061 0 957.28897244 0 14568
0.11850000 0.11849100 13544.90244908 0 0.75674682 0 6067.96057678 0 540.78790816 0 647.40314795 0 16015
0.11950000 0.11950300 13493.88294312 0 39.06308474 0 5641.54841891 0 448.37827343 0 332.63276032 0 15270
0.12050000 0.12050700 13589.37814884 0 -34.65721766 0 5254.03308874 0 485.57925711 0 401.83628367 0 15999
0.12150000 0.12150000 13423.01019462 0 97.09588727 0 4989.41931195 0 163.04724986 0 398.15955189 0 15670
0.12250000 0.12250700 13188.20955522 0 111.05726416 0 4541.43477601 0 257.70285197 0 716.72423799 0 16887
0.12350000 0.12352200 13235.01440634 0 -59.76003463 0 4001.49312618 0 690.85623935 0 167.85750197 0 16407
0.12450000 0.12449800 13088.61060663 0 82.46116381 0 3985.34434342 0 -152.25884259 0 808.13233764 0 16306
0.12550000 0.12549900 13024.39257630 0 112.36824364 0 3537.68145220 0 111.66727999 0 -360.32747909 0 17523
0.12650000 0.12650100 12915.03337439 0 52.64148260 0 3609.07548695 0 391.44161389 0 583.35924941 0 17154
0.12750000 0.12750600 12795.24844735 0 -88.12000340 0 2644.72918589 0 203.58779294 0 181.72815288 0 18007
0.12850000 0.12850300 12981.02599623 0 108.77757954 0 3105.09149762 0 638.01888621 0 49.52529991 0 17496
0.12950000 0.12949900 12713.39541387 0 219.61679077 0 2726.01656833 0 -394.55158552 0 -436.51402005 0 18405
0.13050000 0.13049000 12467.28175359 0 373.61916952 0 3385.75423640 0 -862.70768134 0 -235.90643173 0 18100
0.13150000 0.13148800 11965.73782759 0 414.46693876 0 3661.76976365 0 -752.32476196 0 -683.93200509 0 19059
0.13250000 0.13249300 11542.27592811 0 243.63034128 0 4381.53298961 0 -558.66026292 0 -1307.45247865 0 18957
0.13350000 0.13349100 11431.80760650 0 58.72334045 0 4225.80149326 0 287.46164250 0 -1543.45096731 0 19468
0.13450000 0.13450700 11208.54181193 0 29.88988848 0 4356.30051655 0 392.77144841 0 -1537.00698189 0 19953
0.13550000 0.13551000 11415.39263502 0 -102.17987012 0 3837.85360640 0 565.80188464 0 -1134.24125591 0 19956
0.13650000 0.13649900 11386.11187508 0 34.36152635 0 3595.42222351 0 432.23947275 0 -1058.33310400 0 19723
0.13750000 0.13749600 11184.58482653 0 226.88817949 0 3243.49854434 0 124.75045591 0 -983.82909762 0 20946
0.13850000 0.13851100 10995.30245941 0 89.10334892 0 3676.98688587 0 -200.00089985 0 -227.68009095 0 20955
0.13950000 0.13949800 10924.16352218 0 -18.48414519 0 3112.03458691 0 272.26670268 0 -202.66722360 0 20506
0.14050000 0.14048300 11098.84987412 0 -71.78034115 0 3314.48220481 0 451.32742270 0 -231.41782432 0 21447
0.14150000 0.14148400 11160.96057703 0 4.08347925 0 2661.78744680 0 -46.02979828 0 -438.21097318 0 21771
0.14250000 0.14249400 11074.91507110 0 233.14472369 0 3498.80680689 0 -132.29357896 0 -98.60129543 0 22470
0.14350000 0.14350900 10881.91715301 0 114.54766384 0 3620.66578776 0 -558.39629244 0 -726.66971429 0 22519
0.14450000 0.14449900 10784.72499415 0 221.04422782 0 4132.96817480 0 -447.14715057 0 -474.27732742 0 22218
0.14550000 0.14550500 10660.74759466 0 227.38617423 0 4533.74857652 0 -247.01759283 0 -941.68809481 0 23559
0.14650000 0.14650700 10422.65286977 0 27.02237042 0 4239.68767184 0 215.51859350 0 -586.92063275 0 23044
0.14750000 0.14750500 10458.42197993 0 -44.41492000 0 4543.39791787 0 473.46323357 0 -580.64190615 0 23649
0.14850000 0.14849900 10375.93674823 0 136.25979099 0 4006.21797608 0 201.84758414 0 -656.03099005 0 23640
0.14950000 0.14949500 10264.85841079 0 145.58416026 0 4063.80347063 0 21.52679324 0 -366.47089308 0 24457
0.15050000 0.15050000 10106.09901768 0 156.78183270 0 4076.79126226 0 -21.41033568 0 -347.19550191 0 24591
0.15150000 0.15149900 9794.18128590 0 187.68856212 0 3937.90729407 0 235.00249918 0 -303.49618593 0 25020
0.15250000 0.15250500 9531.10918549 0 101.61954286 0 3741.02745704 0 368.98415831 0 -167.89521204 0 25297
0.15350000 0.15350100 9614.60371611 0 -52.25839266 0 3275.10845564 0 671.40338902 0 85.28298613 0 25452
0.15450000 0.15450400 9559.50264967 0 16.14345898 0 3286.89839800 0 404.92850938 0 614.15506685 0 26061
0.15550000 0.15549900 9216.78466397 0 322.53644373 0 2903.67536104 0 -45.53701640 0 378.58137103 0 26128
0.15650000 0.15649500 9113.44798201 0 91.78198390 0 3093.55665280 0 126.36533419 0 1366.70165275 0 26331
0.15750000 0.15749700 8860.93470109 0 55.08210049 0 2870.33522302 0 79.65065450 0 612.61671784 0 27345
0.15850000 0.15849900 8996.62440455 0 81.61135630 0 3285.68945753 0 -11.49768932 0 1368.73134179 0 26980
0.15950000 0.15949700 8804.75778854 0 54.72574033 0 2966.35171500 0 -59.15356798 0 587.31658848 0 27777
0.16050000 0.16050000 8795.17499438 0 147.97985880 0 3163.20936963 0 -161.48450021 0 778.29258137 0 28224
0.16150000 0.16150500 8654.06169561 0 127.97133951 0 3173.74600673 0 -317.62193437 0 297.87183996 0 28075
0.16250000 0.16249700 8560.95109723 0 83.44572936 0 3346.33612245 0 -32.69396489 0 159.59788761 0 28590
0.16350000 0.16349900 8563.86808203 0 -132.44441924 0 3206.02138985 0 202.52192892 0 240.70115617 0 29163
0.16450000 0.16449100 8623.46108323 0 94.89162279 0 2779.58704959 0 183.54489094 0 -508.16980706 0 28996
0.16550000 0.16550500 8646.07603381 0 -79.49338133 0 2747.67767597 0 453.61331839 0 59.11375058 0 30777
0.16650000 0.16650700 8622.95088817 0 -83.12486103 0 2229.71877849 0 361.48872742 0 -107.26917676 0 29211
0.16750000 0.16749900 8653.95078364 0 81.52950326 0 2137.02964559 0 421.49210291 0 123.66795509 0 30922
0.16850000 0.16850800 8551.98941009 0 176.72713217 0 2081.51820486 0 -168.58397537 0 343.07623136 0 30867
0.16950000 0.16949900 8266.75709818 0 102.46313929 0 1981.76397951 0 112.84405599 0 878.32297753 0 30852
0.17050000 0.17049200 8298.98811651 0 -2.37035516 0 1944.64174333 0 243.83109195 0 803.76906076 0 31257
0.17150000 0.17149500 8221.56047061 0 44.24267371 0 1809.14059021 0 123.52376953 0 804.85377982 0 32608
0.17250000 0.17250900 8209.02741806 0 174.22273990 0 1909.49374020 0 62.60792127 0 1106.77612491 0 32361
0.17350000 0.17350400 7919.08134744 0 247.20614318 0 2134.70049423 0 -318.42604614 0 1019.23552563 0 32508
0.17450000 0.17449800 7730.17608102 0 115.68451153 0 2172.46601984 0 25.16692408 0 1120.45489810 0 32791
0.17550000 0.17549800 7625.27554028 0 56.74544730 0 2348.60531857 0 97.56216119 0 757.15165087 0 33633
0.17650000 0.17650100 7547.14914898 0 80.99224568 0 2052.86964315 0 22.00726390 0 947.30024047 0 33984
0.17750000 0.17750300 7458.15338467 0 34.97597866 0 2097.41189009 0 50.75309541 0 960.03182544 0 34069
