### header ###
fiducial parameters:
Omega_m = 0.31
Omega_nu = 0
Omega_de = 0.69
Omega_k = 0
H_0 = 100
w_de = -1
zeff = 0
beta = 0
fgrowth = 0
b_1 = 2
gamma = 0.55
Lx = 3500 Ly = 3500 Lz = 3500
nx = 700 ny = 700 nz = 700
xoffset = 1379.75464 yoffset = 22.6059522 zoffset = 368.141391
bins = 400 dk = 0.001
kx_ny = 0.628318531 ky_ny = 0.628318531 kz_ny = 0.628318531
############################
A(data) = 3.30368967 (not used)
A(ran) = 3.30793443 (used)
Ngal = 185649
weighted Ngal = 0
Nran = 9399747
weighted Nran = 0
SN(data) = 6661.54792
SN(ran) = 131.574358
SN(data+ran) = 6793.12228
############################
13 columns: k_central k_mean P_0(k) sigma^{lin}_{P_0(k)} P^img_1(k) sigma^{lin}_{P_1(k)} P_2(k) sigma^{lin}_{P_2(k)} P^img_3(k) sigma^{lin}_{P_3(k)} P_4(k) sigma^{lin}_{P_4(k)} N_modes
### header ###
0.00050000 0 0 0 0 0 0 0 0 0 0 0 0
0.00150000 0.00179520 122691.92976093 0 -102836.35807226 0 -176140.40785442 0 217178.94568254 0 -47010.81464883 0 3
0.00250000 0.00253879 197313.50282857 0 -82463.27113397 0 -21232.43287783 0 -192255.91702019 0 56242.90516459 0 6
0.00350000 0.00331552 209926.41199809 0 -5616.18285149 0 -103982.63327685 0 -87835.95784766 0 30908.61491940 0 7
0.00450000 0.00420575 195351.47008843 0 44108.69205536 0 -13947.06925042 0 -156780.72358130 0 25696.08508964 0 24
0.00550000 0.00557378 126474.02792028 0 27946.71077438 0 22653.32611887 0 -35321.58036116 0 20382.18171978 0 45
0.00650000 0.00659388 95327.06317846 0 21140.37594316 0 49001.68450103 0 63322.08344073 0 -39290.56518908 0 40
0.00750000 0.00754703 69415.14339621 0 13765.17362047 0 28078.36328215 0 -23961.64371088 0 -26838.92202319 0 57
0.00850000 0.00846663 72797.73664148 0 9750.72597626 0 33386.38831763 0 49799.69612146 0 -10661.76798478 0 75
0.00950000 0.00948925 61432.91986454 0 -4356.62216126 0 22034.43732916 0 21697.81950178 0 8444.46025568 0 112
0.01050000 0.01054430 64761.49898067 0 -12733.02683247 0 -24405.62432472 0 24063.68272280 0 -2940.30958456 0 105
0.01150000 0.01145670 81860.35366787 0 -5597.53854942 0 -16251.37632838 0 -5729.52379310 0 -18890.63755418 0 144
0.01250000 0.01249090 75487.01916551 0 5199.00966068 0 -30691.67110709 0 -25779.49089069 0 -15154.90059808 0 169
0.01350000 0.01339930 73225.74593171 0 1239.59653572 0 -12535.27079088 0 -18130.89056323 0 -34305.73763267 0 180
0.01450000 0.01448870 72961.77544434 0 1038.55749984 0 -7515.53923768 0 -21085.25269433 0 -27305.86141471 0 267
0.01550000 0.01550050 74519.20131981 0 -3054.77073707 0 5893.03021851 0 3507.94595318 0 -54538.74275349 0 238
0.01650000 0.01653350 71380.83623134 0 2424.82402400 0 5879.78732936 0 -9688.28253744 0 -34245.73425718 0 315
0.01750000 0.01747870 78966.99311999 0 247.75293919 0 4522.44664683 0 -6735.41771793 0 -34363.63368074 0 297
0.01850000 0.01844180 76040.24806929 0 -2197.86486085 0 18107.93178555 0 8921.31517727 0 -18907.49617354 0 388
0.01950000 0.01947590 78760.80776872 0 -404.25638285 0 21815.38618943 0 -6346.97072721 0 -11552.70165324 0 399
0.02050000 0.02045430 78238.85604033 0 3644.19021649 0 27415.22061662 0 2209.92099193 0 7687.99625902 0 462
0.02150000 0.02154770 78836.00608403 0 2255.29507865 0 40855.42216650 0 6377.30515086 0 11396.75942415 0 571
0.02250000 0.02255340 78851.31193582 0 3124.63418665 0 52516.92846180 0 -5764.79379940 0 27203.60057884 0 510
0.02350000 0.02348930 71218.01746014 0 5460.89500302 0 47579.90396424 0 1217.50287140 0 28561.27399728 0 555
0.02450000 0.02439640 71579.81230459 0 1824.55735397 0 65035.00789741 0 7057.47280371 0 34698.69874054 0 592
0.02550000 0.02547300 71516.92521790 0 1355.71027657 0 59626.05296971 0 4430.32316498 0 41722.42103195 0 837
0.02650000 0.02652900 68411.50098436 0 2799.08537382 0 59124.06539583 0 15770.12929280 0 31801.23444979 0 723
0.02750000 0.02749970 67076.78634361 0 1624.57198179 0 60264.01861817 0 11746.35395195 0 50808.44048390 0 826
0.02850000 0.02848090 64211.37561204 0 2222.99751314 0 46646.46882908 0 4373.45859823 0 27532.56548033 0 831
0.02950000 0.02946900 62804.12454325 0 2501.51965090 0 52022.26107791 0 11743.35932878 0 43903.06126394 0 996
0.03050000 0.03053250 55746.35227722 0 2093.04195849 0 42361.60671207 0 4188.74580425 0 32343.26124465 0 1041
0.03150000 0.03150510 53981.63193079 0 3289.43828210 0 35902.98090518 0 6763.73354374 0 27988.08093899 0 1036
0.03250000 0.03246190 51805.53908954 0 946.08464528 0 40535.77387046 0 6156.43505484 0 28285.54684114 0 1059
0.03350000 0.03345080 46380.16919035 0 198.66662886 0 25513.41307590 0 2481.73295554 0 21712.45988175 0 1302
0.03450000 0.03451200 49258.77844629 0 -402.48400958 0 30223.84441982 0 5763.74013569 0 18580.74951145 0 1339
0.03550000 0.03553350 48532.41595815 0 615.85201999 0 20828.93513285 0 771.53360595 0 12180.90704839 0 1365
0.03650000 0.03647120 49435.12847777 0 445.42025120 0 25204.52324090 0 751.14022212 0 15916.64400449 0 1308
0.03750000 0.03744890 46548.31173609 0 1324.24455083 0 22764.79264820 0 92.26666920 0 10758.00630070 0 1579
0.03850000 0.03847530 47655.54592743 0 158.53091446 0 21011.05258674 0 766.25641444 0 9212.71419469 0 1662
0.03950000 0.03950240 46601.32765750 0 326.35292460 0 24367.13787131 0 754.39992490 0 5807.01798618 0 1683
0.04050000 0.04050350 47316.82077263 0 586.84743085 0 23704.10611774 0 1442.97581416 0 8174.23433323 0 1822
0.04150000 0.04152450 45209.71517641 0 -28.86317638 0 24743.79491967 0 582.70154143 0 9832.75646889 0 1887
0.04250000 0.04250150 45099.35776677 0 2382.75511398 0 24887.75865606 0 220.62498057 0 2596.89285346 0 1920
0.04350000 0.04349210 43908.27412650 0 1527.39091413 0 25298.13294314 0 -899.85653640 0 3533.54443573 0 2005
0.04450000 0.04448520 41578.23547162 0 1013.18084122 0 26510.51168155 0 1241.61513357 0 4124.59432111 0 2151
0.04550000 0.04548030 40799.74435782 0 1077.77486313 0 27688.72953336 0 3367.55358221 0 4583.59241561 0 2274
0.04650000 0.04648670 39366.65080014 0 307.71971373 0 25088.39840885 0 3131.51072876 0 7570.16338265 0 2311
0.04750000 0.04749250 37682.67436749 0 643.01768867 0 20921.87936328 0 3976.77084818 0 2587.31005929 0 2568
0.04850000 0.04851840 37849.70779353 0 -76.73477882 0 20086.49040914 0 1763.03448450 0 6671.51024111 0 2493
0.04950000 0.04949480 36585.08951750 0 428.54499504 0 16898.43675834 0 2471.83960787 0 5215.20280822 0 2644
0.05050000 0.05050630 36829.65041021 0 70.94650496 0 15746.83777921 0 1327.21699161 0 4864.75425825 0 2829
0.05150000 0.05149060 36068.46156365 0 587.47297435 0 12442.43747242 0 827.12268505 0 3136.41303781 0 2784
0.05250000 0.05249300 35101.30918977 0 430.27744001 0 13112.23485613 0 -339.70561661 0 1339.63913219 0 3055
0.05350000 0.05348950 34019.69566337 0 923.09813961 0 13174.90011889 0 -969.69336711 0 -807.69978096 0 3009
0.05450000 0.05448610 33507.06054043 0 747.41357995 0 14720.79114953 0 159.59677849 0 358.43753913 0 3336
0.05550000 0.05550870 33065.18725401 0 56.90371868 0 12603.37074014 0 -513.69211402 0 -2631.48629674 0 3349
0.05650000 0.05647670 33589.68995769 0 64.81584585 0 14848.22900246 0 -231.24701989 0 -5078.13779633 0 3324
0.05750000 0.05747970 31871.44172647 0 969.06005976 0 13984.22476020 0 -1841.36051734 0 -4803.98559017 0 3639
0.05850000 0.05849280 31976.58627354 0 555.62792968 0 16437.81934908 0 55.13023629 0 -3558.07816338 0 3846
0.05950000 0.05951020 31516.41251216 0 -454.75571167 0 14508.61655191 0 2812.78300205 0 -1873.20334378 0 3787
0.06050000 0.06049470 32934.08930608 0 -700.18171774 0 15418.87108545 0 3403.55560750 0 -1524.32974378 0 3930
0.06150000 0.06148310 32806.20780527 0 -170.33971185 0 10144.14182321 0 2004.20147094 0 952.68501659 0 4083
0.06250000 0.06249100 32582.72018676 0 562.75069636 0 10897.33391676 0 720.32111316 0 1465.57967354 0 4303
0.06350000 0.06350600 31856.02496272 0 1099.01228704 0 13443.63982094 0 -1728.60740917 0 3326.28323836 0 4470
0.06450000 0.06451750 29874.69353988 0 1017.97889302 0 12785.15545812 0 -1528.31148348 0 1089.78108382 0 4479
0.06550000 0.06550280 30228.05907466 0 239.19053515 0 15230.32073733 0 982.19869166 0 1192.98023495 0 4636
0.06650000 0.06648880 29371.70775828 0 -171.34901077 0 11976.38537666 0 1267.15816014 0 -378.26194456 0 4653
0.06750000 0.06749660 29689.58146282 0 -52.26194184 0 12236.58485707 0 1799.12523937 0 704.66256131 0 5220
0.06850000 0.06852730 29923.27298252 0 -115.77324110 0 9192.08456837 0 1142.03836736 0 -927.06213340 0 5029
0.06950000 0.06949320 29352.63089953 0 619.15497844 0 9768.07260828 0 812.73518437 0 2459.57274404 0 5040
0.07050000 0.07048030 28558.72302198 0 245.33284002 0 7945.33421062 0 1624.78271454 0 608.56177623 0 5475
0.07150000 0.07148790 28485.85385803 0 131.91980562 0 6711.72692125 0 1075.19283248 0 505.90387552 0 5509
0.07250000 0.07249820 27654.90138267 0 183.81218878 0 5421.60998343 0 1582.96890204 0 2849.52813754 0 5916
0.07350000 0.07351270 27079.93373287 0 453.81517817 0 4753.01044899 0 1901.43044002 0 3428.16697353 0 5721
0.07450000 0.07449140 26661.46287202 0 148.18837331 0 4222.37431340 0 448.47254860 0 3427.96733198 0 6028
0.07550000 0.07549160 25858.34930099 0 795.85549174 0 4443.90988124 0 338.31034403 0 3632.40027413 0 6183
0.07650000 0.07648840 24835.96276631 0 1282.78565664 0 5703.57039224 0 -2380.22632107 0 3222.08144303 0 6330
0.07750000 0.07749960 23291.95723915 0 878.22204763 0 6521.94545027 0 -681.32113733 0 3570.48921277 0 6583
0.07850000 0.07848650 22824.46328778 0 -1.80304043 0 8473.45264450 0 214.79877482 0 3452.81161315 0 6549
0.07950000 0.07947320 22763.46170456 0 183.37408650 0 6516.72149650 0 1088.43904899 0 2314.05624008 0 6828
0.08050000 0.08048110 23050.39096961 0 257.35347927 0 7052.27103235 0 -101.08816361 0 2130.70766333 0 7147
0.08150000 0.08149960 22227.86780393 0 202.30897793 0 6427.09353397 0 -363.78349606 0 1597.84219715 0 7386
0.08250000 0.08250610 21878.05145219 0 806.18250522 0 7460.73763355 0 -339.75109052 0 870.83087399 0 7227
0.08350000 0.08350160 21082.36898312 0 225.22560907 0 6947.41485640 0 -280.95887373 0 570.80401446 0 7798
0.08450000 0.08449610 20870.63803338 0 84.18384852 0 6750.08028029 0 1088.15400523 0 1262.83259333 0 7371
0.08550000 0.08548940 20672.99290376 0 298.58833128 0 6742.17225687 0 -94.61755931 0 -938.11229292 0 8256
0.08650000 0.08650700 20106.34365168 0 442.59754158 0 5899.85130464 0 107.81486365 0 59.10576492 0 8037
0.08750000 0.08749060 19507.19719253 0 337.97760812 0 7109.42397022 0 -393.87058603 0 -185.29064534 0 8155
0.08850000 0.08849210 19647.27900999 0 -6.45842617 0 6734.67460773 0 154.84752795 0 514.77683308 0 8718
0.08950000 0.08949900 19229.80635686 0 -183.95859258 0 6333.18436940 0 556.65719275 0 -641.75329222 0 8571
0.09050000 0.09049190 19943.19214457 0 -49.96207124 0 6390.00457137 0 -103.98762432 0 -931.92007766 0 8932
0.09150000 0.09150830 19898.27279693 0 -62.90472170 0 5768.55371516 0 344.08885764 0 -916.45340351 0 9285
0.09250000 0.09250820 19687.54005491 0 328.46136114 0 6588.07116647 0 105.52763701 0 -1133.29850417 0 9204
0.09350000 0.09350330 19661.14300618 0 228.80584744 0 6270.46365066 0 -18.25588835 0 183.39626890 0 9349
0.09450000 0.09448040 19423.23683164 0 83.54932114 0 6197.38375397 0 655.16365845 0 -1696.85331231 0 9564
0.09550000 0.09549270 18927.57124002 0 364.00199264 0 5808.12710588 0 -44.56032560 0 611.30019276 0 10155
0.09650000 0.09649430 18505.21846023 0 203.11641707 0 6203.38409152 0 320.94929345 0 -660.81351418 0 9913
0.09750000 0.09749140 18394.52831469 0 489.41348390 0 6047.53059200 0 141.09666198 0 817.64636638 0 10476
0.09850000 0.09850240 17460.42770771 0 427.95383425 0 6276.10906991 0 230.90430191 0 619.07734006 0 10575
0.09950000 0.09950330 17166.95463646 0 118.47394756 0 5806.23051120 0 325.60426881 0 1267.50198724 0 10882
0.10050000 0.10051200 16811.59268624 0 108.44872555 0 6114.68778952 0 1022.10260005 0 1464.81438095 0 10875
0.10150000 0.10150300 17015.22706221 0 59.36662987 0 6188.89898831 0 219.29070958 0 1342.22338108 0 11118
0.10250000 0.10250800 16795.39953869 0 117.44468448 0 5250.51717930 0 -116.47420475 0 1216.18301896 0 11575
0.10350000 0.10349800 16658.42325638 0 311.03930898 0 6119.90065209 0 -58.92575479 0 2169.71540300 0 11364
0.10450000 0.10450100 16235.62682872 0 263.79080998 0 5517.97030251 0 -220.84014980 0 1849.55691189 0 12093
0.10550000 0.10551000 16415.08239534 0 80.31845547 0 6513.62705256 0 350.72139342 0 2060.57802503 0 12067
0.10650000 0.10649700 15871.05918503 0 47.12738313 0 5887.82844715 0 417.61572957 0 1954.25781108 0 12054
0.10750000 0.10749900 15974.76187649 0 197.15711695 0 6601.71333872 0 76.95693550 0 2647.50198513 0 12807
0.10850000 0.10850100 16103.53067306 0 -36.54671398 0 5413.85723676 0 743.13570528 0 2835.23158468 0 12736
0.10950000 0.10950300 16080.57189538 0 -185.69658315 0 5626.34238789 0 571.72347469 0 2107.90416240 0 12933
0.11050000 0.11050200 15984.07848193 0 173.09365605 0 5246.77944593 0 -297.87627644 0 1418.33117454 0 13428
0.11150000 0.11150900 15576.92064196 0 579.95979754 0 5308.57959533 0 -737.59454329 0 780.12706535 0 13453
0.11250000 0.11250000 15188.95057271 0 223.90021103 0 5720.49555879 0 -817.21935530 0 378.16766939 0 13668
0.11350000 0.11349100 14573.94370193 0 243.35749784 0 5567.82523280 0 91.48662532 0 -125.95052342 0 13791
0.11450000 0.11448600 14450.83141581 0 268.74746589 0 5944.94811143 0 104.91762118 0 -961.54688295 0 14205
0.11550000 0.11549300 14122.31016220 0 232.96504630 0 5241.08966190 0 219.68444707 0 -481.10728650 0 14776
0.11650000 0.11649800 13671.23118232 0 195.47236414 0 5613.21041071 0 348.79263427 0 -949.78023211 0 14553
0.11750000 0.11747300 13683.87514684 0 251.08251651 0 5297.32203043 0 129.34332057 0 -498.77334500 0 14568
0.11850000 0.11849100 13473.91878861 0 -136.77109517 0 5101.45149232 0 635.70082604 0 -402.94873073 0 16015
0.11950000 0.11950300 13424.34113825 0 114.21825529 0 4937.87851973 0 -34.78055177 0 -40.95391200 0 15270
0.12050000 0.12050700 13259.52595160 0 88.64838802 0 4469.54163739 0 506.52609167 0 120.04335193 0 15999
0.12150000 0.12150000 13596.80925080 0 -135.03199549 0 4435.36965959 0 317.18383209 0 604.94382779 0 15670
0.12250000 0.12250700 13537.91499500 0 -117.50346783 0 4075.47140982 0 484.00097979 0 454.52057830 0 16887
0.12350000 0.12352200 13674.66945337 0 66.99482240 0 4222.29667502 0 346.26162313 0 428.88216743 0 16407
0.12450000 0.12449800 13491.88652767 0 165.88992363 0 3846.87074952 0 -373.80771987 0 836.48809176 0 16306
0.12550000 0.12549900 13442.64161322 0 204.26324684 0 4282.32223291 0 -255.36039118 0 553.23444938 0 17523
0.12650000 0.12650100 13137.52278517 0 25.80544429 0 4422.45950635 0 20.56108273 0 461.40710248 0 17154
0.12750000 0.12750600 13208.17370973 0 1.18292052 0 4217.39436597 0 201.93187724 0 -275.68722782 0 18007
0.12850000 0.12850300 13331.06417192 0 63.39927817 0 4277.00954957 0 50.38874959 0 326.03349813 0 17496
0.12950000 0.12949900 12998.66099938 0 56.19066563 0 3581.92423682 0 206.85969604 0 -111.08166480 0 18405
0.13050000 0.13049000 13027.71993538 0 224.82632598 0 3973.72076902 0 321.28424760 0 257.34127895 0 18100
0.13150000 0.13148800 12715.05909341 0 183.10124306 0 3429.64210272 0 520.75831559 0 861.52314151 0 19059
0.13250000 0.13249300 12370.67742817 0 111.64842496 0 3495.46835661 0 296.41112932 0 529.40834009 0 18957
0.13350000 0.13349100 12159.05739040 0 263.56344044 0 3009.06391445 0 34.88569632 0 590.45428809 0 19468
0.13450000 0.13450700 12018.97557294 0 124.60516123 0 2942.62764473 0 363.54947181 0 747.65314980 0 19953
0.13550000 0.13551000 11507.00592181 0 91.70689649 0 3048.81476431 0 -78.00971191 0 438.83873493 0 19956
0.13650000 0.13649900 11628.23270446 0 227.94517056 0 2527.90560844 0 7.79389501 0 311.63379713 0 19723
0.13750000 0.13749600 11214.19832238 0 89.07129536 0 3019.11253888 0 -316.58712569 0 -316.96977198 0 20946
0.13850000 0.13851100 11198.67064665 0 7.88260240 0 2373.67142368 0 88.77050210 0 -117.04540139 0 20955
0.13950000 0.13949800 11256.67760669 0 51.92809682 0 3063.37750590 0 129.52188884 0 -680.05230440 0 20506
0.14050000 0.14048300 11188.13400955 0 199.05371163 0 2542.14670532 0 -422.83302862 0 -384.05598585 0 21447
0.14150000 0.14148400 10924.29661655 0 145.17933157 0 3070.48696315 0 133.93285787 0 -801.74048084 0 21771
0.14250000 0.14249400 10785.82302265 0 122.19726238 0 2943.16002218 0 -124.46763039 0 -333.02982517 0 22470
0.14350000 0.14350900 10713.39750658 0 74.97449495 0 3134.50535193 0 92.29883368 0 -482.78871196 0 22519
0.14450000 0.14449900 10630.75699811 0 125.91059512 0 3074.80143876 0 247.81726813 0 35.98649762 0 22218
0.14550000 0.14550500 10619.33306526 0 -108.57050689 0 2958.03331729 0 223.19037443 0 179.39789240 0 23559
0.14650000 0.14650700 10638.67611274 0 26.77858591 0 2775.31693876 0 413.94454338 0 -203.68206812 0 23044
0.14750000 0.14750500 10473.98292925 0 224.54793693 0 3169.59789908 0 -662.09122006 0 174.88155700 0 23649
0.14850000 0.14849900 10336.39663111 0 339.71448957 0 3073.25976238 0 -165.51393206 0 -399.59142541 0 23640
0.14950000 0.14949500 10059.67126725 0 107.42334439 0 3273.07876660 0 -200.73846445 0 -211.50912580 0 24457
0.15050000 0.15050000 9821.50999518 0 108.82660263 0 3174.07874264 0 164.00109279 0 -252.75174165 0 24591
0.15150000 0.15149900 9718.12894843 0 161.40575271 0 3202.10619733 0 301.31343837 0 -354.18073775 0 25020
0.15250000 0.15250500 9542.88803664 0 -8.95932471 0 2786.59668606 0 516.74773878 0 -130.56667959 0 25297
0.15350000 0.15350100 9441.56995252 0 -118.57265921 0 2280.11717742 0 645.74612312 0 -302.87286066 0 25452
0.15450000 0.15450400 9536.36641284 0 104.90897005 0 1938.58594979 0 192.13391385 0 239.35912134 0 26061
0.15550000 0.15549900 9434.13885057 0 121.55064559 0 1703.33057132 0 -94.17269140 0 -17.56335402 0 26128
0.15650000 0.15649500 9085.15433859 0 285.91552965 0 2192.97364300 0 -532.03029905 0 -275.74822941 0 26331
0.15750000 0.15749700 8962.15296444 0 172.25183420 0 2282.01377210 0 -332.61390528 0 -762.80816131 0 27345
0.15850000 0.15849900 8893.13244583 0 -77.48787109 0 2485.70360405 0 258.19086464 0 -627.91813315 0 26980
0.15950000 0.15949700 8905.22185050 0 -73.79561163 0 2066.24562667 0 47.33855952 0 -1003.01132274 0 27777
0.16050000 0.16050000 9026.41535955 0 52.43185898 0 2002.27160267 0 25.25931375 0 -1090.67947078 0 28224
0.16150000 0.16150500 8976.67134124 0 127.73731525 0 1971.10533924 0 111.41883718 0 -1070.21510329 0 28075
0.16250000 0.16249700 8667.54859110 0 103.98729158 0 2151.40383683 0 -28.03033840 0 -1356.84157866 0 28590
0.16350000 0.16349900 8770.37507800 0 12.39995819 0 1619.71403753 0 401.77971857 0 -375.17526445 0 29163
0.16450000 0.16449100 8640.63025610 0 -99.72172815 0 1337.95327026 0 755.99816638 0 -681.30228230 0 28996
0.16550000 0.16550500 8742.51399127 0 31.36801230 0 1040.27219889 0 262.39775564 0 -154.95622168 0 30777
0.16650000 0.16650700 8596.93094013 0 102.13239980 0 658.97570284 0 98.08477839 0 -349.61892844 0 29211
0.16750000 0.16749900 8360.02297331 0 214.36510902 0 1137.69061816 0 -327.01728730 0 160.49405632 0 30922
0.16850000 0.16850800 8233.91606401 0 172.67329969 0 958.62878903 0 -146.39603588 0 -145.49653981 0 30867
0.16950000 0.16949900 8043.15856770 0 89.98310266 0 1569.19363543 0 -313.04348827 0 -142.95665571 0 30852
0.17050000 0.17049200 8099.46857461 0 104.66518554 0 1669.69097098 0 -432.56333570 0 -793.46422968 0 31257
0.17150000 0.17149500 7985.52870836 0 85.90498046 0 2080.78618587 0 -325.79171004 0 -397.10034258 0 32608
0.17250000 0.17250900 8075.76668673 0 -52.04887995 0 2051.73834106 0 71.46790213 0 -343.50656980 0 32361
0.17350000 0.17350400 8188.57525089 0 -74.99434820 0 2160.04387926 0 220.87009603 0 -681.86349686 0 32508
0.17450000 0.17449800 8362.95104931 0 32.35912166 0 1978.08170212 0 110.38669039 0 -431.23461030 0 32791
0.17550000 0.17549800 8116.57120030 0 117.20178727 0 2278.67532182 0 -19.86965751 0 -380.10862885 0 33633
0.17650000 0.17650100 8041.66125611 0 218.65851136 0 2234.93164105 0 11.98148733 0 -164.09980445 0 33984
0.17750000 0.17750300 7703.85667066 0 133.99275033 0 2307.61225465 0 -0.03379787 0 109.31827539 0 34069
0.17850000 0.17849800 7650.29728060 0 125.10759246 0 2252.14517872 0 193.57576946 0 -131.91536914 0 34536
