### header ###
fiducial parameters:
Omega_m = 0.31
Omega_nu = 0
Omega_de = 0.69
Omega_k = 0
H_0 = 100
w_de = -1
zeff = 0
beta = 0
fgrowth = 0
b_1 = 2
gamma = 0.55
Lx = 3500 Ly = 3500 Lz = 3500
nx = 700 ny = 700 nz = 700
xoffset = 1379.75464 yoffset = 22.6059522 zoffset = 368.141391
bins = 400 dk = 0.001
kx_ny = 0.628318531 ky_ny = 0.628318531 kz_ny = 0.628318531
############################
A(data) = 3.32916876 (not used)
A(ran) = 3.32710089 (used)
Ngal = 186713
weighted Ngal = 0
Nran = 9399747
weighted Nran = 0
SN(data) = 6647.77799
SN(ran) = 132.336712
SN(data+ran) = 6780.1147
############################
13 columns: k_central k_mean P_0(k) sigma^{lin}_{P_0(k)} P^img_1(k) sigma^{lin}_{P_1(k)} P_2(k) sigma^{lin}_{P_2(k)} P^img_3(k) sigma^{lin}_{P_3(k)} P_4(k) sigma^{lin}_{P_4(k)} N_modes
### header ###
0.00050000 0 0 0 0 0 0 0 0 0 0 0 0
0.00150000 0.00179520 -806.79806665 0 -4649.79577019 0 -8897.79074855 0 5578.20659314 0 -733.88897439 0 3
0.00250000 0.00253879 9404.18152761 0 -7500.42193624 0 2846.91061506 0 -1251.94103792 0 15545.19981869 0 6
0.00350000 0.00331552 14138.39239778 0 -5735.19139474 0 4803.77485743 0 -15107.20845120 0 -8303.99024633 0 7
0.00450000 0.00420575 24868.57088534 0 -1706.44719767 0 25196.31575516 0 -20338.59331577 0 7033.84855421 0 24
0.00550000 0.00557378 29073.24364841 0 2771.13555751 0 45007.96630392 0 -4999.15738287 0 12156.95006298 0 45
0.00650000 0.00659388 36221.18734563 0 4509.73613513 0 54510.68202522 0 17860.37626966 0 4081.69357131 0 40
0.00750000 0.00754703 32412.58122558 0 1306.76482444 0 62340.40159884 0 24876.88928305 0 19999.53542507 0 57
0.00850000 0.00846663 47005.60178626 0 -2062.58553167 0 62759.42701955 0 31821.64225218 0 21421.42687383 0 75
0.00950000 0.00948925 50237.79840091 0 -972.30645311 0 72097.21664223 0 19814.42334800 0 43120.46640727 0 112
0.01050000 0.01054430 50345.60483525 0 1383.97064640 0 57906.36288288 0 26572.06782461 0 40202.37249019 0 105
0.01150000 0.01145670 54536.30269017 0 -725.57944963 0 60677.49844040 0 25093.38944748 0 45504.18645538 0 144
0.01250000 0.01249090 60388.24002399 0 -3210.59096300 0 54175.83878935 0 19180.89417832 0 39352.67589199 0 169
0.01350000 0.01339930 69619.55415596 0 -950.31371868 0 57104.46934353 0 15319.60487276 0 47966.43217789 0 180
0.01450000 0.01448870 71039.67101321 0 -4943.00265272 0 38320.41819202 0 9365.49543265 0 35275.33006988 0 267
0.01550000 0.01550050 80868.35701282 0 -2266.90756185 0 43442.99841452 0 211.10984271 0 7585.99052069 0 238
0.01650000 0.01653350 79888.67158638 0 1146.77430846 0 48716.08617962 0 -7690.51396073 0 14203.38681189 0 315
0.01750000 0.01747870 83641.59989775 0 8074.08082479 0 60503.69938422 0 -5479.69458184 0 -3038.58868072 0 297
0.01850000 0.01844180 76230.90574483 0 4636.03159478 0 71133.94618727 0 -4386.20238352 0 8464.08058308 0 388
0.01950000 0.01947590 72101.54220904 0 2032.17346964 0 67933.35948392 0 14252.96446225 0 -6504.01098480 0 399
0.02050000 0.02045430 75547.35527691 0 -1026.96830815 0 71715.56855524 0 6528.35616210 0 9196.89814784 0 462
0.02150000 0.02154770 74201.99308709 0 151.32274556 0 57643.61242718 0 7528.06119903 0 -3386.18679308 0 571
0.02250000 0.02255340 76202.62319261 0 3690.96179402 0 62763.30893848 0 6744.57904661 0 -454.36086506 0 510
0.02350000 0.02348930 74273.64221938 0 -126.17345648 0 67013.45560904 0 -1314.81703342 0 5068.12244549 0 555
0.02450000 0.02439640 73458.55015565 0 662.27422481 0 55941.66825548 0 15930.84073658 0 -3709.29554258 0 592
0.02550000 0.02547300 74411.06214956 0 -2917.10680055 0 37088.85168289 0 20604.89295450 0 3029.22771050 0 837
0.02650000 0.02652900 76877.07887903 0 -3118.71148748 0 32352.68876206 0 9619.73894030 0 1781.73424255 0 723
0.02750000 0.02749970 80019.88044628 0 -116.47753211 0 22710.88943103 0 12942.09589494 0 18189.11934721 0 826
0.02850000 0.02848090 74820.77096483 0 2507.28707331 0 12191.11094958 0 1676.63406027 0 7951.29018338 0 831
0.02950000 0.02946900 72522.45313322 0 820.70753674 0 10248.07742981 0 6657.56860655 0 23878.23790983 0 996
0.03050000 0.03053250 67605.39279017 0 3330.96372347 0 9484.40415514 0 7261.09608849 0 28405.66450409 0 1041
0.03150000 0.03150510 63394.17622089 0 1604.87401601 0 10518.07043712 0 2340.29801206 0 19170.69027712 0 1036
0.03250000 0.03246190 61029.64394350 0 3887.55325993 0 5152.84809898 0 -313.22871125 0 26417.23471522 0 1059
0.03350000 0.03345080 57826.50626486 0 3682.33284279 0 15575.81152227 0 -3439.13616731 0 20997.74315041 0 1302
0.03450000 0.03451200 50771.06315018 0 3194.74164256 0 15841.44568918 0 -3086.10336845 0 26257.63239113 0 1339
0.03550000 0.03553350 49486.25889570 0 1441.07921948 0 19650.93910498 0 1897.69270664 0 19758.63462735 0 1365
0.03650000 0.03647120 45702.38614485 0 759.20684966 0 17125.25173593 0 -851.02865096 0 17965.96446461 0 1308
0.03750000 0.03744890 47184.17005713 0 2475.06714618 0 25015.08559702 0 -550.90640714 0 18494.23817525 0 1579
0.03850000 0.03847530 46628.39017805 0 1392.62178002 0 25581.29120123 0 432.00544849 0 17884.77690295 0 1662
0.03950000 0.03950240 41790.07733333 0 431.89342740 0 21843.00326983 0 1546.84487358 0 16314.04159114 0 1683
0.04050000 0.04050350 44410.15078841 0 -778.31254552 0 23142.89155216 0 4638.67129966 0 12326.53446432 0 1822
0.04150000 0.04152450 45157.14290287 0 -429.50105622 0 20374.52879388 0 2553.48190860 0 14461.36805291 0 1887
0.04250000 0.04250150 45359.44633521 0 1128.11891519 0 20973.56434106 0 517.56405087 0 6237.35642777 0 1920
0.04350000 0.04349210 42144.55198780 0 2398.14969534 0 20858.77045264 0 -3545.78911717 0 8870.67277201 0 2005
0.04450000 0.04448520 41188.04716298 0 1159.34063460 0 19811.31781285 0 -689.65506272 0 7520.82973862 0 2151
0.04550000 0.04548030 39913.22498575 0 -1481.17389645 0 19898.38370890 0 6513.64923495 0 7073.93213999 0 2274
0.04650000 0.04648670 41250.93424968 0 -1534.33400342 0 15518.91368192 0 3774.78906056 0 3217.88897059 0 2311
0.04750000 0.04749250 42803.81273440 0 -546.66956990 0 10741.60242041 0 3711.99070343 0 197.16377167 0 2568
0.04850000 0.04851840 41831.33658598 0 1015.71407060 0 9219.24690970 0 -2181.53861894 0 4204.45093913 0 2493
0.04950000 0.04949480 41511.68828993 0 1066.82230614 0 9259.87396412 0 -1558.19116806 0 -552.52239453 0 2644
0.05050000 0.05050630 39100.24024945 0 1520.95801990 0 13569.19217039 0 -2663.32912318 0 1630.01775950 0 2829
0.05150000 0.05149060 39085.26713357 0 945.96264212 0 10526.91012109 0 -368.01922418 0 -4118.52743637 0 2784
0.05250000 0.05249300 37543.25802186 0 -217.37858723 0 14328.93916135 0 2523.19184974 0 190.30053900 0 3055
0.05350000 0.05348950 36664.61339962 0 1455.19831320 0 14882.27897709 0 -1231.53323554 0 -2292.06239653 0 3009
0.05450000 0.05448610 36863.47856090 0 852.73336793 0 14594.57332826 0 1422.37946143 0 3640.58557748 0 3336
0.05550000 0.05550870 35760.23720046 0 -718.56426756 0 13553.10993482 0 2531.31060590 0 2054.42241072 0 3349
0.05650000 0.05647670 35704.67030375 0 120.67111368 0 13990.43583049 0 786.79731119 0 3342.73148344 0 3324
0.05750000 0.05747970 36544.49573667 0 915.53948889 0 14239.32229001 0 641.97955264 0 4376.25357986 0 3639
0.05850000 0.05849280 35457.22569983 0 620.50144975 0 13412.02990964 0 -550.89975242 0 6015.02229375 0 3846
0.05950000 0.05951020 34483.86225566 0 220.70927367 0 13081.40132861 0 638.41262370 0 3445.51360556 0 3787
0.06050000 0.06049470 34183.73446624 0 218.13944334 0 13592.04003611 0 1364.56105174 0 1733.58735660 0 3930
0.06150000 0.06148310 33856.98780414 0 577.23025397 0 14315.07516516 0 105.88488447 0 2886.19563465 0 4083
0.06250000 0.06249100 33692.39444143 0 450.66638736 0 14733.32420208 0 1.01736999 0 3156.01118281 0 4303
0.06350000 0.06350600 32783.02720365 0 -11.14676384 0 10960.17663867 0 1799.73525520 0 1793.53527610 0 4470
0.06450000 0.06451750 32708.82709606 0 -372.64868978 0 10620.32018179 0 884.26009525 0 -601.74956307 0 4479
0.06550000 0.06550280 33358.66032526 0 -173.41973724 0 10886.98583001 0 928.42080502 0 2028.66865141 0 4636
0.06650000 0.06648880 33154.36047747 0 231.44222496 0 9001.10524812 0 500.10761599 0 173.05816422 0 4653
0.06750000 0.06749660 32922.88719716 0 634.78247494 0 9179.65133659 0 169.17957265 0 -1030.93230194 0 5220
0.06850000 0.06852730 31876.65458904 0 461.65443617 0 9850.39147203 0 -2572.75840890 0 -2073.14435117 0 5029
0.06950000 0.06949320 30938.33932722 0 1445.22732714 0 11453.99000040 0 -813.35740052 0 -1052.60450077 0 5040
0.07050000 0.07048030 29764.00339434 0 719.54583849 0 12556.34406508 0 36.26111565 0 34.52667428 0 5475
0.07150000 0.07148790 28642.68338288 0 405.97551837 0 10375.24909402 0 1846.91720701 0 -2243.82678100 0 5509
0.07250000 0.07249820 28904.65745479 0 94.17823700 0 11354.83469968 0 1975.74145957 0 923.63273530 0 5916
0.07350000 0.07351270 28426.29413042 0 423.11585414 0 10797.32459388 0 1112.89070178 0 1713.05755105 0 5721
0.07450000 0.07449140 27388.60174394 0 226.91036188 0 8834.97020903 0 201.72890833 0 1241.45985681 0 6028
0.07550000 0.07549160 26646.93340401 0 649.37738100 0 11116.81761317 0 -859.30712036 0 1894.66480988 0 6183
0.07650000 0.07648840 26379.85738150 0 606.37237395 0 7871.05646465 0 -195.92155761 0 -534.96281152 0 6330
0.07750000 0.07749960 26190.19791369 0 -98.63301625 0 11361.60032982 0 59.64146973 0 -135.23829175 0 6583
0.07850000 0.07848650 25615.00843995 0 430.96509422 0 7656.54162448 0 903.33695400 0 -1286.95594669 0 6549
0.07950000 0.07947320 25719.04386732 0 494.34241182 0 10745.09614745 0 -118.44732869 0 94.55578134 0 6828
0.08050000 0.08048110 24412.94451470 0 447.94904411 0 8032.23373871 0 142.47973424 0 -1282.74129185 0 7147
0.08150000 0.08149960 23667.83790372 0 546.12277389 0 10042.16935847 0 898.61099498 0 121.92996453 0 7386
0.08250000 0.08250610 23147.88259079 0 615.13552866 0 10057.22011272 0 -207.38652790 0 931.19582250 0 7227
0.08350000 0.08350160 22809.15743599 0 -98.70300171 0 8484.24437913 0 1623.61813886 0 1416.36803268 0 7798
0.08450000 0.08449610 22929.16418697 0 -455.95023358 0 9409.19474863 0 1463.41689014 0 3307.70548347 0 7371
0.08550000 0.08548940 23554.70769485 0 -101.63540327 0 7104.82112349 0 459.75451414 0 1249.34569784 0 8256
0.08650000 0.08650700 22954.11938010 0 379.95889769 0 8656.97868041 0 59.25427605 0 2355.03821280 0 8037
0.08750000 0.08749060 22512.35700565 0 1142.79256876 0 7361.38269129 0 -1683.20004886 0 725.90553082 0 8155
0.08850000 0.08849210 21583.69108518 0 566.00041706 0 9637.39612584 0 -1100.42752377 0 1912.78782569 0 8718
0.08950000 0.08949900 20645.81947124 0 659.50808029 0 10047.74823053 0 -110.50747353 0 867.67986494 0 8571
0.09050000 0.09049190 20305.43063690 0 57.49232850 0 8701.85366326 0 1356.49775156 0 573.19638564 0 8932
0.09150000 0.09150830 20110.55830652 0 -16.71609748 0 9282.75510342 0 564.94897159 0 -2.04323139 0 9285
0.09250000 0.09250820 19895.83273360 0 392.11595867 0 8112.96656129 0 391.66121959 0 -622.69417938 0 9204
0.09350000 0.09350330 19290.80794007 0 556.42095026 0 8565.43194079 0 132.29579720 0 1375.41933355 0 9349
0.09450000 0.09448040 18352.82541416 0 534.91844674 0 7851.28086050 0 -188.71893431 0 -1252.09631468 0 9564
0.09550000 0.09549270 18196.66136113 0 327.23689300 0 8682.14460628 0 269.53937736 0 1930.75556475 0 10155
0.09650000 0.09649430 17696.00473089 0 -145.33682657 0 7841.70915753 0 1822.88258323 0 96.66721251 0 9913
0.09750000 0.09749140 17671.93683351 0 -165.55386037 0 6615.96552680 0 949.93218150 0 2137.61747903 0 10476
0.09850000 0.09850240 17822.11164019 0 181.34107010 0 6802.15344997 0 503.30409895 0 792.55807889 0 10575
0.09950000 0.09950330 17720.18354024 0 328.64769325 0 6271.98314464 0 -422.64336915 0 1255.11312025 0 10882
0.10050000 0.10051200 17032.52932945 0 64.79333072 0 6621.14511577 0 311.72474495 0 1199.87895945 0 10875
0.10150000 0.10150300 16966.09305973 0 56.57198098 0 5096.14990018 0 173.99980684 0 824.27890216 0 11118
0.10250000 0.10250800 17053.49169168 0 100.75065849 0 5895.15972833 0 501.31988382 0 334.49829964 0 11575
0.10350000 0.10349800 16716.76295233 0 323.32835520 0 4884.35240326 0 -212.51066089 0 -942.42122293 0 11364
0.10450000 0.10450100 16243.05793067 0 451.64019445 0 5955.11873903 0 -421.68065325 0 203.92607445 0 12093
0.10550000 0.10551000 15664.09744997 0 337.97982636 0 5213.39494312 0 -333.88051997 0 -358.30666301 0 12067
0.10650000 0.10649700 15785.32423262 0 83.96457555 0 6555.46304744 0 144.46394937 0 -155.06713365 0 12054
0.10750000 0.10749900 15301.19348583 0 177.39814959 0 5847.20139272 0 250.97825926 0 -850.77022607 0 12807
0.10850000 0.10850100 15242.07740609 0 107.35224982 0 6376.46221990 0 137.41882107 0 238.25665636 0 12736
0.10950000 0.10950300 15239.85916671 0 -59.91464591 0 5368.33896448 0 310.48142177 0 -359.90268625 0 12933
0.11050000 0.11050200 15595.22111693 0 -306.41538897 0 5575.36724672 0 1104.48801098 0 888.63113597 0 13428
0.11150000 0.11150900 15504.16238998 0 -150.88242504 0 4328.42833862 0 593.50214902 0 104.07502295 0 13453
0.11250000 0.11250000 15803.73561955 0 227.36731920 0 4571.40319016 0 179.21266941 0 564.97891782 0 13668
0.11350000 0.11349100 15213.12938206 0 502.33251010 0 4582.83821422 0 -464.81320907 0 784.21084406 0 13791
0.11450000 0.11448600 14599.78619082 0 421.82705705 0 4978.40575338 0 -615.85534735 0 277.60822314 0 14205
0.11550000 0.11549300 14480.11217575 0 229.61217746 0 5478.33036462 0 -278.94803973 0 165.60709811 0 14776
0.11650000 0.11649800 14158.46746425 0 -114.27260216 0 4545.39433332 0 342.94868260 0 -1125.71212546 0 14553
0.11750000 0.11747300 14191.74105510 0 -65.12418112 0 4683.00281386 0 653.87264312 0 -244.12168131 0 14568
0.11850000 0.11849100 14280.69245462 0 238.70474072 0 4759.47661682 0 -608.36435293 0 -1260.20397965 0 16015
0.11950000 0.11950300 14069.95971261 0 334.21325588 0 4724.51716403 0 -109.80107520 0 -1372.01433609 0 15270
0.12050000 0.12050700 13686.98068198 0 156.68201193 0 5328.82102976 0 -167.81979190 0 -514.85114410 0 15999
0.12150000 0.12150000 13399.60776906 0 38.29468662 0 4724.69462319 0 522.99541002 0 -828.76307308 0 15670
0.12250000 0.12250700 13641.06312662 0 -108.14904141 0 5153.02555813 0 739.11736463 0 -190.72644096 0 16887
0.12350000 0.12352200 13882.96213206 0 -94.25709541 0 4502.20521240 0 390.24487374 0 -317.92028756 0 16407
0.12450000 0.12449800 13719.58880101 0 69.88230461 0 4303.16259197 0 202.05831688 0 -94.98545431 0 16306
0.12550000 0.12549900 13690.64077698 0 144.83661359 0 4583.12658534 0 -21.35499060 0 857.76877134 0 17523
0.12650000 0.12650100 13166.24898527 0 248.46277579 0 4237.90198913 0 73.32922680 0 661.73852000 0 17154
0.12750000 0.12750600 13500.87039719 0 78.06250601 0 3903.00329728 0 366.36219935 0 253.12995147 0 18007
0.12850000 0.12850300 13187.65499538 0 -44.22803333 0 4063.16018121 0 265.61420276 0 167.77986359 0 17496
0.12950000 0.12949900 13070.42104363 0 122.73962191 0 3612.55812279 0 197.54087237 0 478.17810139 0 18405
0.13050000 0.13049000 12831.07301349 0 227.21204244 0 3782.63053680 0 -422.94615883 0 -9.12565939 0 18100
0.13150000 0.13148800 12800.79404582 0 197.69947648 0 3453.17762265 0 73.53319391 0 247.85497820 0 19059
0.13250000 0.13249300 12381.54680118 0 110.70789146 0 3882.72858926 0 288.09051337 0 -192.20378839 0 18957
0.13350000 0.13349100 12339.17842884 0 78.46234366 0 3295.19461332 0 -156.97038305 0 102.17554456 0 19468
0.13450000 0.13450700 12213.51516741 0 213.79058501 0 3933.37099452 0 -20.93197235 0 -310.72986458 0 19953
0.13550000 0.13551000 11982.48553498 0 210.63403036 0 3773.69103206 0 -289.28170792 0 6.18475088 0 19956
0.13650000 0.13649900 11765.31989874 0 277.08360952 0 4384.60525116 0 -317.97019795 0 -611.20480847 0 19723
0.13750000 0.13749600 11527.63554814 0 208.67754322 0 4605.91899507 0 -138.39928288 0 -595.28561349 0 20946
0.13850000 0.13851100 11238.82077960 0 105.34884692 0 4447.20396674 0 71.57892501 0 33.75927436 0 20955
0.13950000 0.13949800 11283.29647937 0 67.68070202 0 4468.66543283 0 604.99484729 0 119.20485744 0 20506
0.14050000 0.14048300 11294.60950025 0 -142.23905526 0 4259.67400874 0 517.51524960 0 513.13755417 0 21447
0.14150000 0.14148400 11339.75067183 0 -35.17894757 0 3707.47658628 0 778.57429777 0 276.07431060 0 21771
0.14250000 0.14249400 11262.22320516 0 182.83838169 0 3943.77453726 0 -285.87338310 0 773.03091754 0 22470
0.14350000 0.14350900 10969.45997052 0 201.75663633 0 3817.14634170 0 -448.52134987 0 732.98726008 0 22519
0.14450000 0.14449900 11062.61493369 0 -42.34020070 0 3877.20517317 0 310.98828947 0 431.55625502 0 22218
0.14550000 0.14550500 10995.16936504 0 -36.02487316 0 3571.29887015 0 184.60520937 0 -168.87567385 0 23559
0.14650000 0.14650700 10930.81824035 0 145.85922195 0 3488.71381767 0 -306.69045065 0 -514.34205816 0 23044
0.14750000 0.14750500 10737.36558318 0 144.06244804 0 3380.68555939 0 252.13063463 0 -51.36455310 0 23649
0.14850000 0.14849900 10743.97593656 0 -64.81861864 0 3111.21383834 0 289.95605270 0 -460.52202497 0 23640
0.14950000 0.14949500 10670.94040466 0 112.63886885 0 2913.65743830 0 261.51600548 0 -559.92133202 0 24457
0.15050000 0.15050000 10450.36977095 0 287.68124820 0 3005.11544833 0 65.18573726 0 -361.01291507 0 24591
0.15150000 0.15149900 10126.93937674 0 232.50697986 0 3045.97541789 0 -177.99707422 0 234.66976327 0 25020
0.15250000 0.15250500 9715.66670270 0 116.20912514 0 2999.02638121 0 336.33056538 0 153.28145094 0 25297
0.15350000 0.15350100 9819.41375896 0 76.14938545 0 3155.01297509 0 100.88375285 0 309.31130049 0 25452
0.15450000 0.15450400 9541.04689795 0 112.08098164 0 2860.15350422 0 -74.84328609 0 213.79945797 0 26061
0.15550000 0.15549900 9646.62400170 0 283.86809469 0 3713.78747734 0 -366.09822887 0 542.75992298 0 26128
0.15650000 0.15649500 9126.24722328 0 175.85092761 0 3550.84670297 0 -184.13605173 0 434.96014336 0 26331
0.15750000 0.15749700 9319.68878926 0 -45.48056221 0 3699.89020756 0 297.39824585 0 380.51345754 0 27345
0.15850000 0.15849900 9200.18114214 0 -69.03515899 0 3566.96221214 0 234.92375168 0 529.88415244 0 26980
0.15950000 0.15949700 9297.93895204 0 132.73168124 0 3491.23151938 0 124.09496617 0 519.25767664 0 27777
0.16050000 0.16050000 9134.35488825 0 103.19770927 0 3155.84481486 0 83.60921360 0 684.52871149 0 28224
0.16150000 0.16150500 8959.60198914 0 125.14752077 0 3112.41168761 0 -130.53340600 0 207.69597229 0 28075
0.16250000 0.16249700 8886.68846040 0 126.84669214 0 3472.22120781 0 8.96684454 0 60.73628178 0 28590
0.16350000 0.16349900 8613.93374505 0 176.62398404 0 3290.00393315 0 -245.18754534 0 -116.55073401 0 29163
0.16450000 0.16449100 8591.14133532 0 105.02398576 0 3458.44594120 0 26.19108521 0 -314.65503918 0 28996
0.16550000 0.16550500 8349.87452811 0 -7.83047378 0 3138.20981171 0 3.04770564 0 -299.62424908 0 30777
0.16650000 0.16650700 8595.27835178 0 -63.34581860 0 3120.96300046 0 470.11147385 0 -599.24184344 0 29211
0.16750000 0.16749900 8579.66194648 0 -26.81973425 0 2881.82570306 0 185.19193368 0 -52.60831992 0 30922
0.16850000 0.16850800 8478.83187502 0 107.91046976 0 3067.12633047 0 31.32242748 0 -221.18064954 0 30867
0.16950000 0.16949900 8560.52963174 0 38.18432921 0 2806.42774620 0 306.81467206 0 441.21114196 0 30852
0.17050000 0.17049200 8350.17399042 0 60.41663349 0 2881.50405835 0 147.10143600 0 140.75394399 0 31257
0.17150000 0.17149500 8360.66626274 0 163.06388665 0 2822.47670819 0 -24.58363804 0 699.87560071 0 32608
0.17250000 0.17250900 8182.39745419 0 41.64001344 0 2803.78804133 0 305.59353127 0 1115.86314257 0 32361
0.17350000 0.17350400 8081.97775702 0 5.15273719 0 2668.77490088 0 147.79352669 0 840.94897117 0 32508
0.17450000 0.17449800 8166.74777529 0 49.01976315 0 2447.51661296 0 148.26601168 0 1104.92389502 0 32791
0.17550000 0.17549800 7989.18880335 0 105.08365640 0 2529.44728481 0 98.07169078 0 815.15750179 0 33633
0.17650000 0.17650100 7888.04817838 0 160.29774213 0 2480.19127917 0 -200.86601321 0 1048.02161819 0 33984
0.17750000 0.17750300 7641.13595192 0 134.89335552 0 2486.13616073 0 -83.19595560 0 330.89920623 0 34069
0.17850000 0.17849800 7666.16878343 0 114.58759215 0 2738.88235679 0 -248.95078846 0 588.23937606 0 34536
