### header ###
fiducial parameters:
Omega_m = 0.31
Omega_nu = 0
Omega_de = 0.69
Omega_k = 0
H_0 = 100
w_de = -1
zeff = 0
beta = 0
fgrowth = 0
b_1 = 2
gamma = 0.55
Lx = 3500 Ly = 3500 Lz = 3500
nx = 700 ny = 700 nz = 700
xoffset = 1379.75464 yoffset = 22.6059522 zoffset = 368.141391
bins = 400 dk = 0.001
kx_ny = 0.628318531 ky_ny = 0.628318531 kz_ny = 0.628318531
############################
A(data) = 3.33624732 (not used)
A(ran) = 3.34043917 (used)
Ngal = 187703
weighted Ngal = 0
Nran = 9399747
weighted Nran = 0
SN(data) = 6589.44747
SN(ran) = 132.867247
SN(data+ran) = 6722.31471
############################
13 columns: k_central k_mean P_0(k) sigma^{lin}_{P_0(k)} P^img_1(k) sigma^{lin}_{P_1(k)} P_2(k) sigma^{lin}_{P_2(k)} P^img_3(k) sigma^{lin}_{P_3(k)} P_4(k) sigma^{lin}_{P_4(k)} N_modes
### header ###
0.00050000 0 0 0 0 0 0 0 0 0 0 0 0
0.00150000 0.00179520 59139.59307156 0 -27065.73700078 0 -3946.45860692 0 -29591.42436983 0 79728.29287851 0 3
0.00250000 0.00253879 73756.90335356 0 -8794.89771446 0 -12972.59668655 0 -25638.96542536 0 -8093.64569621 0 6
0.00350000 0.00331552 80575.43850142 0 1362.98610177 0 3679.18294286 0 -47577.02025303 0 41323.47067772 0 7
0.00450000 0.00420575 70679.31802437 0 3045.67595557 0 -3039.69780042 0 -5969.82566618 0 7144.81597968 0 24
0.00550000 0.00557378 75748.54958955 0 -3893.12104080 0 13165.02895360 0 6645.12428357 0 -5360.23129952 0 45
0.00650000 0.00659388 83341.02846046 0 -4626.21588548 0 5881.07390820 0 -3586.33853321 0 727.38509650 0 40
0.00750000 0.00754703 90495.51596388 0 -1679.68413943 0 9872.05257967 0 19399.61258214 0 5966.32084795 0 57
0.00850000 0.00846663 78124.83853571 0 647.08704883 0 9309.30742892 0 -13838.15369639 0 16137.46973572 0 75
0.00950000 0.00948925 89960.03297522 0 -1479.31057536 0 -8007.17872480 0 10292.46440000 0 3938.31766836 0 112
0.01050000 0.01054430 88879.19583261 0 -1211.86854335 0 -6166.13985217 0 -4876.16709991 0 -14314.40969335 0 105
0.01150000 0.01145670 85963.20924296 0 233.44751337 0 1871.05165157 0 -16718.09389596 0 -20600.67829966 0 144
0.01250000 0.01249090 85424.06615930 0 4264.17703470 0 -1821.81782832 0 -13150.61039757 0 -20668.77824892 0 169
0.01350000 0.01339930 75628.98648645 0 2270.11291777 0 16380.81059677 0 -10905.15321061 0 -31330.63496328 0 180
0.01450000 0.01448870 78354.86996041 0 2600.03166219 0 -363.43745072 0 -5317.09763458 0 -29128.47780921 0 267
0.01550000 0.01550050 75437.21969121 0 12.68245097 0 21739.52240230 0 -7696.02628561 0 -49301.47955454 0 238
0.01650000 0.01653350 73449.23355021 0 3442.67425914 0 -1488.15025933 0 -266.79319699 0 -26628.74384102 0 315
0.01750000 0.01747870 74879.88704457 0 -2514.17470662 0 25118.56646455 0 -5059.19403195 0 -35619.04626331 0 297
0.01850000 0.01844180 72381.04037213 0 1715.36452001 0 9071.46780156 0 -3753.32759446 0 -29452.78440797 0 388
0.01950000 0.01947590 74826.31656331 0 2295.23447886 0 11218.74571313 0 -5077.16177100 0 -31262.31319008 0 399
0.02050000 0.02045430 67026.54322144 0 2777.45753977 0 13712.60134694 0 1953.00450582 0 -14552.31586788 0 462
0.02150000 0.02154770 67884.89095326 0 1449.70817071 0 15838.00741812 0 2825.47133136 0 -24667.82022057 0 571
0.02250000 0.02255340 66332.78885233 0 1412.65248170 0 23479.28755560 0 670.15230201 0 -1796.65190245 0 510
0.02350000 0.02348930 63883.96347813 0 1177.61892717 0 13277.05004278 0 2186.55183996 0 -19808.32318968 0 555
0.02450000 0.02439640 64489.32100756 0 1978.31461726 0 18661.60433720 0 -2873.86222365 0 -10155.11101699 0 592
0.02550000 0.02547300 57385.85301010 0 1529.60915352 0 18990.90197459 0 2512.01192321 0 -5241.66640414 0 837
0.02650000 0.02652900 62964.72507506 0 394.70020756 0 17805.69666871 0 2675.46289264 0 -7515.60578486 0 723
0.02750000 0.02749970 62445.76796985 0 -3445.11432247 0 25174.02244929 0 5930.88447370 0 2093.69633911 0 826
0.02850000 0.02848090 62815.77030005 0 659.17090791 0 15778.33677854 0 792.27858072 0 -13419.35009962 0 831
0.02950000 0.02946900 62829.41247229 0 3454.08710080 0 18395.85925832 0 -9111.88412324 0 -2397.76150345 0 996
0.03050000 0.03053250 57953.61138188 0 4433.43979133 0 25368.00748391 0 -7528.61575888 0 -8269.09734073 0 1041
0.03150000 0.03150510 56588.50686150 0 1870.89637482 0 36351.61982174 0 230.48394554 0 -4307.46597639 0 1036
0.03250000 0.03246190 56303.13036402 0 -2472.51617088 0 33942.83366852 0 3905.13280709 0 -5783.79301977 0 1059
0.03350000 0.03345080 57437.53798788 0 -1392.55523283 0 23750.80005689 0 9124.60572614 0 -12450.20131029 0 1302
0.03450000 0.03451200 59401.34531953 0 751.68590901 0 26584.93361307 0 -2461.92407779 0 -12173.47594643 0 1339
0.03550000 0.03553350 58822.38483884 0 1833.78522983 0 23222.85908216 0 -1727.18773596 0 -10713.76351607 0 1365
0.03650000 0.03647120 54393.22624953 0 2804.57551631 0 28138.14483370 0 2994.60099363 0 -10187.10912019 0 1308
0.03750000 0.03744890 53075.25931618 0 1193.25751487 0 24281.95747874 0 -2383.85314248 0 -10919.95995854 0 1579
0.03850000 0.03847530 49320.55641330 0 2089.60368744 0 23061.92581444 0 3573.33965038 0 -11356.49837922 0 1662
0.03950000 0.03950240 47887.57376758 0 2086.67561144 0 24048.59869495 0 3732.46505300 0 -7354.45069320 0 1683
0.04050000 0.04050350 44519.84272623 0 594.61792343 0 21826.81012229 0 788.03397965 0 -7320.64472490 0 1822
0.04150000 0.04152450 44724.14257401 0 1170.03254846 0 21169.32396719 0 3261.78792811 0 -3823.10231446 0 1887
0.04250000 0.04250150 41342.10388859 0 1007.89255852 0 20578.93955364 0 -979.84181231 0 -7244.67002581 0 1920
0.04350000 0.04349210 41463.55249517 0 120.65336776 0 17920.49055712 0 2311.48308239 0 -8681.97823833 0 2005
0.04450000 0.04448520 41450.24305884 0 -460.93239925 0 19499.65517861 0 722.99187339 0 -6800.84468873 0 2151
0.04550000 0.04548030 41362.62260295 0 783.03295895 0 16725.96864580 0 -211.28619274 0 -6770.33280592 0 2274
0.04650000 0.04648670 41126.04737204 0 569.62391111 0 17188.69338248 0 2822.59871135 0 -3187.19962863 0 2311
0.04750000 0.04749250 42187.58583195 0 -999.22589722 0 13912.24289200 0 4772.86369153 0 -1575.92599198 0 2568
0.04850000 0.04851840 41417.19129193 0 -952.74047257 0 12184.78896732 0 5321.23465105 0 290.70138113 0 2493
0.04950000 0.04949480 42516.32890950 0 681.02278413 0 8060.33883177 0 1977.06131201 0 484.09747320 0 2644
0.05050000 0.05050630 39876.84585976 0 1446.10353170 0 9544.49626020 0 -938.23429608 0 3535.45212161 0 2829
0.05150000 0.05149060 38142.18265706 0 1965.72610872 0 11905.62354013 0 -1658.11176137 0 5518.60250074 0 2784
0.05250000 0.05249300 36874.12610997 0 931.72265435 0 10712.62112279 0 -1344.00906379 0 41.67539436 0 3055
0.05350000 0.05348950 34988.06806892 0 1154.07231605 0 14157.35834456 0 -482.18313261 0 -1366.21364008 0 3009
0.05450000 0.05448610 34039.54890591 0 637.34232319 0 9374.65676133 0 212.10139572 0 -980.46846494 0 3336
0.05550000 0.05550870 33710.14035655 0 253.04344013 0 11588.52621938 0 923.35101890 0 -559.22258661 0 3349
0.05650000 0.05647670 33369.52969827 0 3.64060776 0 9849.48199388 0 1637.13830794 0 -2176.37012116 0 3324
0.05750000 0.05747970 32890.05725420 0 454.73131104 0 8621.33157341 0 -525.91017657 0 -1136.01584742 0 3639
0.05850000 0.05849280 32573.51449330 0 270.08173689 0 9739.61259692 0 109.14458725 0 -3673.13824052 0 3846
0.05950000 0.05951020 31349.15726218 0 1104.25065936 0 10971.61166273 0 -2052.74763998 0 -2517.96789597 0 3787
0.06050000 0.06049470 30969.17285474 0 931.67939869 0 13670.45479853 0 -1914.49587002 0 -2411.72532041 0 3930
0.06150000 0.06148310 30387.43957480 0 -248.37515534 0 11516.43343922 0 2297.29744149 0 -2792.16446693 0 4083
0.06250000 0.06249100 30699.43494495 0 -10.29057890 0 13303.44709152 0 168.50522788 0 -2670.91550189 0 4303
0.06350000 0.06350600 30113.48701018 0 666.66522968 0 11619.47065887 0 -562.22608274 0 -3477.94426543 0 4470
0.06450000 0.06451750 30600.72329212 0 -299.99025858 0 12476.15471115 0 1033.84263201 0 -236.15376542 0 4479
0.06550000 0.06550280 30667.60320971 0 -1298.89007461 0 9406.90996206 0 3917.59931246 0 -1887.93245333 0 4636
0.06650000 0.06648880 31969.59881947 0 -1197.62744647 0 7310.56282688 0 3502.62217864 0 -559.14827559 0 4653
0.06750000 0.06749660 33298.76786174 0 -126.75352608 0 4331.98861284 0 -671.30467737 0 -5016.20455258 0 5220
0.06850000 0.06852730 32478.57384742 0 1393.49798457 0 6295.09719908 0 -2281.51466823 0 -2711.33182357 0 5029
0.06950000 0.06949320 30788.60816842 0 1722.98417232 0 8104.16015092 0 -3531.86966500 0 -7907.87923852 0 5040
0.07050000 0.07048030 28748.93704964 0 1170.62038190 0 8788.06553714 0 -2139.27006737 0 -3240.53719476 0 5475
0.07150000 0.07148790 27842.78625897 0 575.06747057 0 11184.80665047 0 706.65121292 0 -8341.86668391 0 5509
0.07250000 0.07249820 27368.52667746 0 356.76720487 0 10214.17164074 0 966.07209130 0 -5337.11724508 0 5916
0.07350000 0.07351270 26603.01226410 0 797.52249864 0 10284.62292375 0 888.97939955 0 -5713.16427761 0 5721
0.07450000 0.07449140 24999.22518539 0 607.40163703 0 11190.01951303 0 394.16117539 0 -2734.29060125 0 6028
0.07550000 0.07549160 24798.03087274 0 604.55341766 0 12241.46498372 0 -2.45147617 0 -2881.44860236 0 6183
0.07650000 0.07648840 24641.97773168 0 103.16266109 0 10375.36000599 0 306.28229461 0 -2598.52325941 0 6330
0.07750000 0.07749960 24225.28146234 0 52.79232288 0 12058.79296999 0 959.77007320 0 -1402.29330375 0 6583
0.07850000 0.07848650 24725.49444470 0 -324.40420130 0 9230.26046827 0 1853.72720194 0 -1690.07659097 0 6549
0.07950000 0.07947320 25164.59493188 0 -862.10432023 0 8012.66886729 0 2411.69204682 0 829.31985117 0 6828
0.08050000 0.08048110 25487.45967505 0 84.94537010 0 5693.34430866 0 621.57729585 0 -2190.03447581 0 7147
0.08150000 0.08149960 25011.86914991 0 616.43652607 0 7438.75488120 0 -262.50090377 0 1614.50117496 0 7386
0.08250000 0.08250610 24175.92563592 0 459.26206499 0 5474.59263125 0 142.58620973 0 -1596.38925035 0 7227
0.08350000 0.08350160 23368.37558612 0 760.73188924 0 7327.36599025 0 -982.02566899 0 -1264.76246160 0 7798
0.08450000 0.08449610 22504.48225582 0 740.55700199 0 6649.01729370 0 -1149.20328059 0 -1608.97775888 0 7371
0.08550000 0.08548940 21531.22972362 0 686.84455341 0 8854.46853327 0 43.53394623 0 -2370.59916212 0 8256
0.08650000 0.08650700 21228.99460678 0 263.58673195 0 7735.87695625 0 -561.77134367 0 -2383.50931537 0 8037
0.08750000 0.08749060 20595.24361315 0 332.19022156 0 8481.13884399 0 570.92601763 0 -3581.56931852 0 8155
0.08850000 0.08849210 20427.65562727 0 216.46578172 0 7631.19823945 0 528.60755567 0 -2417.65911077 0 8718
0.08950000 0.08949900 19311.43756640 0 165.49729526 0 7209.44438430 0 999.91244231 0 -1632.63528198 0 8571
0.09050000 0.09049190 19963.15629908 0 319.87788382 0 7118.26365419 0 777.61823660 0 -1060.95284472 0 8932
0.09150000 0.09150830 19221.26613521 0 418.63722881 0 6415.29250041 0 511.14557520 0 -894.93204496 0 9285
0.09250000 0.09250820 18177.47359041 0 438.54038173 0 6734.15332148 0 405.46643243 0 515.12731490 0 9204
0.09350000 0.09350330 18094.84417315 0 -60.58921251 0 6417.47746621 0 771.14763230 0 1836.20311076 0 9349
0.09450000 0.09448040 18564.77818784 0 -205.04073974 0 5601.76429546 0 1328.47029687 0 724.43483811 0 9564
0.09550000 0.09549270 18221.72746623 0 69.84437272 0 4575.49584184 0 406.87057797 0 917.47379363 0 10155
0.09650000 0.09649430 18311.34433758 0 415.84779278 0 5072.57001547 0 -718.95135034 0 571.59259856 0 9913
0.09750000 0.09749140 17603.06050046 0 178.67585548 0 4725.12717987 0 -704.65923395 0 909.46705856 0 10476
0.09850000 0.09850240 17520.87473108 0 141.93959294 0 5336.18558453 0 408.10170083 0 -55.29105864 0 10575
0.09950000 0.09950330 17612.59892984 0 -38.47990960 0 4904.36092255 0 380.15521188 0 -50.19986651 0 10882
0.10050000 0.10051200 17744.80599746 0 -346.27825992 0 4330.80185477 0 1188.94303926 0 -267.45201409 0 10875
0.10150000 0.10150300 17501.02148854 0 313.05901594 0 3978.31252455 0 -106.29792064 0 -98.34841614 0 11118
0.10250000 0.10250800 17042.51140670 0 560.54576640 0 4122.15425778 0 -614.51774899 0 614.42680118 0 11575
0.10350000 0.10349800 16729.85056473 0 419.04316662 0 5053.67061587 0 -399.09121243 0 210.60075677 0 11364
0.10450000 0.10450100 16264.24211684 0 317.90365077 0 5540.47434112 0 -263.25510516 0 98.19524671 0 12093
0.10550000 0.10551000 15804.29017940 0 49.73514536 0 6000.93647362 0 388.02996171 0 769.18005396 0 12067
0.10650000 0.10649700 15911.20931798 0 113.49067277 0 5531.92302827 0 144.73124722 0 698.30508722 0 12054
0.10750000 0.10749900 16056.39308603 0 -94.34782140 0 5656.28861965 0 600.93768745 0 1246.79472254 0 12807
0.10850000 0.10850100 15811.94310529 0 34.21445708 0 5194.82827943 0 328.89835430 0 1061.02161014 0 12736
0.10950000 0.10950300 15926.84790568 0 244.83928175 0 5318.11802470 0 -72.42296510 0 1837.04604173 0 12933
0.11050000 0.11050200 15717.77884320 0 208.10080098 0 5755.79883867 0 -74.14808987 0 1429.07854438 0 13428
0.11150000 0.11150900 15654.55902060 0 -37.50277515 0 5372.22088342 0 583.19842705 0 1875.95396063 0 13453
0.11250000 0.11250000 15542.42701945 0 37.22837894 0 4855.28237605 0 378.79764937 0 1585.00968228 0 13668
0.11350000 0.11349100 15408.33444835 0 245.93731025 0 4533.51566139 0 479.81627118 0 1295.34089158 0 13791
0.11450000 0.11448600 14838.46874915 0 309.18596997 0 4842.57186435 0 196.19661930 0 1674.98147192 0 14205
0.11550000 0.11549300 14546.99209335 0 209.75117109 0 4071.17911660 0 -22.18339210 0 2072.98907441 0 14776
0.11650000 0.11649800 14401.36467742 0 83.78467634 0 4375.15555136 0 480.32868448 0 999.35788246 0 14553
0.11750000 0.11747300 13939.08358862 0 260.49672448 0 4197.37475548 0 -294.07421412 0 1225.05597652 0 14568
0.11850000 0.11849100 13778.92670469 0 237.18081026 0 4100.79261245 0 -291.51214763 0 596.36035047 0 16015
0.11950000 0.11950300 13503.86502037 0 305.69113381 0 4497.29181216 0 -313.07676186 0 491.25573171 0 15270
0.12050000 0.12050700 13216.93575532 0 84.12950165 0 4256.97884788 0 70.27138380 0 -282.73346525 0 15999
0.12150000 0.12150000 13241.66912451 0 83.35267422 0 5013.54266531 0 49.36026290 0 -418.03054034 0 15670
0.12250000 0.12250700 12846.71160119 0 226.76063073 0 4338.27732151 0 -277.83670179 0 -205.32911086 0 16887
0.12350000 0.12352200 12864.45751630 0 96.42453712 0 4582.74948464 0 195.96481328 0 -292.60352141 0 16407
0.12450000 0.12449800 13143.51203152 0 -122.79840525 0 4700.79309376 0 376.24667407 0 -173.62603351 0 16306
0.12550000 0.12549900 12745.89262093 0 86.08011046 0 3900.37468360 0 198.48584235 0 -378.47822290 0 17523
0.12650000 0.12650100 13011.08313996 0 146.08548236 0 4251.48870539 0 75.80755476 0 -82.44962896 0 17154
0.12750000 0.12750600 12674.57622455 0 -47.09854602 0 3751.69718851 0 115.27413724 0 -64.60511310 0 18007
0.12850000 0.12850300 12596.05055016 0 78.00616273 0 3923.69947078 0 587.37648094 0 191.78786851 0 17496
0.12950000 0.12949900 12712.39720614 0 86.38911121 0 3577.38793727 0 151.70871922 0 98.08211650 0 18405
0.13050000 0.13049000 12590.06130381 0 114.32251254 0 3379.23261259 0 142.07934203 0 80.34906717 0 18100
0.13150000 0.13148800 12401.95460356 0 37.37533730 0 3011.53725137 0 450.30370522 0 723.98009903 0 19059
0.13250000 0.13249300 12207.19318515 0 252.47667997 0 3404.73127438 0 -200.18612284 0 683.19665874 0 18957
0.13350000 0.13349100 11922.48215949 0 259.46967965 0 2934.38688539 0 -136.27531866 0 45.80664340 0 19468
0.13450000 0.13450700 11531.07381919 0 276.56343238 0 3968.82955116 0 -111.10273807 0 307.02318656 0 19953
0.13550000 0.13551000 11183.58661880 0 204.67140288 0 3169.95281738 0 -166.48884827 0 -108.18375686 0 19956
0.13650000 0.13649900 11069.42492861 0 24.67170214 0 3215.82600796 0 315.83625166 0 46.98486125 0 19723
0.13750000 0.13749600 10870.18266664 0 85.20945150 0 3144.45415559 0 267.60063613 0 -546.50209283 0 20946
0.13850000 0.13851100 10937.05149304 0 44.42434752 0 2643.04332396 0 119.72725282 0 -533.96793116 0 20955
0.13950000 0.13949800 10678.34932422 0 137.06168453 0 2672.50154305 0 51.53003376 0 -570.79625062 0 20506
0.14050000 0.14048300 10561.53683796 0 80.31523902 0 2269.31435159 0 281.37368450 0 -140.88925659 0 21447
0.14150000 0.14148400 10518.92445929 0 -52.45404138 0 2117.07658228 0 241.16254996 0 -250.55568466 0 21771
0.14250000 0.14249400 10633.41888538 0 -52.53977633 0 1984.39259319 0 611.98230137 0 -60.91828833 0 22470
0.14350000 0.14350900 10503.79606665 0 99.40074891 0 1901.90736148 0 -101.01496171 0 -69.31709722 0 22519
0.14450000 0.14449900 10454.41805783 0 302.08871304 0 2341.50695253 0 -640.19276081 0 360.35964357 0 22218
0.14550000 0.14550500 10013.59843513 0 266.26303778 0 2547.08228796 0 -466.48908892 0 55.17404651 0 23559
0.14650000 0.14650700 9991.02784934 0 107.83748969 0 3161.14640700 0 -231.03074155 0 -155.09707988 0 23044
0.14750000 0.14750500 9934.83984560 0 -10.23408034 0 3151.41942728 0 368.58154786 0 70.23212096 0 23649
0.14850000 0.14849900 9961.36998870 0 33.27525452 0 3353.72285961 0 72.57225261 0 -28.96954096 0 23640
0.14950000 0.14949500 9922.02951312 0 -39.05931373 0 2782.78131431 0 230.75678899 0 89.85011921 0 24457
0.15050000 0.15050000 9975.12307291 0 32.42977258 0 2687.28610858 0 237.90173806 0 -128.93294628 0 24591
0.15150000 0.15149900 9825.54719087 0 105.36470733 0 2857.74671448 0 -84.78177494 0 188.86755635 0 25020
0.15250000 0.15250500 9796.54371085 0 132.24477769 0 2888.48042123 0 -151.25619838 0 -220.40093840 0 25297
0.15350000 0.15350100 9685.87574770 0 28.50737078 0 2662.14236510 0 197.45547015 0 -122.42795927 0 25452
0.15450000 0.15450400 9698.44207384 0 -44.72791358 0 2473.19273389 0 241.22133331 0 -298.21455795 0 26061
0.15550000 0.15549900 9675.96021763 0 57.74077131 0 2213.92491403 0 151.14417729 0 -239.04745871 0 26128
0.15650000 0.15649500 9656.14024868 0 88.05134889 0 2126.82574440 0 215.59290452 0 149.58808236 0 26331
0.15750000 0.15749700 9489.81665925 0 37.06190007 0 2352.26541357 0 66.44636271 0 -236.25358619 0 27345
0.15850000 0.15849900 9475.65320074 0 145.78934741 0 2052.42599527 0 -175.35626023 0 143.54116178 0 26980
0.15950000 0.15949700 9293.00336940 0 130.79072177 0 2282.25777843 0 -5.18532312 0 74.84616981 0 27777
0.16050000 0.16050000 9189.69996103 0 149.27863797 0 2589.86103459 0 -217.89876436 0 622.81729167 0 28224
0.16150000 0.16150500 9076.60302574 0 69.44165136 0 2681.47432138 0 242.31714357 0 84.83135259 0 28075
0.16250000 0.16249700 9076.72502891 0 6.48253843 0 2561.25683766 0 135.60651949 0 360.34633413 0 28590
0.16350000 0.16349900 8985.68848436 0 81.37544654 0 2669.60674065 0 -18.39685747 0 649.57480431 0 29163
0.16450000 0.16449100 8860.85706271 0 177.70981222 0 3036.61444767 0 -296.35678246 0 89.74885659 0 28996
0.16550000 0.16550500 8656.87885963 0 145.89249554 0 2696.22561333 0 -270.14384759 0 179.72508271 0 30777
0.16650000 0.16650700 8656.44630295 0 -2.40154360 0 3066.44976746 0 210.80816216 0 -119.99787802 0 29211
0.16750000 0.16749900 8672.37326177 0 31.56299554 0 2495.43058377 0 286.85384491 0 -17.71940716 0 30922
0.16850000 0.16850800 8470.32492696 0 121.61830190 0 2842.35213312 0 -147.49406438 0 -165.86441388 0 30867
0.16950000 0.16949900 8377.32524055 0 151.25398014 0 2472.08361420 0 115.57027220 0 124.71718232 0 30852
0.17050000 0.17049200 8248.76717673 0 41.10896693 0 2602.73791425 0 266.32736672 0 45.24598339 0 31257
0.17150000 0.17149500 8248.73390314 0 -30.41206203 0 2254.56305965 0 416.74063413 0 268.32932777 0 32608
0.17250000 0.17250900 8267.72203231 0 19.22204252 0 2019.13022203 0 418.51522564 0 507.24701947 0 32361
0.17350000 0.17350400 8006.15833468 0 129.52743444 0 1782.17789043 0 -60.70156634 0 435.93616869 0 32508
0.17450000 0.17449800 8064.19856831 0 136.67571087 0 1763.76650349 0 204.81115197 0 998.55931628 0 32791
0.17550000 0.17549800 7803.63307841 0 58.77280719 0 1869.16614809 0 152.89658641 0 683.23436881 0 33633
0.17650000 0.17650100 7668.54229958 0 120.46592653 0 1592.09695713 0 60.82279312 0 1061.04379253 0 33984
0.17750000 0.17750300 7572.66999316 0 140.47888231 0 1853.71611074 0 -71.41111520 0 624.01070446 0 34069
0.17850000 0.17849800 7495.57508317 0 73.61937251 0 1636.80557203 0 -44.66103366 0 1029.52926552 0 34536
