### header ###
fiducial parameters:
Omega_m = 0.31
Omega_nu = 0
Omega_de = 0.69
Omega_k = 0
H_0 = 100
w_de = -1
zeff = 0
beta = 0
fgrowth = 0
b_1 = 2
gamma = 0.55
Lx = 3500 Ly = 3500 Lz = 3500
nx = 700 ny = 700 nz = 700
xoffset = 1379.75464 yoffset = 22.6059522 zoffset = 368.141391
bins = 400 dk = 0.001
kx_ny = 0.628318531 ky_ny = 0.628318531 kz_ny = 0.628318531
############################
A(data) = 3.30816119 (not used)
A(ran) = 3.29901616 (used)
Ngal = 185498
weighted Ngal = 0
Nran = 9399747
weighted Nran = 0
SN(data) = 6722.28263
SN(ran) = 131.219631
SN(data+ran) = 6853.50226
############################
13 columns: k_central k_mean P_0(k) sigma^{lin}_{P_0(k)} P^img_1(k) sigma^{lin}_{P_1(k)} P_2(k) sigma^{lin}_{P_2(k)} P^img_3(k) sigma^{lin}_{P_3(k)} P_4(k) sigma^{lin}_{P_4(k)} N_modes
### header ###
0.00050000 0 0 0 0 0 0 0 0 0 0 0 0
0.00150000 0.00179520 18653.84049934 0 4148.12984103 0 718.43671880 0 23537.95998746 0 -85402.10558934 0 3
0.00250000 0.00253879 23422.38971526 0 -7280.00657928 0 19465.71611595 0 9035.78742097 0 11683.35595329 0 6
0.00350000 0.00331552 31823.97140354 0 -13359.45763610 0 -1116.42879361 0 38857.34303628 0 -15248.95394820 0 7
0.00450000 0.00420575 56885.52911577 0 -20419.00449365 0 763.82522407 0 13029.05087902 0 6286.23533272 0 24
0.00550000 0.00557378 84710.12581174 0 -12923.01903619 0 -13582.61251870 0 -2584.12688577 0 13398.27682542 0 45
0.00650000 0.00659388 102825.04505137 0 4755.51705950 0 9898.69363474 0 -4464.56168996 0 -8446.14611762 0 40
0.00750000 0.00754703 89959.25659143 0 8558.24484517 0 13494.10476706 0 -24449.21272872 0 -140.32915115 0 57
0.00850000 0.00846663 86118.15326432 0 13493.32838327 0 36670.38082203 0 -1466.58897246 0 30072.00593359 0 75
0.00950000 0.00948925 70544.89271735 0 9452.17313681 0 54203.12313384 0 9216.78466397 0 21430.29983139 0 112
0.01050000 0.01054430 60051.17854873 0 5578.71678820 0 44973.13994550 0 23117.93635903 0 5869.68324894 0 105
0.01150000 0.01145670 63871.98498542 0 -381.16672904 0 55372.02438021 0 18774.84545804 0 26171.89743872 0 144
0.01250000 0.01249090 66648.66614141 0 -7896.25566412 0 32162.69655833 0 27264.60216206 0 22507.36596703 0 169
0.01350000 0.01339930 65952.02806109 0 -2303.27559665 0 24661.49823831 0 7287.16040132 0 14100.79324012 0 180
0.01450000 0.01448870 78084.24475488 0 3983.91357901 0 31927.78500697 0 2468.47897519 0 24748.56413436 0 267
0.01550000 0.01550050 72630.48139150 0 1029.60357654 0 26262.29069385 0 -8150.67663092 0 12329.08543961 0 238
0.01650000 0.01653350 71903.45343154 0 2506.28886559 0 46925.63425627 0 2108.81364055 0 32985.21972401 0 315
0.01750000 0.01747870 69262.30670226 0 719.18981107 0 31366.12679351 0 14504.84554495 0 12471.16367252 0 297
0.01850000 0.01844180 66012.03143658 0 4431.32137271 0 50535.26430306 0 8910.57889863 0 23853.94818851 0 388
0.01950000 0.01947590 69814.98104619 0 -1712.80245352 0 34222.22091965 0 16099.20510625 0 29398.88119081 0 399
0.02050000 0.02045430 69485.23976092 0 -7606.38723188 0 35565.80851796 0 15158.89342898 0 32400.71364484 0 462
0.02150000 0.02154770 78257.04560333 0 -676.64619782 0 20550.76791339 0 3731.78848999 0 20031.81080818 0 571
0.02250000 0.02255340 83140.16688372 0 -232.89517176 0 20653.80513304 0 -3412.57275062 0 8571.83156143 0 510
0.02350000 0.02348930 73311.48088412 0 8732.23245170 0 32731.89678572 0 -19565.64780045 0 20561.52637443 0 555
0.02450000 0.02439640 65973.43407120 0 7868.70513090 0 27813.17276312 0 -8894.39684228 0 -12945.31234206 0 592
0.02550000 0.02547300 62705.41289041 0 1446.73572993 0 42769.87367174 0 5587.91139047 0 4496.07178049 0 837
0.02650000 0.02652900 59322.81964514 0 -2198.99616294 0 25497.10901639 0 14797.09858453 0 -18120.24301416 0 723
0.02750000 0.02749970 63475.25287059 0 -1377.89267047 0 34316.27426977 0 11389.88288204 0 10498.33919775 0 826
0.02850000 0.02848090 63854.79363015 0 947.02406966 0 9363.32155805 0 1906.37711385 0 -5030.75620297 0 831
0.02950000 0.02946900 62202.42710881 0 -1314.86139821 0 15751.60699390 0 6883.32992043 0 11491.25642214 0 996
0.03050000 0.03053250 62939.32623405 0 766.94074129 0 15655.66814029 0 1935.30295550 0 16024.56135079 0 1041
0.03150000 0.03150510 61554.92303097 0 1103.65395297 0 5677.47280583 0 6684.97495421 0 2724.27525041 0 1036
0.03250000 0.03246190 60131.47881464 0 2635.50131003 0 18141.64902427 0 2703.98945119 0 20103.12720456 0 1059
0.03350000 0.03345080 53564.15927765 0 3132.70857803 0 3858.79378624 0 -2735.74354805 0 11150.53485190 0 1302
0.03450000 0.03451200 54943.12779423 0 -30.95896895 0 14211.81612157 0 6425.06384492 0 27744.07460613 0 1339
0.03550000 0.03553350 51096.25704471 0 -255.24282449 0 11391.32473764 0 545.62145179 0 16992.26828452 0 1365
0.03650000 0.03647120 54326.56815588 0 1987.42048996 0 11081.23705336 0 2082.97115166 0 18860.24767454 0 1308
0.03750000 0.03744890 50658.26567722 0 871.61058513 0 13303.66891545 0 -1541.57655503 0 19192.09628723 0 1579
0.03850000 0.03847530 48908.18571076 0 1570.76858540 0 12962.61460930 0 -1576.30309268 0 18736.91356448 0 1662
0.03950000 0.03950240 49013.77390571 0 1157.97641738 0 22957.66856313 0 435.84522088 0 17177.82400947 0 1683
0.04050000 0.04050350 46528.79122946 0 1902.92775160 0 18704.97091727 0 -1957.59626136 0 13130.31350715 0 1822
0.04150000 0.04152450 44466.82680481 0 2233.11268475 0 20447.50886980 0 2764.65829850 0 18600.49184202 0 1887
0.04250000 0.04250150 42093.86521774 0 1543.89461519 0 25427.89994743 0 -315.84734285 0 18105.60263419 0 1920
0.04350000 0.04349210 42353.84287421 0 -756.46954226 0 17262.78257809 0 5772.24708375 0 16578.45572639 0 2005
0.04450000 0.04448520 41606.73984778 0 -115.34290266 0 24173.59648456 0 4394.70933158 0 17453.44025363 0 2151
0.04550000 0.04548030 41407.43103862 0 2378.69573589 0 16495.60448518 0 -5685.23664369 0 11875.67730837 0 2274
0.04650000 0.04648670 38762.95695025 0 1370.93848998 0 21221.34168088 0 328.96379236 0 13508.41241112 0 2311
0.04750000 0.04749250 37112.91958026 0 644.95642990 0 21928.40548633 0 747.52449192 0 9247.98420099 0 2568
0.04850000 0.04851840 36388.99715545 0 1191.12800506 0 22014.69499859 0 -177.39371311 0 9394.31036233 0 2493
0.04950000 0.04949480 34990.39722028 0 1312.48788206 0 23264.45107071 0 1333.31714993 0 4628.74467839 0 2644
0.05050000 0.05050630 34393.91264841 0 317.65742620 0 22475.31240785 0 1443.74110675 0 9538.15209555 0 2829
0.05150000 0.05149060 33430.30945755 0 509.35878337 0 22298.62964046 0 189.07607086 0 7517.55783552 0 2784
0.05250000 0.05249300 32578.72735586 0 799.42685716 0 24156.73786520 0 912.79996324 0 7079.54428564 0 3055
0.05350000 0.05348950 32627.75044637 0 294.45907866 0 24124.68430602 0 1725.62387719 0 8021.10926817 0 3009
0.05450000 0.05448610 31815.98574173 0 35.92294506 0 21815.82983731 0 1139.24338573 0 8919.85113928 0 3336
0.05550000 0.05550870 32300.33831246 0 276.14418514 0 22587.55532096 0 2504.53645647 0 6875.26662025 0 3349
0.05650000 0.05647670 33169.66632926 0 -1058.55603706 0 20357.00470271 0 2899.85998929 0 11287.06748633 0 3324
0.05750000 0.05747970 32816.63353040 0 -174.88710260 0 18004.11818211 0 3257.93928277 0 8257.16321282 0 3639
0.05850000 0.05849280 34568.15535246 0 -323.98828141 0 18621.23238031 0 2570.19634240 0 10920.44797120 0 3846
0.05950000 0.05951020 33585.80803876 0 -336.61671826 0 13571.07767388 0 1218.19052561 0 10242.07709226 0 3787
0.06050000 0.06049470 34732.63780321 0 598.10388663 0 16293.74470073 0 721.05756864 0 10309.11228662 0 3930
0.06150000 0.06148310 32529.03879353 0 581.80426359 0 12439.66467319 0 980.80674645 0 8955.73116140 0 4083
0.06250000 0.06249100 32917.89615854 0 -99.34107827 0 13826.95158747 0 1606.73733710 0 7244.71439059 0 4303
0.06350000 0.06350600 32868.42942015 0 -240.68008290 0 10967.31936951 0 1694.64616411 0 8945.47180423 0 4470
0.06450000 0.06451750 33209.81646222 0 -151.83848622 0 9382.03240730 0 2005.62114415 0 7128.06827229 0 4479
0.06550000 0.06550280 33786.78052746 0 -228.92230501 0 9518.07702907 0 179.60197042 0 8468.79434178 0 4636
0.06650000 0.06648880 32855.78545563 0 774.52268353 0 7356.58020301 0 -450.72406158 0 5292.41972137 0 4653
0.06750000 0.06749660 31259.09674296 0 1426.44993071 0 10389.71201484 0 -637.37116031 0 6107.86670340 0 5220
0.06850000 0.06852730 30115.15068972 0 992.01440096 0 9468.64356427 0 -570.44576880 0 7582.48570246 0 5029
0.06950000 0.06949320 29150.99293901 0 555.06006039 0 13116.67133491 0 799.32925462 0 6276.84108891 0 5040
0.07050000 0.07048030 28899.66641617 0 379.59510643 0 11539.39221690 0 203.22178344 0 7473.84742835 0 5475
0.07150000 0.07148790 27783.00470742 0 516.87306930 0 11488.92727079 0 814.18480381 0 6210.24954243 0 5509
0.07250000 0.07249820 28113.63328845 0 -96.89912943 0 11045.14629849 0 1440.49138604 0 8272.86834769 0 5916
0.07350000 0.07351270 27067.28976835 0 665.04369669 0 10872.65600355 0 -435.49030257 0 5901.78117291 0 5721
0.07450000 0.07449140 26927.31886286 0 537.05793863 0 10994.20443091 0 605.43184045 0 6158.74202380 0 6028
0.07550000 0.07549160 25830.84313256 0 242.65431595 0 9363.96484748 0 692.99794948 0 5817.79862961 0 6183
0.07650000 0.07648840 25818.08825607 0 158.81041262 0 9308.16503563 0 956.67230189 0 4665.78927619 0 6330
0.07750000 0.07749960 25283.93621105 0 177.78190500 0 7905.42808400 0 208.23167710 0 2435.58248504 0 6583
0.07850000 0.07848650 24934.34168324 0 53.20302991 0 7731.97285492 0 337.13245892 0 2328.64116407 0 6549
0.07950000 0.07947320 24569.33039167 0 -5.19820000 0 6028.71992198 0 1007.34687163 0 2541.85833420 0 6828
0.08050000 0.08048110 24577.09422954 0 581.25414023 0 6440.45842629 0 -800.16109439 0 -1114.97584681 0 7147
0.08150000 0.08149960 23916.72436324 0 559.18154918 0 6408.77087661 0 -594.62901463 0 -186.29883514 0 7386
0.08250000 0.08250610 22723.86613146 0 821.70685358 0 6545.04841351 0 -559.93685969 0 -1842.52509302 0 7227
0.08350000 0.08350160 21450.48580983 0 782.27099372 0 7400.15751582 0 -849.50582962 0 -760.36477062 0 7798
0.08450000 0.08449610 21330.81179476 0 294.89163534 0 6924.88863540 0 334.91532865 0 -987.18418469 0 7371
0.08550000 0.08548940 21046.87715289 0 -20.85655221 0 6923.82388049 0 826.05793015 0 -1725.21350290 0 8256
0.08650000 0.08650700 20497.30834410 0 84.35897852 0 7055.36547629 0 925.53265734 0 -1389.05041460 0 8037
0.08750000 0.08749060 20892.15495546 0 136.45832341 0 6317.27959298 0 1121.34219386 0 -913.93015621 0 8155
0.08850000 0.08849210 20161.02325263 0 85.55993332 0 6045.02398149 0 14.98132337 0 202.64060472 0 8718
0.08950000 0.08949900 20271.38066227 0 626.91770718 0 6414.43847825 0 -439.03283088 0 827.90461444 0 8571
0.09050000 0.09049190 19297.46265824 0 403.87595479 0 6598.50798280 0 611.99893817 0 1101.00981161 0 8932
0.09150000 0.09150830 19026.39380483 0 272.29775804 0 7011.56633955 0 -93.79714347 0 1892.79039759 0 9285
0.09250000 0.09250820 18545.92315303 0 389.37754214 0 6921.50582033 0 441.45625741 0 2265.21060872 0 9204
0.09350000 0.09350330 18630.77080969 0 193.81090283 0 7209.56638747 0 1149.60256368 0 4046.64538895 0 9349
0.09450000 0.09448040 18356.70733309 0 -274.21653511 0 6199.31362224 0 960.02406161 0 3465.55539844 0 9564
0.09550000 0.09549270 18511.98409037 0 -101.16413831 0 6161.01571918 0 890.80279233 0 5801.76075883 0 10155
0.09650000 0.09649430 18360.58925203 0 -91.69624895 0 5275.52782842 0 786.35809979 0 3528.57557950 0 9913
0.09750000 0.09749140 18533.50101245 0 249.58076845 0 5575.14542278 0 -493.43847927 0 5587.14609788 0 10476
0.09850000 0.09850240 18493.46179147 0 282.41625701 0 4913.02314737 0 -437.10739909 0 2992.48257501 0 10575
0.09950000 0.09950330 18175.25535102 0 118.93423223 0 5699.79938528 0 92.26744559 0 3893.49814149 0 10882
0.10050000 0.10051200 17610.38069045 0 218.07178704 0 5321.92230526 0 -32.60379346 0 1652.62161888 0 10875
0.10150000 0.10150300 17849.06324877 0 119.87587486 0 5341.86427737 0 -122.34921178 0 2353.59635720 0 11118
0.10250000 0.10250800 17226.73618801 0 -23.68136916 0 4386.46857225 0 871.23348444 0 896.92956953 0 11575
0.10350000 0.10349800 17480.39186222 0 113.15571862 0 3876.78370769 0 849.43595508 0 2333.00000447 0 11364
0.10450000 0.10450100 17007.68504828 0 136.52819795 0 3276.09557217 0 712.57058473 0 1976.87276166 0 12093
0.10550000 0.10551000 17038.29675186 0 298.55838505 0 3305.90870957 0 -32.15959102 0 2006.74135504 0 12067
0.10650000 0.10649700 16306.05592934 0 550.38512088 0 3603.56316207 0 -377.12176951 0 2180.08567214 0 12054
0.10750000 0.10749900 15599.21394783 0 508.96282764 0 4079.69715586 0 -793.14036672 0 2100.20687172 0 12807
0.10850000 0.10850100 15025.68815364 0 585.42332116 0 5263.93752761 0 -816.34536898 0 2262.90363976 0 12736
0.10950000 0.10950300 14670.10437948 0 268.18403309 0 5715.98144163 0 -117.54783262 0 1219.49928685 0 12933
0.11050000 0.11050200 14502.84912950 0 -11.27153981 0 5933.86800568 0 377.64749225 0 1758.37618178 0 13428
0.11150000 0.11150900 14499.29994647 0 77.64148417 0 5776.45064739 0 -3.42945355 0 2149.48505976 0 13453
0.11250000 0.11250000 14438.18745129 0 163.48424302 0 6035.13063381 0 61.45831871 0 1526.86962788 0 13668
0.11350000 0.11349100 14506.84196040 0 -5.96868327 0 5887.06315456 0 493.74126895 0 2702.44777481 0 13791
0.11450000 0.11448600 14470.35192244 0 -161.41018919 0 5685.50283242 0 304.87593083 0 1182.97597530 0 14205
0.11550000 0.11549300 14752.29014886 0 -169.92601020 0 5099.22216173 0 455.29252560 0 2308.71028315 0 14776
0.11650000 0.11649800 14702.26885062 0 159.12318438 0 4981.63329169 0 -115.26970076 0 1286.47902522 0 14553
0.11750000 0.11747300 14764.26864157 0 214.21981434 0 5155.28816231 0 53.06660818 0 1240.56146986 0 14568
0.11850000 0.11849100 14304.76035200 0 258.24521150 0 5334.07825711 0 -449.82345639 0 1032.02922131 0 16015
0.11950000 0.11950300 13517.95084049 0 600.33987193 0 5284.63370112 0 -236.20367581 0 817.25151977 0 15270
0.12050000 0.12050700 13443.52890897 0 15.03289743 0 5627.58460195 0 213.93033410 0 987.77867285 0 15999
0.12150000 0.12150000 13320.86027072 0 -30.45476314 0 5004.62534296 0 507.50877172 0 438.75666007 0 15670
0.12250000 0.12250700 13530.92754092 0 -62.15240581 0 5001.47544303 0 839.73781246 0 1208.65209624 0 16887
0.12350000 0.12352200 13226.14144879 0 36.97660877 0 4653.00112611 0 -139.28990599 0 562.57767368 0 16407
0.12450000 0.12449800 13435.87598308 0 100.32409105 0 3911.21078302 0 100.52062706 0 699.63603085 0 16306
0.12550000 0.12549900 13314.76011240 0 -143.98813702 0 4497.56909208 0 763.63223724 0 880.24064548 0 17523
0.12650000 0.12650100 13295.23960577 0 -2.18209318 0 3087.80032158 0 217.45400737 0 633.64229989 0 17154
0.12750000 0.12750600 13345.26090401 0 155.68269508 0 3674.84628485 0 244.68955059 0 687.20834467 0 18007
0.12850000 0.12850300 13049.01503352 0 189.39438821 0 2950.85731286 0 -127.05298840 0 428.84889384 0 17496
0.12950000 0.12949900 12622.89124677 0 428.63372462 0 3968.78518638 0 -410.17464554 0 1016.24422982 0 18405
0.13050000 0.13049000 12242.24136751 0 269.07909268 0 3315.75769246 0 -244.59971190 0 6.89503113 0 18100
0.13150000 0.13148800 12003.78063312 0 220.30000850 0 4336.82437471 0 419.74856674 0 1203.31723050 0 19059
0.13250000 0.13249300 11722.61879048 0 22.66929744 0 3399.37422625 0 95.73444284 0 -131.13787624 0 18957
0.13350000 0.13349100 11673.92843588 0 91.16864071 0 3912.61936503 0 -39.52281485 0 427.58671563 0 19468
0.13450000 0.13450700 11467.96490855 0 277.05477241 0 3670.76472438 0 -41.11650894 0 -95.40935986 0 19953
0.13550000 0.13551000 11145.10016539 0 127.71735110 0 3881.79692871 0 -294.74523154 0 676.26798800 0 19956
0.13650000 0.13649900 11015.99863291 0 17.06713386 0 3843.43247847 0 364.18943387 0 73.83509629 0 19723
0.13750000 0.13749600 11191.12863273 0 15.52113192 0 3742.44713025 0 90.18019323 0 -150.33673815 0 20946
0.13850000 0.13851100 11192.45957636 0 -134.68927750 0 3227.11684645 0 729.08315875 0 858.21131010 0 20955
0.13950000 0.13949800 11447.88984208 0 -109.45303344 0 3282.08481852 0 441.00817306 0 311.46521094 0 20506
0.14050000 0.14048300 11566.12200155 0 86.24536929 0 2586.24530439 0 -41.44491928 0 1117.59336929 0 21447
0.14150000 0.14148400 11118.25946878 0 225.91215416 0 3424.38487537 0 -268.37369256 0 757.20710685 0 21771
0.14250000 0.14249400 11033.94418958 0 260.30151942 0 3145.37472494 0 -87.86235490 0 1280.83360597 0 22470
0.14350000 0.14350900 10672.26025709 0 127.72400582 0 3405.94021484 0 207.19465019 0 1355.17789912 0 22519
0.14450000 0.14449900 10504.72772719 0 69.69929986 0 3564.16723051 0 529.40834009 0 1536.86279633 0 22218
0.14550000 0.14550500 10498.16173860 0 188.13775559 0 3134.39443996 0 178.26659031 0 1317.80056540 0 23559
0.14650000 0.14650700 10250.27348681 0 212.60604518 0 3242.48924542 0 -248.64578054 0 1228.63843314 0 23044
0.14750000 0.14750500 9870.86582160 0 148.22275602 0 2945.18971122 0 18.96040118 0 1714.18885314 0 23649
0.14850000 0.14849900 9794.50293061 0 89.58137951 0 3301.17276847 0 58.98376175 0 1200.62206965 0 23640
0.14950000 0.14949500 9807.19125992 0 -22.03144271 0 2901.84531355 0 107.10680163 0 562.20722771 0 24457
0.15050000 0.15050000 9661.02037534 0 53.38281821 0 2896.54372141 0 209.09789959 0 484.43242735 0 24591
0.15150000 0.15149900 9581.14157492 0 130.67537332 0 2416.57217347 0 -154.30627754 0 517.10043884 0 25020
0.15250000 0.15250500 9641.11167682 0 27.31628714 0 2574.98773948 0 77.82060700 0 152.66256215 0 25297
0.15350000 0.15350100 9430.56748515 0 140.71290656 0 2548.92342666 0 -118.37412679 0 -16.69435873 0 25452
0.15450000 0.15450400 9290.27493495 0 183.34524939 0 2700.18517064 0 -59.27257652 0 115.01127587 0 26061
0.15550000 0.15549900 9055.75157548 0 186.99425319 0 2871.23360997 0 -57.97047000 0 360.01470734 0 26128
0.15650000 0.15649500 9085.12106500 0 -35.04407861 0 2661.57671406 0 347.54931109 0 607.00789954 0 26331
0.15750000 0.15749700 9032.62642984 0 -139.17233931 0 2518.31172308 0 584.48611502 0 270.26363252 0 27345
0.15850000 0.15849900 9145.31299084 0 92.33920563 0 2630.51027141 0 -67.96940587 0 1039.14976975 0 26980
0.15950000 0.15949700 9115.46657985 0 39.60721886 0 2243.88223699 0 -14.29610922 0 715.57962647 0 27777
0.16050000 0.16050000 9041.74339374 0 80.67437198 0 2486.60199100 0 -2.14705609 0 1014.52842165 0 28224
0.16150000 0.16150500 8934.65788720 0 150.42879509 0 2496.48424748 0 -214.62797038 0 306.28673108 0 28075
0.16250000 0.16249700 8821.91587022 0 119.64961444 0 2588.25281103 0 103.65289199 0 687.55106266 0 28590
0.16350000 0.16349900 8632.53368233 0 140.06407154 0 2735.75463925 0 -151.29612669 0 860.19219788 0 29163
0.16450000 0.16449100 8708.31983108 0 18.58873517 0 2466.47146854 0 142.96109218 0 317.82823063 0 28996
0.16550000 0.16550500 8564.37827708 0 -16.55272415 0 2533.22938297 0 339.74665404 0 676.01621783 0 30777
0.16650000 0.16650700 8565.15466087 0 48.64177516 0 2234.31053402 0 -88.41857842 0 22.15333496 0 29211
0.16750000 0.16749900 8500.33770591 0 72.69059568 0 2296.65415207 0 -56.83306775 0 446.29534664 0 30922
0.16850000 0.16850800 8406.07362304 0 131.45730271 0 2394.47850915 0 -184.27358258 0 -215.35888026 0 30867
0.16950000 0.16949900 8171.61681075 0 209.80440883 0 2394.76688027 0 -284.51471147 0 -159.46368412 0 30852
0.17050000 0.17049200 7998.62741195 0 211.38046792 0 2779.96415028 0 -221.26050616 0 -361.93459353 0 31257
0.17150000 0.17149500 7713.17327610 0 58.72112221 0 2507.42016768 0 199.49735951 0 -526.64663205 0 32608
0.17250000 0.17250900 7804.83092768 0 29.86482237 0 2609.99155705 0 245.57130075 0 -187.78061905 0 32361
0.17350000 0.17350400 7809.08994730 0 -57.64494337 0 2081.70675521 0 349.92726372 0 -559.93242321 0 32508
0.17450000 0.17449800 7765.31299295 0 -121.75250538 0 1963.16404223 0 530.38325630 0 -137.78261233 0 32791
0.17550000 0.17549800 7834.75497704 0 -15.48419824 0 1685.25192030 0 225.29770185 0 190.21957326 0 33633
0.17650000 0.17650100 7950.15888129 0 -24.82975170 0 1208.03098921 0 288.42990400 0 363.38310385 0 33984
0.17750000 0.17750300 7933.03407320 0 15.38648479 0 1309.28252615 0 -13.86643625 0 217.43404321 0 34069
0.17850000 0.17849800 7943.09378883 0 127.96024831 0 1268.16745906 0 -290.55497733 0 200.50665843 0 34536
