### header ###
fiducial parameters:
Omega_m = 0.31
Omega_nu = 0
Omega_de = 0.69
Omega_k = 0
H_0 = 100
w_de = -1
zeff = 0
beta = 0
fgrowth = 0
b_1 = 2
gamma = 0.55
Lx = 3500 Ly = 3500 Lz = 3500
nx = 700 ny = 700 nz = 700
xoffset = 1379.75464 yoffset = 22.6059522 zoffset = 368.141391
bins = 400 dk = 0.001
kx_ny = 0.628318531 ky_ny = 0.628318531 kz_ny = 0.628318531
############################
A(data) = 3.38695694 (not used)
A(ran) = 3.38115811 (used)
Ngal = 189388
weighted Ngal = 0
Nran = 9399747
weighted Nran = 0
SN(data) = 6683.85338
SN(ran) = 134.486858
SN(data+ran) = 6818.34024
############################
13 columns: k_central k_mean P_0(k) sigma^{lin}_{P_0(k)} P^img_1(k) sigma^{lin}_{P_1(k)} P_2(k) sigma^{lin}_{P_2(k)} P^img_3(k) sigma^{lin}_{P_3(k)} P_4(k) sigma^{lin}_{P_4(k)} N_modes
### header ###
0.00050000 0 0 0 0 0 0 0 0 0 0 0 0
0.00150000 0.00179520 34075.26256009 0 -27709.91371953 0 -53130.16074107 0 46930.73620686 0 -38765.50792555 0 3
0.00250000 0.00253879 50610.90626625 0 -18408.17048693 0 6419.86207355 0 -69624.32337065 0 -1881.87665980 0 6
0.00350000 0.00331552 59530.89049989 0 -2427.05335459 0 -41244.50135545 0 -4865.63046281 0 18662.82436887 0 7
0.00450000 0.00420575 59961.33985345 0 4176.10183973 0 1568.19542771 0 -29095.42604230 0 -1331.42055526 0 24
0.00550000 0.00557378 53926.95232983 0 4538.67306797 0 11151.42214765 0 -9442.97853454 0 -5012.17844808 0 45
0.00650000 0.00659388 64941.95275502 0 -5576.74255514 0 35383.02559225 0 17043.95326230 0 8905.02220896 0 40
0.00750000 0.00754703 54992.15088474 0 711.15978448 0 15373.95173781 0 8216.70252635 0 -1397.18026196 0 57
0.00850000 0.00846663 62894.85053429 0 -1203.20631853 0 20719.46501897 0 7785.17732668 0 2192.05307365 0 75
0.00950000 0.00948925 58264.71945628 0 -1701.70016537 0 17355.94863246 0 -8747.11683800 0 -6935.35872531 0 112
0.01050000 0.01054430 66712.21869993 0 3340.72397679 0 30334.86730127 0 -14110.77531738 0 -14688.29394247 0 105
0.01150000 0.01145670 64743.64215359 0 2310.58469544 0 29208.77807511 0 -12957.84539461 0 -28141.80492869 0 144
0.01250000 0.01249090 62227.93686179 0 -1612.93731620 0 30712.18982145 0 13488.11552070 0 -6066.54090357 0 169
0.01350000 0.01339930 74861.25383369 0 -11028.06585519 0 23709.87354015 0 26338.26539294 0 21540.54632905 0 180
0.01450000 0.01448870 85921.06269455 0 -13953.05849677 0 -13199.52257611 0 37894.07258133 0 3711.84651787 0 267
0.01550000 0.01550050 104852.29402956 0 -3283.63758610 0 -12836.28587606 0 12530.05792832 0 5871.15837813 0 238
0.01650000 0.01653350 87535.60823430 0 11315.79368642 0 -17597.40399002 0 -19205.84937145 0 27082.59562014 0 315
0.01750000 0.01747870 80259.89394824 0 13873.09096678 0 787.22875875 0 -20122.98044710 0 29873.02986034 0 297
0.01850000 0.01844180 66578.01521685 0 7881.78165210 0 18555.23975847 0 -15499.06043939 0 27478.32952725 0 388
0.01950000 0.01947590 57758.73905150 0 3763.45385727 0 27504.50475205 0 870.80092776 0 1341.64663884 0 399
0.02050000 0.02045430 56417.03695668 0 1971.46025755 0 39161.68548054 0 2360.68363205 0 10732.09726463 0 462
0.02150000 0.02154770 63166.91759543 0 -4425.01048164 0 30439.67911243 0 10582.36610583 0 7772.10080548 0 571
0.02250000 0.02255340 63144.40246562 0 -3339.43739794 0 27660.89062902 0 -236.56857619 0 6867.54714717 0 510
0.02350000 0.02348930 64508.28695434 0 5135.80092927 0 26406.58716615 0 -599.98828099 0 4402.18479833 0 555
0.02450000 0.02439640 63050.90367535 0 2899.02814952 0 34415.76230640 0 -5078.34852908 0 8737.87787095 0 592
0.02550000 0.02547300 62742.23566428 0 -4008.28093871 0 31445.65067563 0 14851.55636155 0 16338.33131246 0 837
0.02650000 0.02652900 71064.95894226 0 -4056.22818312 0 26769.71295423 0 13695.52090363 0 18372.90048064 0 723
0.02750000 0.02749970 70117.77072288 0 -347.17553775 0 10001.47575686 0 8068.73486786 0 20132.74070041 0 826
0.02850000 0.02848090 73733.16819209 0 405.67605606 0 17262.67166612 0 1594.59247644 0 22453.90639774 0 831
0.02950000 0.02946900 68272.52828660 0 4277.79702455 0 19140.41130946 0 -3611.87046858 0 28987.06504812 0 996
0.03050000 0.03053250 63532.81618275 0 5597.17253992 0 25791.58029537 0 -2897.09828125 0 26036.14118807 0 1041
0.03150000 0.03150510 54457.44427986 0 4961.89096112 0 31689.10244864 0 -3231.96369952 0 22653.54794281 0 1036
0.03250000 0.03246190 54536.74633804 0 3645.75407526 0 37435.78432343 0 -2724.85199265 0 20435.53037710 0 1059
0.03350000 0.03345080 49384.66353166 0 370.32841138 0 35044.18952548 0 5504.58322780 0 17216.53228682 0 1302
0.03450000 0.03451200 48410.63461566 0 -169.71195010 0 30653.51738959 0 8334.93468582 0 23056.38021597 0 1339
0.03550000 0.03553350 49493.24634978 0 -482.24413419 0 27582.58677857 0 2703.97835999 0 14605.66452521 0 1365
0.03650000 0.03647120 49410.39510858 0 -144.19554240 0 25128.10489392 0 4921.50791303 0 13176.00923858 0 1308
0.03750000 0.03744890 49634.32637496 0 -40.30818251 0 21477.32650645 0 2120.55921812 0 9406.34431102 0 1579
0.03850000 0.03847530 48634.67679402 0 836.45259993 0 19193.42723087 0 -3124.67855143 0 5935.55386761 0 1662
0.03950000 0.03950240 48012.79338113 0 1968.87600866 0 22080.46579649 0 -2971.97495185 0 1126.25559411 0 1683
0.04050000 0.04050350 44927.88786195 0 1961.65563944 0 22902.98896217 0 -3148.31389213 0 -4406.55472992 0 1822
0.04150000 0.04152450 43806.78967443 0 771.65228176 0 22989.61121034 0 2132.31588689 0 -1537.56154174 0 1887
0.04250000 0.04250150 42904.18806678 0 -537.99070829 0 19677.22524175 0 4901.32193459 0 -2881.48187595 0 1920
0.04350000 0.04349210 45116.43821007 0 -1936.07933928 0 18266.64681388 0 8775.86522049 0 3398.58675127 0 2005
0.04450000 0.04448520 46602.65860113 0 -472.12674433 0 14192.07379101 0 3382.69306604 0 2503.03914488 0 2151
0.04550000 0.04548030 44124.55246699 0 2320.53349910 0 12520.96314682 0 10.72547582 0 4082.12612799 0 2274
0.04650000 0.04648670 41371.71738444 0 3015.78517980 0 17505.45796732 0 -4274.42530068 0 7498.70280071 0 2311
0.04750000 0.04749250 39120.42622789 0 1958.71647225 0 18979.03439386 0 -1870.75218926 0 7878.50974900 0 2568
0.04850000 0.04851840 36999.56754745 0 672.84746286 0 20649.92321411 0 3501.98998042 0 8598.10660700 0 2493
0.04950000 0.04949480 35743.60040504 0 432.52451651 0 17998.12893576 0 2240.61033389 0 3215.81491676 0 2644
0.05050000 0.05050630 35233.73808133 0 571.52605138 0 17493.47947461 0 3874.44346513 0 7618.02189748 0 2829
0.05150000 0.05149060 34354.53889924 0 783.93467326 0 17619.36455998 0 708.44909595 0 7613.25268279 0 2784
0.05250000 0.05249300 33748.07225011 0 -309.80818612 0 10988.39264371 0 2627.87056653 0 6454.42224325 0 3055
0.05350000 0.05348950 34623.50042524 0 -244.09617156 0 11870.90809368 0 831.03011374 0 4047.98742378 0 3009
0.05450000 0.05448610 33661.45000195 0 -243.59374033 0 8191.48114449 0 1455.91924100 0 3557.88961304 0 3336
0.05550000 0.05550870 34179.29798746 0 -240.72888416 0 9653.14562551 0 433.20329776 0 2548.11376928 0 3349
0.05650000 0.05647670 33813.51031211 0 643.33489690 0 7023.62247063 0 -1366.59074078 0 -670.55602157 0 3324
0.05750000 0.05747970 33147.48393537 0 367.69203387 0 8111.75762082 0 -594.69778005 0 -1437.50785407 0 3639
0.05850000 0.05849280 33071.95288415 0 391.73996709 0 8301.11762632 0 456.28851509 0 -2270.03527939 0 3846
0.05950000 0.05951020 31688.54788880 0 692.84821832 0 8853.22631921 0 -308.00253925 0 -81.71472625 0 3787
0.06050000 0.06049470 31610.13312637 0 839.92081721 0 10861.43171224 0 -1501.13805096 0 -3371.22476840 0 3930
0.06150000 0.06148310 31073.31919408 0 -50.81099146 0 9631.81725378 0 1505.79635368 0 1138.81082905 0 4083
0.06250000 0.06249100 30663.61037881 0 -573.88293073 0 9321.88484625 0 1716.78419322 0 -739.75954493 0 4303
0.06350000 0.06350600 31916.02833821 0 -482.74878365 0 7723.11098856 0 2624.22156274 0 2053.02491990 0 4470
0.06450000 0.06451750 31836.94810396 0 243.14343774 0 6961.66704448 0 233.80797727 0 149.33853043 0 4479
0.06550000 0.06550280 31054.57507124 0 1164.63113555 0 6775.76749243 0 -1516.64354429 0 944.39101951 0 4636
0.06650000 0.06648880 30338.74922020 0 1015.95474958 0 8019.61195658 0 -2184.22268860 0 -2347.66256683 0 4653
0.06750000 0.06749660 28099.21473241 0 912.69126951 0 10742.72263131 0 -1454.71030053 0 -363.41305009 0 5220
0.06850000 0.06852730 28652.77637210 0 -240.20759791 0 8837.21063081 0 1559.22264938 0 -733.05602550 0 5029
0.06950000 0.06949320 28884.80421226 0 -1303.72583648 0 7618.77609887 0 3857.56266338 0 -3880.28852593 0 5040
0.07050000 0.07048030 30221.84800436 0 -138.43699295 0 4697.62101143 0 661.80617630 0 -4498.06819594 0 5475
0.07150000 0.07148790 28910.86852508 0 1530.13043978 0 5515.39714482 0 -2127.15848031 0 -3145.29708656 0 5509
0.07250000 0.07249820 27244.30527164 0 1173.94774098 0 7346.08793070 0 -1987.88632023 0 -2454.02714557 0 5916
0.07350000 0.07351270 26488.44019962 0 432.87388921 0 8170.67405901 0 -233.21459823 0 -3322.65641696 0 5721
0.07450000 0.07449140 26524.59750167 0 -214.09781117 0 8837.29936039 0 1876.81907399 0 -3429.42027878 0 6028
0.07550000 0.07549160 26322.84862919 0 -217.91429204 0 6417.97657007 0 1277.06259901 0 -4233.08840965 0 6183
0.07650000 0.07648840 26195.74351216 0 94.70296153 0 6276.65253856 0 630.71311478 0 -2112.51810033 0 6330
0.07750000 0.07749960 26072.18757816 0 351.03860165 0 8090.24069875 0 -716.57339771 0 -683.06023701 0 6583
0.07850000 0.07848650 25931.21846494 0 432.20287180 0 6911.21318956 0 238.04592362 0 -2600.22021254 0 6549
0.07950000 0.07947320 25378.65503298 0 320.56331980 0 7998.62741195 0 -277.53169388 0 303.61707998 0 6828
0.08050000 0.08048110 24850.04858643 0 628.86975784 0 7328.39747157 0 -208.93264075 0 -3056.60078457 0 7147
0.08150000 0.08149960 24620.12807370 0 221.52114929 0 9014.11522214 0 70.35024221 0 664.97160391 0 7386
0.08250000 0.08250610 24437.12332405 0 13.43232680 0 8718.32409073 0 1126.12249974 0 673.41865951 0 7227
0.08350000 0.08350160 24573.10139863 0 -149.53706285 0 7207.69197518 0 1068.94294300 0 672.02560517 0 7798
0.08450000 0.08449610 24857.25786445 0 -52.25728354 0 6390.72549917 0 158.05953859 0 756.88657126 0 7371
0.08550000 0.08548940 23829.76937916 0 836.88626573 0 8236.66668086 0 -843.92584843 0 -802.32387780 0 8256
0.08650000 0.08650700 23190.58369904 0 567.65966013 0 6535.26597780 0 -90.13028285 0 662.02134552 0 8037
0.08750000 0.08749060 22295.08045744 0 361.57302051 0 8612.99099331 0 -76.21482351 0 -544.78073906 0 8155
0.08850000 0.08849210 22189.27043855 0 415.90324876 0 7514.28593242 0 59.07759328 0 -206.42713936 0 8718
0.08950000 0.08949900 21290.55074984 0 563.58697261 0 8065.35205279 0 -26.18509596 0 -852.76220504 0 8571
0.09050000 0.09049190 20710.48114945 0 507.02741377 0 7702.01553197 0 -262.01843670 0 -1178.56167892 0 8932
0.09150000 0.09150830 20239.10527915 0 358.29335357 0 8247.40295950 0 -149.67681194 0 -1077.00846142 0 9285
0.09250000 0.09250820 19590.38116965 0 248.08567510 0 7739.44832167 0 904.11666515 0 -2109.83403067 0 9204
0.09350000 0.09350330 19562.43135334 0 193.01788225 0 7894.53652859 0 -358.38430139 0 -412.97295453 0 9349
0.09450000 0.09448040 19133.64567932 0 334.99518527 0 7849.76136651 0 565.29279870 0 -1715.76380310 0 9564
0.09550000 0.09549270 18999.33128427 0 98.96697219 0 7597.04844405 0 986.54089527 0 -541.91699201 0 10155
0.09650000 0.09649430 18729.59337449 0 88.35835322 0 7689.77085054 0 -145.11278439 0 -1254.62510759 0 9913
0.09750000 0.09749140 18446.32420444 0 654.12330418 0 7130.36415006 0 338.18723175 0 899.58369296 0 10476
0.09850000 0.09850240 17868.47284343 0 22.47819612 0 7012.10980820 0 929.82384144 0 598.06395832 0 10575
0.09950000 0.09950330 17655.63277400 0 79.96974824 0 6682.33524933 0 333.61987684 0 1333.91607457 0 10882
0.10050000 0.10051200 17637.11047509 0 115.38283097 0 6315.51609267 0 727.79325255 0 447.57637989 0 10875
0.10150000 0.10150300 17380.01652983 0 142.00946749 0 5861.00993292 0 -38.38707629 0 1176.73163142 0 11118
0.10250000 0.10250800 17310.14198906 0 123.60917175 0 5831.93990572 0 135.93481892 0 1482.91521437 0 11575
0.10350000 0.10349800 17037.52036807 0 129.09155040 0 6168.48009472 0 -145.77381973 0 555.70224070 0 11364
0.10450000 0.10450100 16937.58868357 0 172.57458804 0 5538.27828413 0 142.02610428 0 324.56502365 0 12093
0.10550000 0.10551000 16857.95388948 0 -128.44937010 0 5692.21300657 0 462.03486423 0 381.52830206 0 12067
0.10650000 0.10649700 17078.33597284 0 145.09836584 0 5962.29474346 0 114.10068860 0 1381.85222778 0 12054
0.10750000 0.10749900 16679.49653058 0 423.77467124 0 5751.28472152 0 -429.58534932 0 -395.04070730 0 12807
0.10850000 0.10850100 15999.16250978 0 591.26394547 0 7413.92169124 0 -665.75686065 0 788.80038136 0 12736
0.10950000 0.10950300 15414.10187076 0 411.13625231 0 7492.61373358 0 -540.15681905 0 1178.47294934 0 12933
0.11050000 0.11050200 15545.64346657 0 76.97423776 0 8050.58966966 0 694.94667278 0 1270.23042169 0 13428
0.11150000 0.11150900 15356.98220648 0 -149.61802859 0 7361.57124164 0 1034.86967685 0 1897.33778834 0 13453
0.11250000 0.11250000 15446.82090176 0 -111.67060735 0 6559.06768645 0 944.73041013 0 1394.23000357 0 13668
0.11350000 0.11349100 15391.69765293 0 78.51580323 0 6602.03498343 0 58.51571324 0 2557.77420182 0 13791
0.11450000 0.11448600 15256.49596213 0 329.82003277 0 6186.24819223 0 -632.44445062 0 855.69804487 0 14205
0.11550000 0.11549300 14865.30944576 0 342.48396144 0 6376.67295264 0 -125.12312013 0 1111.72612611 0 14776
0.11650000 0.11649800 14721.23479741 0 -36.94311335 0 6869.98721050 0 -173.23673249 0 640.02639285 0 14553
0.11750000 0.11747300 14702.93432244 0 9.15470723 0 5087.98677922 0 845.10040619 0 -817.88815448 0 14568
0.11850000 0.11849100 14804.75151043 0 -78.24994724 0 6042.70592133 0 377.82716964 0 -272.09700737 0 16015
0.11950000 0.11950300 14296.66377823 0 16.95111994 0 4336.87983069 0 456.70443498 0 -733.66715045 0 15270
0.12050000 0.12050700 14969.89943299 0 19.74255239 0 4979.94742975 0 188.10004552 0 -321.47945266 0 15999
0.12150000 0.12150000 14420.33062420 0 54.54794845 0 4302.31966100 0 58.64037830 0 -1067.84824186 0 15670
0.12250000 0.12250700 14546.54844547 0 192.95466243 0 4273.73764647 0 310.39380131 0 -193.10883007 0 16887
0.12350000 0.12352200 14434.63826826 0 174.60982268 0 4566.21250999 0 -95.63573119 0 -337.63599926 0 16407
0.12450000 0.12449800 13814.08579901 0 155.67493125 0 4105.17363525 0 395.33240578 0 -129.77365901 0 16306
0.12550000 0.12549900 13730.90182190 0 345.29779811 0 4604.12222116 0 272.11586241 0 -203.43473442 0 17523
0.12650000 0.12650100 13151.27586939 0 286.22275580 0 3724.66794155 0 166.49883035 0 911.86275710 0 17154
0.12750000 0.12750600 12786.93004964 0 108.91810501 0 4026.91414958 0 482.40052007 0 641.14327639 0 18007
0.12850000 0.12850300 12965.05467262 0 -111.69278975 0 3137.04523603 0 715.74599442 0 816.38196993 0 17496
0.12950000 0.12949900 12764.52583180 0 49.93046133 0 2969.76780366 0 316.97531758 0 261.74892062 0 18405
0.13050000 0.13049000 12640.19351401 0 251.66591347 0 2225.38212048 0 -399.65908171 0 261.04352049 0 18100
0.13150000 0.13148800 12484.14037295 0 76.72679316 0 2567.96701182 0 -42.97716814 0 764.73248398 0 19059
0.13250000 0.13249300 12138.76049998 0 50.53249150 0 2668.35343539 0 35.90686282 0 -360.40511747 0 18957
0.13350000 0.13349100 12253.33256446 0 68.93600369 0 2506.04485925 0 28.47797911 0 -286.27488443 0 19468
0.13450000 0.13450700 12382.76683284 0 133.63561379 0 2967.10591639 0 -554.49330023 0 -1323.64562619 0 19953
0.13550000 0.13551000 11902.62891695 0 223.89466543 0 2933.83232555 0 -479.07759746 0 -839.93967225 0 19956
0.13650000 0.13649900 11775.63471190 0 161.29373162 0 3576.83337742 0 -108.94328202 0 -750.52466069 0 19723
0.13750000 0.13749600 11796.26433822 0 41.74781987 0 3099.78990548 0 81.83562030 0 -1248.82441158 0 20946
0.13850000 0.13851100 11737.81373030 0 79.93292546 0 3694.27806191 0 436.22453981 0 -753.20318475 0 20955
0.13950000 0.13949800 11646.20044351 0 163.07941433 0 3124.52327468 0 83.12874295 0 -919.85729186 0 20506
0.14050000 0.14048300 11316.45915824 0 274.40841282 0 3639.06608350 0 83.95803175 0 -136.97295495 0 21447
0.14150000 0.14148400 10940.77813521 0 189.91123799 0 3389.88016166 0 -58.19063026 0 -455.35352719 0 21771
0.14250000 0.14249400 10899.40797059 0 2.47732975 0 3553.85241735 0 616.75595254 0 506.69467786 0 22470
0.14350000 0.14350900 10765.53722343 0 -67.30138308 0 2855.61720467 0 284.95835935 0 -30.76110200 0 22519
0.14450000 0.14449900 11093.96974746 0 -59.95889979 0 2486.95690931 0 290.86996733 0 19.69574754 0 22218
0.14550000 0.14550500 10881.24058999 0 158.85366829 0 2427.08662818 0 -89.84435179 0 171.14826011 0 23559
0.14650000 0.14650700 10698.36893471 0 253.13438795 0 2499.35686749 0 -262.80702081 0 -165.79675758 0 23044
0.14750000 0.14750500 10476.86664046 0 219.76541281 0 3016.00700374 0 -362.46253451 0 -134.67042247 0 23649
0.14850000 0.14849900 10141.38011517 0 121.34213109 0 3116.50433928 0 -201.46826521 0 -428.87218535 0 23640
0.14950000 0.14949500 10332.49252978 0 1.02554309 0 3348.09962276 0 132.87586680 0 -214.18321339 0 24457
0.15050000 0.15050000 10147.77973581 0 35.51079618 0 3137.52215750 0 62.59394636 0 -592.04587486 0 24591
0.15150000 0.15149900 10179.11236719 0 200.05968319 0 3276.90522955 0 104.58732533 0 -154.91407513 0 25020
0.15250000 0.15250500 9805.87140748 0 238.70474072 0 3620.43287263 0 -311.50070277 0 -151.18632384 0 25297
0.15350000 0.15350100 9684.50043928 0 154.14767343 0 3503.30983285 0 280.60395543 0 106.45319740 0 25452
0.15450000 0.15450400 9557.55059901 0 33.05409606 0 3919.89519023 0 156.55335404 0 295.97968176 0 26061
0.15550000 0.15549900 9541.98964969 0 40.85575490 0 3326.15014400 0 46.48986113 0 174.17948423 0 26128
0.15650000 0.15649500 9338.03362901 0 124.18147751 0 3370.32638144 0 306.96329410 0 343.08399520 0 26331
0.15750000 0.15749700 9375.22241238 0 -22.60019929 0 3296.20391224 0 110.64855355 0 520.59527500 0 27345
0.15850000 0.15849900 9369.68790510 0 -149.65795690 0 2948.20651679 0 677.97935969 0 922.45041370 0 26980
0.15950000 0.15949700 9486.82203607 0 50.88153147 0 2572.39239940 0 373.72786325 0 500.78196077 0 27777
0.16050000 0.16050000 9442.50161307 0 194.33773469 0 2439.79713988 0 -51.55110703 0 1122.87277904 0 28224
0.16150000 0.16150500 9087.98259381 0 121.38427764 0 2436.46978080 0 -7.34952620 0 875.85851356 0 28075
0.16250000 0.16249700 9064.22524995 0 114.91700070 0 2464.54160027 0 -68.62888844 0 787.73229909 0 28590
0.16350000 0.16349900 8936.54339068 0 15.63570399 0 2272.51970751 0 309.00296522 0 899.54043729 0 29163
0.16450000 0.16449100 8966.62271681 0 -54.71354002 0 2104.90953923 0 232.46372420 0 680.65233816 0 28996
0.16550000 0.16550500 8892.01223494 0 140.56317540 0 2017.66618403 0 -32.21249603 0 497.22945039 0 30777
0.16650000 0.16650700 8694.50019968 0 246.69483900 0 1916.12627597 0 -254.09821296 0 220.51628684 0 29211
0.16750000 0.16749900 8411.78558947 0 208.02427172 0 2043.50867292 0 -163.37554929 0 530.50415035 0 30922
0.16850000 0.16850800 8171.11770689 0 136.07567712 0 2559.72625248 0 -147.44304487 0 148.36361422 0 30867
0.16950000 0.16949900 8054.90414527 0 106.76840921 0 2176.12611483 0 -34.68505657 0 -264.45406355 0 30852
0.17050000 0.17049200 8012.41376976 0 -45.55132404 0 1875.83195746 0 300.72227758 0 -268.09197615 0 31257
0.17150000 0.17149500 7971.29870267 0 4.74308383 0 1909.31628105 0 97.71300147 0 -346.12741964 0 32608
0.17250000 0.17250900 8033.69777670 0 78.06483516 0 1890.51670222 0 21.44416383 0 -154.70334239 0 32361
0.17350000 0.17350400 7963.78996234 0 28.66364575 0 1690.47587406 0 118.32088904 0 -413.21474262 0 32508
0.17450000 0.17449800 7833.75676932 0 48.15775533 0 1750.32397279 0 127.93030208 0 70.52969778 0 32791
0.17550000 0.17549800 7859.59925821 0 105.22140906 0 1594.12664617 0 57.84380853 0 -64.15137224 0 33633
0.17650000 0.17650100 7759.55666173 0 56.31311244 0 1828.83855599 0 37.11380688 0 446.32640199 0 33984
0.17750000 0.17750300 7759.67866490 0 16.37581956 0 1710.17383984 0 -7.63996029 0 354.54231077 0 34069
0.17850000 0.17849800 7794.29429058 0 -28.86561644 0 1850.51075483 0 143.69422030 0 357.32509208 0 34536
