### header ###
fiducial parameters:
Omega_m = 0.31
Omega_nu = 0
Omega_de = 0.69
Omega_k = 0
H_0 = 100
w_de = -1
zeff = 0
beta = 0
fgrowth = 0
b_1 = 2
gamma = 0.55
Lx = 3500 Ly = 3500 Lz = 3500
nx = 700 ny = 700 nz = 700
xoffset = 1379.75464 yoffset = 22.6059522 zoffset = 368.141391
bins = 400 dk = 0.001
kx_ny = 0.628318531 ky_ny = 0.628318531 kz_ny = 0.628318531
############################
A(data) = 3.32358012 (not used)
A(ran) = 3.32426503 (used)
Ngal = 186248
weighted Ngal = 0
Nran = 9399747
weighted Nran = 0
SN(data) = 6680.58422
SN(ran) = 132.223914
SN(data+ran) = 6812.80813
############################
13 columns: k_central k_mean P_0(k) sigma^{lin}_{P_0(k)} P^img_1(k) sigma^{lin}_{P_1(k)} P_2(k) sigma^{lin}_{P_2(k)} P^img_3(k) sigma^{lin}_{P_3(k)} P_4(k) sigma^{lin}_{P_4(k)} N_modes
### header ###
0.00050000 0 0 0 0 0 0 0 0 0 0 0 0
0.00150000 0.00179520 117920.49683381 0 -95417.90008147 0 -150255.77241666 0 168629.44928108 0 42431.48125285 0 3
0.00250000 0.00253879 189615.10302681 0 -75915.25027968 0 -35089.21978509 0 -205570.89895653 0 15156.34245369 0 6
0.00350000 0.00331552 218943.55511700 0 -12048.81089273 0 -120585.71146047 0 -84830.35438666 0 -35785.85786541 0 7
0.00450000 0.00420575 211746.47741730 0 33085.81688033 0 -41800.72488240 0 -142991.03841557 0 26043.23955412 0 24
0.00550000 0.00557378 117428.04768931 0 52330.81817701 0 35862.16530041 0 -65889.47371031 0 34073.04432070 0 45
0.00650000 0.00659388 90059.29918790 0 18164.16415407 0 61999.90185253 0 65845.10892251 0 -626.26998128 0 40
0.00750000 0.00754703 79370.37995299 0 -17490.26302750 0 26565.41310644 0 70656.69198259 0 -41737.50505980 0 57
0.00850000 0.00846663 83526.91692131 0 -4266.91656034 0 9187.73681917 0 25884.08087791 0 -2897.66393230 0 75
0.00950000 0.00948925 75169.92184476 0 15218.12042069 0 -5794.32965687 0 -13670.01115065 0 23102.18685936 0 112
0.01050000 0.01054430 63433.32814612 0 3995.58151820 0 16488.28429520 0 -6313.00948216 0 9919.27889628 0 105
0.01150000 0.01145670 58830.48141261 0 5034.24993001 0 16225.31201555 0 -5867.81992785 0 406.72861065 0 144
0.01250000 0.01249090 56240.24327732 0 3869.31933214 0 21258.16445475 0 -6153.97280912 0 -7326.23468816 0 169
0.01350000 0.01339930 56546.02757718 0 -1505.65216812 0 30093.85559158 0 -6282.59742012 0 -1988.79579838 0 180
0.01450000 0.01448870 56915.47534753 0 1553.55504773 0 27392.37275090 0 3210.61314539 0 -5364.35722478 0 267
0.01550000 0.01550050 53537.31858104 0 689.93677912 0 37634.09492486 0 9388.44311914 0 -19674.34153054 0 238
0.01650000 0.01653350 55389.21573548 0 -459.18442661 0 25967.26485503 0 1516.56590591 0 -2301.98901780 0 315
0.01750000 0.01747870 63849.13711971 0 -4240.86333871 0 26246.98484206 0 7557.87433643 0 -820.27165270 0 297
0.01850000 0.01844180 64356.44846812 0 -1998.25658937 0 23628.24233062 0 4060.91975943 0 -12073.10061405 0 388
0.01950000 0.01947590 66463.66497632 0 3722.67152610 0 23347.41322389 0 -9921.57477405 0 -22197.92157217 0 399
0.02050000 0.02045430 60858.17403868 0 2200.12746503 0 24500.23223468 0 -5813.73925153 0 -14611.21012368 0 462
0.02150000 0.02154770 61435.35992787 0 -752.58873244 0 22798.39897495 0 5991.52004741 0 -17263.55896188 0 571
0.02250000 0.02255340 63287.92255413 0 -1603.03287732 0 22219.32758228 0 4243.09266930 0 -21668.76056577 0 510
0.02350000 0.02348930 60964.76044136 0 1799.96817033 0 21714.89994508 0 3160.25911124 0 -15227.65885006 0 555
0.02450000 0.02439640 58858.76396483 0 1503.20101359 0 17613.81896150 0 1139.17683855 0 -11318.01192581 0 592
0.02550000 0.02547300 57162.58721554 0 404.90521787 0 15920.85865933 0 4711.66246677 0 -2451.50944386 0 837
0.02650000 0.02652900 59738.62861873 0 -1355.51063503 0 10575.02373345 0 5021.14013522 0 -5053.68170706 0 723
0.02750000 0.02749970 58972.78146946 0 761.46501736 0 11524.97366087 0 797.49366153 0 529.93849931 0 826
0.02850000 0.02848090 55860.59160578 0 2882.57990445 0 9595.18303026 0 -3361.06523199 0 -2925.87993734 0 831
0.02950000 0.02946900 52672.87069090 0 2055.93081350 0 14703.04523441 0 -2721.38044800 0 -132.78824634 0 996
0.03050000 0.03053250 53800.51268462 0 591.81517796 0 16774.54808843 0 1034.00678173 0 -1413.02958240 0 1041
0.03150000 0.03150510 50458.62413215 0 795.44844481 0 16216.66088194 0 1873.83554201 0 -8367.55389604 0 1036
0.03250000 0.03246190 50902.82656993 0 790.51840777 0 13712.82317087 0 1590.79928709 0 2816.27672909 0 1059
0.03350000 0.03345080 48491.60035339 0 1268.83293088 0 14917.88171930 0 376.77683329 0 -4587.26360180 0 1302
0.03450000 0.03451200 48221.64061967 0 1654.64021672 0 15156.45336565 0 2129.45435807 0 6575.91521462 0 1339
0.03550000 0.03553350 46602.54768916 0 1596.61107429 0 14771.25609564 0 1320.31826711 0 2906.25960993 0 1365
0.03650000 0.03647120 43325.87537475 0 -168.08708975 0 11738.36829015 0 2963.67873653 0 7884.73191049 0 1308
0.03750000 0.03744890 43843.50153632 0 582.63499425 0 14126.85755295 0 5732.65151064 0 13967.80978871 0 1579
0.03850000 0.03847530 44048.35594396 0 -1254.83584033 0 7088.04014250 0 5493.31457170 0 8957.92721840 0 1662
0.03950000 0.03950240 45732.55420055 0 -1372.10306566 0 6615.30005498 0 3315.23640620 0 16173.40521384 0 1683
0.04050000 0.04050350 44113.57218201 0 476.86268543 0 3461.48492916 0 -1520.86929033 0 4856.89059961 0 1822
0.04150000 0.04152450 45963.14018510 0 1559.75502683 0 8865.70391577 0 -1616.48649922 0 17786.95254586 0 1887
0.04250000 0.04250150 42212.54102509 0 1196.04140531 0 5936.68516970 0 -3204.89008776 0 2610.13574261 0 1920
0.04350000 0.04349210 41514.46108917 0 1436.54291993 0 13505.30687597 0 -3711.77997069 0 11008.24588625 0 2005
0.04450000 0.04448520 40053.41771518 0 515.16613409 0 11444.34065905 0 2239.37921103 0 -616.88461042 0 2151
0.04550000 0.04548030 41254.81616861 0 -453.74086715 0 14291.89456354 0 547.93840283 0 8715.95057458 0 2274
0.04650000 0.04648670 42052.05140525 0 -201.10336483 0 12047.81268501 0 1299.72191438 0 5050.83126945 0 2311
0.04750000 0.04749250 42060.59162690 0 199.11914969 0 13818.07862991 0 -925.60696836 0 1862.14542042 0 2568
0.04850000 0.04851840 41212.11506036 0 1203.45032487 0 15531.00308660 0 -3630.08221397 0 1895.92920633 0 2493
0.04950000 0.04949480 39961.91534035 0 1310.52474021 0 15304.85358082 0 -1873.63590046 0 -106.69343272 0 2644
0.05050000 0.05050630 38517.95240967 0 1006.70358220 0 19713.04980789 0 -723.05398409 0 2941.05269476 0 2829
0.05150000 0.05149060 38711.05014853 0 219.32841965 0 18812.22279176 0 2156.40596666 0 -2486.72399417 0 2784
0.05250000 0.05249300 36914.94171474 0 1054.68520932 0 21185.62802671 0 1429.59983064 0 -1979.39046336 0 3055
0.05350000 0.05348950 36250.02445769 0 1383.31626578 0 18406.61771936 0 -2253.98631741 0 -3224.31077362 0 3009
0.05450000 0.05448610 33734.31916590 0 1517.02064499 0 20416.00987047 0 -304.50215750 0 787.90310353 0 3336
0.05550000 0.05550870 33006.62573412 0 135.64533868 0 21184.40799504 0 1349.27738234 0 -1951.38519107 0 3349
0.05650000 0.05647670 33674.42670238 0 -627.37799185 0 18873.00255103 0 2800.13903753 0 -2084.95647592 0 3324
0.05750000 0.05747970 33819.49955846 0 70.42410958 0 15819.70694316 0 2564.85038547 0 -4206.18116586 0 3639
0.05850000 0.05849280 33953.70304153 0 122.61761874 0 13861.66703392 0 146.43374595 0 -4379.15947346 0 3846
0.05950000 0.05951020 32384.96414518 0 1184.18491577 0 16623.59689797 0 -1756.14685119 0 -2277.89893803 0 3787
0.06050000 0.06049470 31808.55463978 0 1200.65534324 0 17335.76265401 0 -210.61628445 0 -3801.59648358 0 3930
0.06150000 0.06148310 30182.47425520 0 387.31679775 0 17004.80133708 0 -287.38400413 0 -4918.64638422 0 4083
0.06250000 0.06249100 30559.90768735 0 -9.42452278 0 16964.20755625 0 2094.97182676 0 -4424.83302249 0 4303
0.06350000 0.06350600 30042.17061380 0 -259.96434703 0 16962.98752458 0 1415.71365206 0 -1355.52172622 0 4470
0.06450000 0.06451750 31854.13945923 0 -148.14622676 0 15892.24337120 0 1485.22218334 0 -1785.12814882 0 4479
0.06550000 0.06550280 31194.87871263 0 1.37023974 0 15649.90071788 0 1020.14722202 0 -1405.15483257 0 4636
0.06650000 0.06648880 30165.17198796 0 799.83279496 0 14656.46220723 0 -427.32052690 0 -1347.15896373 0 4653
0.06750000 0.06749660 29805.26264699 0 925.81548286 0 16784.41925371 0 232.72547644 0 2427.89628556 0 5220
0.06850000 0.06852730 29504.91303363 0 -257.36235223 0 14058.53577975 0 3782.77472236 0 2186.51856637 0 5029
0.06950000 0.06949320 29045.07200816 0 -497.44905609 0 14391.49351214 0 3683.13140897 0 7311.03974834 0 5040
0.07050000 0.07048030 30592.62671834 0 -606.96797123 0 10255.87454126 0 3629.94911961 0 6780.55888951 0 5475
0.07150000 0.07148790 30257.45074657 0 56.62022768 0 10505.58174936 0 534.32284946 0 7262.12756980 0 5509
0.07250000 0.07249820 29506.35488923 0 817.95026518 0 7511.97896346 0 -1006.41632020 0 6846.38514340 0 5916
0.07350000 0.07351270 29058.49235647 0 410.67374940 0 9884.95164172 0 -168.72261534 0 7338.34627523 0 5721
0.07450000 0.07449140 28079.02875397 0 350.18457949 0 8320.05029951 0 -151.34381884 0 4304.00552294 0 6028
0.07550000 0.07549160 27364.09019869 0 983.68713030 0 9635.03370089 0 -366.19804964 0 4029.63149283 0 6183
0.07650000 0.07648840 26379.19190968 0 1069.92895041 0 9505.64379729 0 -1537.99409842 0 120.34835985 0 6330
0.07750000 0.07749960 25315.98977023 0 885.02982432 0 11956.75395806 0 -698.46258222 0 3272.34674760 0 6583
0.07850000 0.07848650 23935.80122199 0 -24.99057405 0 9281.13578867 0 1419.25174389 0 14.96257924 0 6549
0.07950000 0.07947320 25018.30204414 0 -305.74104419 0 11391.65747355 0 1203.52796325 0 3509.65399751 0 6828
0.08050000 0.08048110 24541.26966339 0 55.45609565 0 7850.54884150 0 1745.75439965 0 520.29026708 0 7147
0.08150000 0.08149960 24403.96064517 0 169.49345352 0 8486.68444246 0 1157.85441421 0 3826.69586227 0 7386
0.08250000 0.08250610 23757.45477506 0 300.79880683 0 6969.25342319 0 -571.00698337 0 1443.09781733 0 7227
0.08350000 0.08350160 24173.48557259 0 153.34688901 0 7855.70624808 0 796.44997989 0 1795.88660986 0 7798
0.08450000 0.08449610 23348.52234358 0 369.36347725 0 7253.33225062 0 -1164.24294365 0 901.57456281 0 7371
0.08550000 0.08548940 22592.54635959 0 742.73420395 0 7237.32765343 0 -1063.38403509 0 -1552.97830549 0 8256
0.08650000 0.08650700 22103.86822205 0 652.95761938 0 7817.80762811 0 -860.35191111 0 -762.42773326 0 8037
0.08750000 0.08749060 21127.84289061 0 423.60719416 0 8366.62223550 0 -218.80158780 0 -3122.56013282 0 8155
0.08850000 0.08849210 20854.22306190 0 319.75920802 0 7956.31449560 0 635.42798260 0 -3343.58550560 0 8718
0.08950000 0.08949900 19973.80384815 0 469.17537682 0 7476.38731245 0 -202.70049719 0 -4801.15733495 0 8571
0.09050000 0.09049190 19661.80847799 0 223.47652731 0 6918.57774433 0 1236.75718930 0 -2901.72331038 0 8932
0.09150000 0.09150830 18810.78093615 0 122.51336149 0 5701.27451448 0 1426.67175465 0 -3250.17544490 0 9285
0.09250000 0.09250820 19150.50429868 0 -95.09126433 0 4825.59124182 0 1493.15238915 0 -1686.72704949 0 9204
0.09350000 0.09350330 18418.59621207 0 282.73013789 0 3710.62648621 0 1281.78744891 0 -625.01556691 0 9349
0.09450000 0.09448040 18485.36521769 0 403.61974814 0 3742.66895419 0 -222.98629640 0 -467.89101622 0 9564
0.09550000 0.09549270 17454.88210923 0 263.68877097 0 4431.28809912 0 275.13266798 0 1368.50951785 0 10155
0.09650000 0.09649430 17063.80650484 0 446.46393283 0 4330.59112202 0 -181.86457460 0 1286.91158190 0 9913
0.09750000 0.09749140 17323.89507328 0 94.75043185 0 5487.94643237 0 326.98845019 0 3323.82099264 0 10476
0.09850000 0.09850240 17176.82580174 0 4.39825851 0 5426.56774846 0 226.56764390 0 1928.31550142 0 10575
0.09950000 0.09950330 17402.19892373 0 23.75867481 0 6129.82727336 0 -631.96752915 0 3411.31944536 0 10882
0.10050000 0.10051200 17176.38215386 0 147.43639015 0 6646.24449447 0 -408.40005403 0 2482.93080481 0 10875
0.10150000 0.10150300 17276.64657428 0 356.34795763 0 7732.10594929 0 -547.02226997 0 3111.64639502 0 11118
0.10250000 0.10250800 17013.11973479 0 266.51480795 0 8158.14100646 0 -199.97539010 0 3072.15064269 0 11575
0.10350000 0.10349800 16931.04487737 0 75.46195306 0 7999.52579891 0 121.67375788 0 1845.03170353 0 11364
0.10450000 0.10450100 16763.01324360 0 35.81835507 0 8400.55020696 0 351.76285681 0 1864.77403410 0 12093
0.10550000 0.10551000 16641.78646096 0 53.32547672 0 7619.33065872 0 85.71720649 0 1877.20726588 0 12067
0.10650000 0.10649700 16505.47565047 0 20.14294460 0 6975.19830475 0 724.55905952 0 1612.34948276 0 12054
0.10750000 0.10749900 16580.78487775 0 -26.68164885 0 6386.56630032 0 731.52322208 0 954.35645997 0 12807
0.10850000 0.10850100 16448.02325028 0 58.50928035 0 5380.00690367 0 768.15300912 0 723.70281911 0 12736
0.10950000 0.10950300 16209.22977998 0 168.67935967 0 5361.90607025 0 74.50323000 0 557.37812056 0 12933
0.11050000 0.11050200 15959.89967258 0 193.83752171 0 3964.67035231 0 22.34676544 0 174.05748107 0 13428
0.11150000 0.11150900 15567.93677243 0 81.78082979 0 4647.42225405 0 479.85398125 0 -407.87433129 0 13453
0.11250000 0.11250000 15641.13867229 0 171.24919000 0 3813.09805481 0 -513.42370705 0 -1055.05232794 0 13668
0.11350000 0.11349100 15185.73412560 0 278.99795011 0 4470.28474759 0 88.89949272 0 -864.59429394 0 13791
0.11450000 0.11448600 14793.99304939 0 335.12717051 0 3973.35475952 0 -386.44170231 0 -1549.87277035 0 14205
0.11550000 0.11549300 14622.41223260 0 352.78435605 0 5220.16057326 0 -187.29038815 0 -1075.29708973 0 14776
0.11650000 0.11649800 14160.90752758 0 98.50934941 0 4352.70696874 0 221.69860844 0 -1227.15221275 0 14553
0.11750000 0.11747300 14134.51047885 0 -53.76679545 0 5083.53920925 0 356.36237619 0 -702.35670146 0 14568
0.11850000 0.11849100 14305.98038366 0 -9.57008365 0 4281.83422024 0 438.87422676 0 -485.36076053 0 16015
0.11950000 0.11950300 14039.90256888 0 69.87309892 0 4588.62781902 0 280.60284631 0 -490.08228307 0 15270
0.12050000 0.12050700 14322.39535515 0 52.16167742 0 4221.71993278 0 -170.89316258 0 -108.28646134 0 15999
0.12150000 0.12150000 14014.83646377 0 211.47141573 0 4247.00786182 0 98.95488279 0 -902.59273469 0 15670
0.12250000 0.12250700 13843.03382305 0 275.75821148 0 4328.97180727 0 162.24868368 0 368.32645033 0 16887
0.12350000 0.12352200 13507.52511536 0 -69.82163576 0 3888.07454618 0 514.96427431 0 440.28502701 0 16407
0.12450000 0.12449800 13530.92754092 0 -1.78414103 0 3924.69767851 0 1132.81049150 0 1162.83436164 0 16306
0.12550000 0.12549900 13727.13081494 0 128.53255407 0 3311.17702812 0 309.51759676 0 405.92228063 0 17523
0.12650000 0.12650100 13074.30296256 0 121.23121912 0 2970.28908992 0 -332.46417412 0 1774.65805890 0 17154
0.12750000 0.12750600 13134.63907396 0 225.17902604 0 3632.34481815 0 -5.57072004 0 1644.69141306 0 18007
0.12850000 0.12850300 13006.75757315 0 147.21012973 0 3252.83733217 0 -115.94071818 0 1450.44018971 0 17496
0.12950000 0.12949900 12615.57105679 0 318.50923012 0 3903.74640747 0 -394.99190604 0 672.24964735 0 18405
0.13050000 0.13049000 12430.34806775 0 160.34432516 0 3595.17821718 0 -25.71704745 0 778.31920024 0 18100
0.13150000 0.13148800 12377.99761816 0 -10.43570721 0 4184.06531914 0 53.19271509 0 754.98664922 0 19059
0.13250000 0.13249300 12278.17684562 0 108.36332334 0 3750.22205931 0 -170.74454054 0 -129.41984983 0 18957
0.13350000 0.13349100 12222.60994891 0 67.27631698 0 3931.84040934 0 124.99557137 0 -122.32702938 0 19468
0.13450000 0.13450700 11965.40509168 0 34.97586775 0 3771.84989336 0 38.25431466 0 -360.29753286 0 19953
0.13550000 0.13551000 12121.79096865 0 137.12823171 0 3261.15572988 0 274.47496000 0 -303.77790233 0 19956
0.13650000 0.13649900 11923.03671934 0 91.38392084 0 3866.02524665 0 -40.03700274 0 -540.72912482 0 19723
0.13750000 0.13749600 11679.25221042 0 216.15190085 0 3279.34529288 0 -237.26621248 0 -838.04418669 0 20946
0.13850000 0.13851100 11454.21182434 0 241.60508872 0 4154.25218174 0 -120.38496080 0 -494.19822626 0 20955
0.13950000 0.13949800 11267.32515576 0 230.69800564 0 3625.17990492 0 -103.17486140 0 -599.25071639 0 20506
0.14050000 0.14048300 11040.92055246 0 66.80405381 0 4469.12017191 0 216.22621186 0 -63.85213174 0 21447
0.14150000 0.14148400 11055.61638841 0 -20.22501946 0 3581.49168014 0 514.77905132 0 97.39202223 0 21771
0.14250000 0.14249400 10982.19266462 0 15.84055839 0 3771.43951908 0 807.00325379 0 500.70321327 0 22470
0.14350000 0.14350900 11077.02239852 0 -19.38397399 0 3167.13565335 0 234.74961989 0 593.24150589 0 22519
0.14450000 0.14449900 10830.87546465 0 142.27121973 0 2861.89482214 0 130.82399536 0 1095.24349832 0 22218
0.14550000 0.14550500 10866.28965651 0 77.76015998 0 2903.20953077 0 -260.62760061 0 796.29913962 0 23559
0.14650000 0.14650700 10549.62489244 0 58.21935646 0 3035.88242867 0 -203.58890206 0 204.19337230 0 23044
0.14750000 0.14750500 10660.33722037 0 209.27314050 0 2966.60681253 0 -300.28306618 0 -251.33428668 0 23649
0.14850000 0.14849900 10469.80154800 0 86.59673841 0 3015.41917030 0 -378.59578959 0 -784.54136173 0 23640
0.14950000 0.14949500 10371.75536698 0 47.77289079 0 3329.43313830 0 89.74198004 0 -997.09638741 0 24457
0.15050000 0.15050000 10248.96472557 0 55.78084590 0 3043.38007780 0 -58.47112663 0 -1065.87400880 0 24591
0.15150000 0.15149900 10156.53069020 0 111.83142971 0 3287.00930997 0 53.13981008 0 -1300.16556226 0 25020
0.15250000 0.15250500 10187.34203532 0 46.56894136 0 3087.61177123 0 28.84886873 0 -1227.08566556 0 25297
0.15350000 0.15350100 10113.03101577 0 90.59467126 0 3430.39630412 0 6.46229699 0 -1284.36060660 0 25452
0.15450000 0.15450400 9992.65825529 0 200.16283132 0 3600.61290368 0 -136.68902031 0 -668.99327192 0 26061
0.15550000 0.15549900 9791.79667856 0 189.02283311 0 3542.97195314 0 168.46086309 0 -524.02134573 0 26128
0.15650000 0.15649500 9609.50176552 0 -16.45068514 0 3591.08556550 0 408.48878360 0 -333.65204131 0 26331
0.15750000 0.15749700 9560.60067817 0 152.96978831 0 3423.41994124 0 273.43904220 0 -168.83685466 0 27345
0.15850000 0.15849900 9271.60845049 0 249.19812215 0 3192.26830564 0 171.00629279 0 342.33312117 0 26980
0.15950000 0.15949700 9051.44819107 0 74.37834312 0 3482.58038576 0 151.89505133 0 711.50139335 0 27777
0.16050000 0.16050000 8997.98862178 0 -19.59370853 0 2866.20929775 0 364.15948764 0 405.33999279 0 28224
0.16150000 0.16150500 8985.01192135 0 61.31246947 0 2500.56580796 0 3.96653367 0 -69.44852790 0 28075
0.16250000 0.16249700 8900.85191890 0 143.66649231 0 2558.04039055 0 -364.94363526 0 -488.02597516 0 28590
0.16350000 0.16349900 8497.33199153 0 235.61695149 0 2751.12703822 0 -290.67143490 0 -340.15481009 0 29163
0.16450000 0.16449100 8386.63075479 0 97.54851902 0 2632.48450446 0 145.16934950 0 -872.39584188 0 28996
0.16550000 0.16550500 8385.55490869 0 -47.88291546 0 2504.38117971 0 420.79446662 0 -881.87105143 0 30777
0.16650000 0.16650700 8366.00112847 0 30.35405507 0 2094.83873240 0 316.53721530 0 -1052.78195992 0 29211
0.16750000 0.16749900 8363.09523487 0 -6.53188316 0 1685.47374424 0 300.86091754 0 -195.33261505 0 30922
0.16850000 0.16850800 8216.51397600 0 77.86497179 0 1646.44382218 0 46.76115181 0 -490.28747022 0 30867
0.16950000 0.16949900 8286.92089423 0 96.58413944 0 1621.91009453 0 71.06506985 0 -151.79412143 0 30852
0.17050000 0.17049200 8119.09999320 0 64.61609339 0 1790.32992019 0 -104.82356783 0 -246.65269245 0 31257
0.17150000 0.17149500 8117.76904957 0 6.13563906 0 1815.86185556 0 105.52076047 0 14.11964827 0 32608
0.17250000 0.17250900 8159.80468600 0 -44.58428258 0 1796.47444329 0 181.79026358 0 25.88175173 0 32361
0.17350000 0.17350400 8180.65613627 0 91.10497724 0 1710.59530532 0 -106.69010536 0 -273.81392466 0 32508
0.17450000 0.17449800 8142.96824904 0 204.74793214 0 2219.24868857 0 -517.03056430 0 -174.24824966 0 32791
0.17550000 0.17549800 7913.84630248 0 133.19529327 0 2202.78935230 0 -313.04237915 0 -506.79449863 0 33633
0.17650000 0.17650100 7842.55208850 0 56.63886090 0 2647.94563301 0 66.55017631 0 -220.37764688 0 33984
0.17750000 0.17750300 7794.70466486 0 -47.60208636 0 2328.99608237 0 374.26578630 0 -387.72384468 0 34069
