### header ###
fiducial parameters:
Omega_m = 0.31
Omega_nu = 0
Omega_de = 0.69
Omega_k = 0
H_0 = 100
w_de = -1
zeff = 0
beta = 0
fgrowth = 0
b_1 = 2
gamma = 0.55
Lx = 3500 Ly = 3500 Lz = 3500
nx = 700 ny = 700 nz = 700
xoffset = 1379.75464 yoffset = 22.6059522 zoffset = 368.141391
bins = 400 dk = 0.001
kx_ny = 0.628318531 ky_ny = 0.628318531 kz_ny = 0.628318531
############################
A(data) = 3.33242042 (not used)
A(ran) = 3.32962382 (used)
Ngal = 186639
weighted Ngal = 0
Nran = 9399747
weighted Nran = 0
SN(data) = 6661.88415
SN(ran) = 132.437062
SN(data+ran) = 6794.32121
############################
13 columns: k_central k_mean P_0(k) sigma^{lin}_{P_0(k)} P^img_1(k) sigma^{lin}_{P_1(k)} P_2(k) sigma^{lin}_{P_2(k)} P^img_3(k) sigma^{lin}_{P_3(k)} P_4(k) sigma^{lin}_{P_4(k)} N_modes
### header ###
0.00050000 0 0 0 0 0 0 0 0 0 0 0 0
0.00150000 0.00179520 -2950.72421850 0 -6126.40009350 0 -10565.05274739 0 19003.43502715 0 12214.84611105 0 3
0.00250000 0.00253879 1416.60094782 0 -8055.66943786 0 -2213.93600523 0 -9912.12507425 0 -14750.51555735 0 6
0.00350000 0.00331552 19197.64188571 0 -27284.23358066 0 -51824.39412436 0 50415.03572815 0 48721.63177809 0 7
0.00450000 0.00420575 29290.96384450 0 -26157.70070663 0 -38945.62896399 0 7233.61210245 0 -6586.65149326 0 24
0.00550000 0.00557378 102829.03788227 0 -38578.95399288 0 -115680.07505027 0 2283.18943897 0 -7525.46585894 0 45
0.00650000 0.00659388 94055.23562441 0 -29141.56542161 0 -58602.22457942 0 -35370.93618758 0 -40927.51494667 0 40
0.00750000 0.00754703 140239.31245272 0 5521.33093519 0 -121855.65351104 0 -77886.71053723 0 9154.31904276 0 57
0.00850000 0.00846663 116429.83996397 0 9879.72768796 0 -66168.08457765 0 -52608.09810072 0 -41460.44696003 0 75
0.00950000 0.00948925 104427.94483433 0 13383.96918136 0 -41029.44304662 0 -43969.94118153 0 -39300.43635436 0 112
0.01050000 0.01054430 87175.14433349 0 15994.50420706 0 -3874.76510985 0 -48424.27678791 0 -55631.11474093 0 105
0.01150000 0.01145670 72291.97806064 0 8541.19767546 0 19305.11558414 0 -23132.68765097 0 -50620.55560760 0 144
0.01250000 0.01249090 66553.50367160 0 1518.29613264 0 20485.10802746 0 -3788.59760076 0 -53911.86830198 0 169
0.01350000 0.01339930 69076.86188929 0 2633.47162099 0 17318.01673889 0 -5799.96398492 0 -52000.30050796 0 180
0.01450000 0.01448870 66412.97820626 0 1486.49767099 0 28794.52186910 0 -7629.46801273 0 -46779.00863261 0 267
0.01550000 0.01550050 69603.58283236 0 3199.26685091 0 36108.83352054 0 4233.88697583 0 -45923.32278805 0 238
0.01650000 0.01653350 63056.11653791 0 -225.40306822 0 22750.59591610 0 7351.82207952 0 -21560.06683568 0 315
0.01750000 0.01747870 64217.36485839 0 -3227.02811687 0 25408.71217671 0 16545.84760736 0 -24754.55338071 0 297
0.01850000 0.01844180 71220.45752347 0 -6394.59632691 0 273.97918349 0 25443.53853513 0 4594.56160939 0 388
0.01950000 0.01947590 75164.59807023 0 -3789.81763242 0 -5713.38610154 0 9195.25665070 0 -6619.01560596 0 399
0.02050000 0.02045430 82861.99966426 0 -4124.53886512 0 -14752.73379674 0 -1435.99945128 0 6759.24160897 0 462
0.02150000 0.02154770 76295.12377516 0 2999.44784669 0 -12419.25687080 0 -11702.54372401 0 -6136.32671477 0 571
0.02250000 0.02255340 81809.66689782 0 5382.12532229 0 -8837.57664031 0 -14684.85567142 0 -14062.08496277 0 510
0.02350000 0.02348930 67819.12015536 0 4129.92918684 0 9029.62071547 0 -10711.02399043 0 -7269.18157106 0 555
0.02450000 0.02439640 65623.61771946 0 4414.00801427 0 7724.02046671 0 -2198.09777599 0 -19954.72698939 0 592
0.02550000 0.02547300 63181.55797540 0 579.25439742 0 10105.52227543 0 1496.87903133 0 -8088.92084631 0 837
0.02650000 0.02652900 62057.79790060 0 140.03190707 0 13408.59163858 0 4820.76657115 0 -17206.66112153 0 723
0.02750000 0.02749970 62294.59495545 0 1319.54188332 0 15278.23470815 0 915.06145830 0 -648.31706257 0 826
0.02850000 0.02848090 58991.85832821 0 831.46156130 0 13025.72351993 0 -1231.76615068 0 -11820.99770742 0 831
0.02950000 0.02946900 59465.45243790 0 101.40847738 0 9171.10002374 0 -256.37745394 0 -2716.06776467 0 996
0.03050000 0.03053250 57839.03931741 0 1058.04473288 0 12111.69797943 0 -790.65150213 0 -9726.42516374 0 1041
0.03150000 0.03150510 57262.29707610 0 1554.90817376 0 14603.00263794 0 -3331.44064494 0 -9289.12145047 0 1036
0.03250000 0.03246190 54523.43690171 0 1915.11697705 0 16942.35789826 0 -2790.26787225 0 -7531.18891657 0 1059
0.03350000 0.03345080 53149.57033573 0 1887.78826777 0 18215.96004382 0 -1296.32800811 0 -10462.75863794 0 1302
0.03450000 0.03451200 52530.12698617 0 -123.53707897 0 17869.47105116 0 3423.29793807 0 -5405.01755279 0 1339
0.03550000 0.03553350 53186.50402157 0 -1750.94507982 0 11605.93939859 0 8280.17744648 0 -3913.49556959 0 1365
0.03650000 0.03647120 52146.03883585 0 26.05588352 0 14169.00410135 0 2703.25743219 0 -559.19153126 0 1308
0.03750000 0.03744890 55060.13992203 0 1264.10808098 0 10578.01835663 0 586.90510507 0 707.74591406 0 1579
0.03850000 0.03847530 51609.89037538 0 1168.85688159 0 11650.08236244 0 -903.07076528 0 6059.77527343 0 1662
0.03950000 0.03950240 50016.86175770 0 1591.84185960 0 13357.12848474 0 -2253.96413501 0 -81.74944170 0 1683
0.04050000 0.04050350 47794.18588928 0 2807.52577470 0 15189.28330862 0 -4005.90742256 0 61.63644333 0 1822
0.04150000 0.04152450 43400.96277809 0 3400.13951884 0 19955.50337318 0 -2965.86370233 0 344.91737005 0 1887
0.04250000 0.04250150 42729.72353878 0 995.35617860 0 21456.25323225 0 2139.39207054 0 2337.62503360 0 1920
0.04350000 0.04349210 40953.80108343 0 -996.17581806 0 19238.45749048 0 6026.12458189 0 -183.74009600 0 2005
0.04450000 0.04448520 41947.68324196 0 -449.28220598 0 18101.60980329 0 3137.96580538 0 344.30957246 0 2151
0.04550000 0.04548030 42207.54998646 0 -70.94007206 0 12827.74565441 0 2009.66943103 0 4917.10470784 0 2274
0.04650000 0.04648670 42135.67903024 0 290.73687296 0 14008.62539348 0 1057.32491419 0 2283.58872206 0 2311
0.04750000 0.04749250 41219.21342640 0 699.94658437 0 14873.18419560 0 -1211.30289231 0 107.74088536 0 2568
0.04850000 0.04851840 40775.12190060 0 1788.93242937 0 13296.01598956 0 -328.24619192 0 1636.88321041 0 2493
0.04950000 0.04949480 37475.37989653 0 1146.71885248 0 16007.81364340 0 -123.68015541 0 1614.52335736 0 2644
0.05050000 0.05050630 38576.62484152 0 -549.50891632 0 14137.61601399 0 4007.17181901 0 5185.21221167 0 2829
0.05150000 0.05149060 38259.30569683 0 -957.06049378 0 11311.91176749 0 5513.76673887 0 4948.83662231 0 2784
0.05250000 0.05249300 39251.52417582 0 132.92688630 0 9483.16194108 0 1473.37678500 0 5673.35797176 0 3055
0.05350000 0.05348950 37573.64790149 0 889.55281444 0 9533.10560094 0 -1276.56349515 0 5480.89243112 0 3009
0.05450000 0.05448610 37106.37577407 0 870.54583023 0 10853.72333036 0 -246.51516161 0 9381.07856437 0 3336
0.05550000 0.05550870 36769.42521078 0 345.02717290 0 10075.89768839 0 707.74813230 0 4425.83123022 0 3349
0.05650000 0.05647670 35801.71827705 0 114.87818151 0 9646.04725946 0 496.89338712 0 6357.77355304 0 3324
0.05750000 0.05747970 36048.83014505 0 972.24766976 0 11533.62479449 0 -911.36587147 0 3803.11597756 0 3639
0.05850000 0.05849280 34606.53089391 0 833.01987447 0 13076.52120195 0 895.70731962 0 6597.50977507 0 3846
0.05950000 0.05951020 34045.87088817 0 768.01215092 0 10358.44593064 0 120.08882584 0 4200.05882514 0 3787
0.06050000 0.06049470 33168.00264972 0 263.33052530 0 12248.00878992 0 493.44735223 0 6195.65352725 0 3930
0.06150000 0.06148310 32404.37373984 0 746.70817982 0 12153.51179192 0 962.83457091 0 5637.75522955 0 4083
0.06250000 0.06249100 31648.17593191 0 662.50159435 0 11778.29659916 0 853.50531524 0 7925.88025117 0 4303
0.06350000 0.06350600 31794.13608374 0 -215.09601890 0 11904.62533241 0 1998.22331578 0 9189.96614975 0 4470
0.06450000 0.06451750 31320.76379799 0 231.91027347 0 10905.75213525 0 603.80365274 0 7804.37618860 0 4479
0.06550000 0.06550280 30725.49925778 0 785.21348827 0 11577.65684637 0 -370.74765863 0 5876.12723437 0 4636
0.06650000 0.06648880 30076.22058843 0 328.62440174 0 10787.65307014 0 -564.22582555 0 6229.78114026 0 4653
0.06750000 0.06749660 29088.32767626 0 326.38287083 0 11330.65589033 0 493.64810289 0 4662.28445796 0 5220
0.06850000 0.06852730 29560.92357822 0 330.69512821 0 10851.38308781 0 9.65124903 0 4463.06437837 0 5029
0.06950000 0.06949320 28574.13978574 0 -41.49305508 0 9398.70247632 0 853.19697996 0 859.29270180 0 5040
0.07050000 0.07048030 29020.33863896 0 455.58422408 0 9696.72293832 0 742.19406266 0 2447.23933303 0 5475
0.07150000 0.07148790 27766.14608806 0 216.34710591 0 7320.11234745 0 -471.34370583 0 -247.87272412 0 5509
0.07250000 0.07249820 27365.08840641 0 454.32759147 0 7685.24564218 0 1189.38668714 0 515.88484365 0 5916
0.07350000 0.07351270 26834.70736835 0 424.66529435 0 7125.40638502 0 740.71671523 0 21.78810184 0 5721
0.07450000 0.07449140 26006.30586828 0 164.38373909 0 5527.04290162 0 1744.93365108 0 57.50497247 0 6028
0.07550000 0.07549160 26466.81236557 0 -491.81250980 0 4225.83476685 0 1491.76598954 0 2022.96777617 0 6183
0.07650000 0.07648840 26320.40856586 0 -258.02116932 0 2129.09943977 0 1560.29849548 0 454.65700002 0 6330
0.07750000 0.07749960 26398.04694450 0 781.32713286 0 3607.01252432 0 -1254.81365793 0 1369.04189530 0 6583
0.07850000 0.07848650 25016.08380475 0 1124.15935788 0 3718.09086176 0 -3168.64405614 0 -711.43373705 0 6549
0.07950000 0.07947320 24344.40091756 0 983.68158470 0 6579.26475609 0 -1759.41875429 0 -25.71671472 0 6828
0.08050000 0.08048110 23301.60658049 0 365.08671171 0 7633.28338448 0 -1051.57080122 0 -3329.76587420 0 7147
0.08150000 0.08149960 22720.42786040 0 451.02241478 0 8221.99302729 0 -1470.33779703 0 -4173.34013169 0 7386
0.08250000 0.08250610 22902.32349035 0 137.87023278 0 8280.48800000 0 837.84565426 0 -4595.21599001 0 7227
0.08350000 0.08350160 22185.05578371 0 9.78727147 0 9484.48179352 0 511.53487621 0 -3707.95350775 0 7798
0.08450000 0.08449610 22436.16048262 0 365.43608441 0 7947.57463240 0 798.84789667 0 -4050.61603746 0 7371
0.08550000 0.08548940 22040.98113536 0 517.53077728 0 8105.24708822 0 561.53510117 0 -3460.78618375 0 8256
0.08650000 0.08650700 21343.89940716 0 112.97936859 0 7579.99018314 0 1173.24899558 0 -1713.06864224 0 8037
0.08750000 0.08749060 20390.94376537 0 383.56242758 0 8263.82902218 0 676.22140498 0 -1357.65123604 0 8155
0.08850000 0.08849210 20588.92163089 0 511.06239122 0 6593.15093467 0 3.50507333 0 -1323.51253183 0 8718
0.08950000 0.08949900 19486.45665424 0 132.32352519 0 7022.41353016 0 1077.66506028 0 214.86864936 0 8571
0.09050000 0.09049190 19327.07615409 0 -152.98975246 0 5231.97269801 0 1143.45804057 0 500.14199870 0 8932
0.09150000 0.09150830 19880.52688181 0 15.24884304 0 5924.91740974 0 681.13480522 0 758.96617069 0 9285
0.09250000 0.09250820 19578.51358891 0 146.07993677 0 4774.11699679 0 -383.84525310 0 223.88357424 0 9204
0.09350000 0.09350330 19435.99170813 0 457.22239387 0 5835.61109191 0 -630.57225658 0 422.72544401 0 9349
0.09450000 0.09448040 18888.08657888 0 303.89990550 0 6010.84091250 0 -687.64311959 0 -138.54457756 0 9564
0.09550000 0.09549270 18851.04198108 0 110.04973983 0 6283.85072538 0 121.01161342 0 -483.19243153 0 10155
0.09650000 0.09649430 18788.93127817 0 175.39507942 0 7637.93059600 0 286.80504364 0 -249.00291709 0 9913
0.09750000 0.09749140 18475.49405241 0 81.24246309 0 5813.19578288 0 275.75377501 0 94.92811282 0 10476
0.09850000 0.09850240 18233.48413500 0 358.36766459 0 7335.21855769 0 459.48832541 0 670.26099574 0 10575
0.09950000 0.09950330 17946.55486995 0 199.71474697 0 5999.62771238 0 339.79767354 0 1512.20706551 0 10882
0.10050000 0.10051200 17558.91753661 0 179.56204211 0 7451.74267283 0 568.29629483 0 2227.78891022 0 10875
0.10150000 0.10150300 17349.29391429 0 534.95504769 0 6202.37479260 0 -229.01879842 0 1110.81664796 0 11118
0.10250000 0.10250800 16965.09485200 0 403.28701223 0 6747.60694337 0 -196.12341740 0 2607.03020747 0 11575
0.10350000 0.10349800 16033.54522032 0 309.82593203 0 7571.72724142 0 -230.45178107 0 1880.13534187 0 11364
0.10450000 0.10450100 16225.31201555 0 117.13080361 0 6970.16290134 0 399.54595150 0 2101.18289705 0 12093
0.10550000 0.10551000 16061.60594860 0 24.00356844 0 6669.04799539 0 447.15269616 0 1172.60570615 0 12067
0.10650000 0.10649700 15923.63145856 0 77.34024726 0 6198.38196170 0 488.62489979 0 1971.07206565 0 12054
0.10750000 0.10749900 16030.88333305 0 -364.80721354 0 5142.72183616 0 1718.75842628 0 2107.73779445 0 12807
0.10850000 0.10850100 15961.23061622 0 -97.44403994 0 4827.69856924 0 376.72137730 0 1761.63699368 0 12736
0.10950000 0.10950300 15944.26108489 0 349.23184567 0 4379.44784458 0 113.44741710 0 740.27195823 0 12933
0.11050000 0.11050200 15517.47182632 0 377.12509687 0 4407.76367039 0 -967.02815248 0 724.69548124 0 13428
0.11150000 0.11150900 15232.98262460 0 105.20832145 0 4159.18776439 0 -52.84977528 0 472.11343490 0 13453
0.11250000 0.11250000 15079.81319474 0 76.39671914 0 4561.22147137 0 -176.07829715 0 -925.04575379 0 13668
0.11350000 0.11349100 14863.42394228 0 253.48043329 0 4628.58940163 0 -661.27490797 0 -1402.17130059 0 13791
0.11450000 0.11448600 14582.26209965 0 270.57418603 0 4723.65205067 0 -114.63750254 0 -1924.94377755 0 14205
0.11550000 0.11549300 14477.56120045 0 86.21775221 0 5015.83854308 0 -264.07696286 0 -2203.01117623 0 14776
0.11650000 0.11649800 14272.59588085 0 182.55999265 0 5433.43319937 0 -114.64415726 0 -2123.24328778 0 14553
0.11750000 0.11747300 14371.30753369 0 141.99726717 0 5658.61777101 0 13.21316475 0 -1892.34674971 0 14568
0.11850000 0.11849100 14097.90952892 0 64.77137015 0 5390.75427352 0 383.44042442 0 -1274.20107020 0 16015
0.11950000 0.11950300 14185.86272072 0 17.90097005 0 5976.29183400 0 680.32403873 0 -896.11769391 0 15270
0.12050000 0.12050700 14145.26893989 0 37.32853245 0 5128.91329596 0 445.52118109 0 377.41235887 0 15999
0.12150000 0.12150000 13844.25385471 0 236.53419348 0 5722.17032953 0 -292.60019405 0 -241.44537549 0 15670
0.12250000 0.12250700 13920.89402562 0 266.66564823 0 5445.75551918 0 26.78712613 0 1397.00280281 0 16887
0.12350000 0.12352200 13497.54303811 0 -25.97935426 0 6364.41718001 0 305.56469416 0 453.83625145 0 16407
0.12450000 0.12449800 13397.61135361 0 -51.96403229 0 4803.13156800 0 351.17835073 0 961.92952924 0 16306
0.12550000 0.12549900 13875.97467798 0 -70.79777201 0 5442.38379531 0 765.61645238 0 1177.05327613 0 17523
0.12650000 0.12650100 13711.82496315 0 -120.53691019 0 4155.12838630 0 812.78731300 0 853.88796153 0 17154
0.12750000 0.12750600 13743.98943430 0 164.04213022 0 4183.20020578 0 36.56257439 0 1326.18551030 0 18007
0.12850000 0.12850300 13271.94809218 0 422.16866592 0 4114.43478470 0 -561.56837476 0 715.03061222 0 17496
0.12950000 0.12949900 12806.45055627 0 454.56937956 0 4472.68044613 0 -818.89301692 0 309.02514761 0 18405
0.13050000 0.13049000 12438.55555349 0 273.30816608 0 4885.42824936 0 -161.53551971 0 -267.41541314 0 18100
0.13150000 0.13148800 12273.96219078 0 167.03786252 0 5186.06623384 0 -29.38756817 0 -668.56071524 0 19059
0.13250000 0.13249300 12002.89333737 0 82.94218902 0 4508.20554995 0 217.14456297 0 -656.71420778 0 18957
0.13350000 0.13349100 11792.93697914 0 62.38532095 0 4794.50261678 0 209.51381947 0 -1203.42814247 0 19468
0.13450000 0.13450700 11784.28584552 0 127.95913919 0 4391.28215173 0 -95.78535144 0 -1408.89256594 0 19953
0.13550000 0.13551000 11489.03818276 0 318.34286217 0 4649.96213815 0 -399.41063890 0 -1606.82606668 0 19956
0.13650000 0.13649900 11247.80464913 0 187.84162063 0 4943.13574708 0 -121.81794344 0 -2047.87860452 0 19723
0.13750000 0.13749600 11245.36458580 0 -234.74740165 0 4450.48696103 0 552.01552683 0 -1779.61582393 0 20946
0.13850000 0.13851100 11398.31219172 0 -164.87286087 0 4286.21524303 0 528.08072382 0 -1971.33825438 0 20955
0.13950000 0.13949800 11657.06981652 0 46.70081569 0 3584.14247621 0 165.12684928 0 -2172.01128076 0 20506
0.14050000 0.14048300 11480.60887307 0 170.37187632 0 3707.68731902 0 -40.54109764 0 -1869.08850971 0 21447
0.14150000 0.14148400 11061.69436434 0 389.29990376 0 4057.11547887 0 -492.73751562 0 -1923.67938109 0 21771
0.14250000 0.14249400 10770.52826206 0 323.66885494 0 4415.07276918 0 -87.39774466 0 -1683.13350168 0 22470
0.14350000 0.14350900 10490.64190707 0 74.36980290 0 4317.85842793 0 110.62903305 0 -1754.86027234 0 22519
0.14450000 0.14449900 10360.10961018 0 -11.06417879 0 4389.89575211 0 383.46260681 0 -1497.44468237 0 22218
0.14550000 0.14550500 10481.66912874 0 -137.83585007 0 3706.22328102 0 863.08478204 0 -851.41129725 0 23559
0.14650000 0.14650700 10535.25070119 0 -44.91801670 0 3405.88475886 0 368.78673501 0 -1148.08306970 0 23044
0.14750000 0.14750500 10670.45239199 0 76.52770618 0 2994.73408799 0 -80.62834351 0 -493.25214716 0 23649
0.14850000 0.14849900 10507.45616164 0 87.89385390 0 3426.20383167 0 37.34971664 0 -1047.83750432 0 23640
0.14950000 0.14949500 10434.47608572 0 124.66727194 0 3178.41540065 0 -470.13809272 0 -717.66255325 0 24457
0.15050000 0.15050000 10296.50159569 0 31.27140797 0 3227.77122707 0 133.42155369 0 -1043.30231389 0 24591
0.15150000 0.15149900 10421.79884761 0 -88.08528796 0 3371.87914902 0 401.06322725 0 -851.08854342 0 25020
0.15250000 0.15250500 10587.00222615 0 -68.31212386 0 2653.93487936 0 425.53928067 0 -1016.49378175 0 25297
0.15350000 0.15350100 10524.72515529 0 30.08697905 0 2602.89319101 0 460.15823371 0 -510.17287722 0 25452
0.15450000 0.15450400 10406.01607435 0 167.22419463 0 2532.66373193 0 -166.54097690 0 -547.14981873 0 26061
0.15550000 0.15549900 10144.38582954 0 294.20952673 0 2521.20652548 0 -8.91141074 0 -445.23391909 0 26128
0.15650000 0.15649500 9618.61872941 0 324.37425507 0 2840.71063597 0 -75.62011353 0 -157.40072149 0 26331
0.15750000 0.15749700 9526.71707149 0 174.36359810 0 2651.15098893 0 69.90315606 0 -38.38408166 0 27345
0.15850000 0.15849900 9182.44631822 0 81.43922092 0 3091.82642607 0 431.17915432 0 758.84527664 0 26980
0.15950000 0.15949700 9241.29620923 0 94.69564134 0 2668.95236003 0 242.48905712 0 444.15363651 0 27777
0.16050000 0.16050000 8945.71581056 0 120.12986327 0 2944.06950033 0 -386.75780142 0 609.70860600 0 28224
0.16150000 0.16150500 8945.54944260 0 203.28611239 0 3018.35833749 0 -223.29684992 0 501.22671777 0 28075
0.16250000 0.16249700 8856.57586069 0 -3.65996190 0 3493.74922108 0 -2.55155204 0 728.21582715 0 28590
0.16350000 0.16349900 8853.55905512 0 30.84439689 0 3237.20983567 0 -22.77255649 0 663.25135926 0 29163
0.16450000 0.16449100 8816.01535345 0 111.78041020 0 3599.37068962 0 -36.69966158 0 445.73413207 0 28996
0.16550000 0.16550500 8713.47723766 0 151.96714411 0 3611.62646225 0 -43.42680527 0 473.86251666 0 30777
0.16650000 0.16650700 8654.30570194 0 49.17526173 0 3740.01815812 0 208.28047837 0 675.49160422 0 29211
0.16750000 0.16749900 8514.96699468 0 -11.50733866 0 3423.78595073 0 524.38513699 0 1536.85170513 0 30922
0.16850000 0.16850800 8537.91468117 0 -2.01600250 0 3280.86478686 0 567.32470598 0 1111.20483985 0 30867
0.16950000 0.16949900 8517.01886612 0 68.73292387 0 2947.24158266 0 139.83337464 0 1360.29094091 0 30852
0.17050000 0.17049200 8306.20848572 0 217.38413283 0 2622.31387686 0 31.17291814 0 1238.27668328 0 31257
0.17150000 0.17149500 8139.33033644 0 84.35387657 0 2810.09893239 0 -167.90519412 0 1512.91690212 0 32608
0.17250000 0.17250900 8029.44984827 0 57.50752344 0 2770.88045998 0 271.63228622 0 1052.08986923 0 32361
0.17350000 0.17350400 8054.16103507 0 -69.37865336 0 2144.54947712 0 346.91267639 0 1194.22244901 0 32508
0.17450000 0.17449800 7932.60151652 0 -20.87973281 0 1836.07001640 0 285.04154333 0 878.18544668 0 32791
0.17550000 0.17549800 8088.86539032 0 50.98445778 0 1995.52815492 0 26.75185613 0 763.20522616 0 33633
0.17650000 0.17650100 7877.75554761 0 137.71606515 0 1824.89008988 0 -69.42390544 0 962.73142278 0 33984
0.17750000 0.17750300 7744.26190114 0 167.38834434 0 1831.62244642 0 -251.49732728 0 604.59445508 0 34069
