### header ###
fiducial parameters:
Omega_m = 0.31
Omega_nu = 0
Omega_de = 0.69
Omega_k = 0
H_0 = 100
w_de = -1
zeff = 0
beta = 0
fgrowth = 0
b_1 = 2
gamma = 0.55
Lx = 3500 Ly = 3500 Lz = 3500
nx = 700 ny = 700 nz = 700
xoffset = 1379.75464 yoffset = 22.6059522 zoffset = 368.141391
bins = 400 dk = 0.001
kx_ny = 0.628318531 ky_ny = 0.628318531 kz_ny = 0.628318531
############################
A(data) = 3.38006017 (not used)
A(ran) = 3.37001027 (used)
Ngal = 189187
weighted Ngal = 0
Nran = 9399747
weighted Nran = 0
SN(data) = 6651.88026
SN(ran) = 134.043449
SN(data+ran) = 6785.92371
############################
13 columns: k_central k_mean P_0(k) sigma^{lin}_{P_0(k)} P^img_1(k) sigma^{lin}_{P_1(k)} P_2(k) sigma^{lin}_{P_2(k)} P^img_3(k) sigma^{lin}_{P_3(k)} P_4(k) sigma^{lin}_{P_4(k)} N_modes
### header ###
0.00050000 0 0 0 0 0 0 0 0 0 0 0 0
0.00150000 0.00179520 14645.92557013 0 -9507.04128811 0 -17386.00577619 0 2604.80087688 0 -52299.87373753 0 3
0.00250000 0.00253879 21197.49560744 0 -3190.90408841 0 2326.98857572 0 -9119.94742342 0 32445.18934461 0 6
0.00350000 0.00331552 20767.48990176 0 -1231.94360983 0 -6160.58316250 0 -2771.06901033 0 3172.22651275 0 7
0.00450000 0.00420575 22038.54107203 0 -6830.80201168 0 2582.33011186 0 7401.26663552 0 9408.90637751 0 24
0.00550000 0.00557378 47428.28730196 0 -14886.71545587 0 -22468.10312983 0 14556.08687485 0 -7651.43967388 0 45
0.00650000 0.00659388 51048.23216192 0 -6296.13977160 0 10905.09775463 0 -20514.72152331 0 4561.34347453 0 40
0.00750000 0.00754703 71946.26545176 0 -1182.41032426 0 -29828.88689649 0 -9616.88850268 0 -483.85235775 0 57
0.00850000 0.00846663 64044.00945009 0 2533.73957803 0 20283.69189088 0 -21513.15107259 0 -5629.47010543 0 75
0.00950000 0.00948925 70789.78634597 0 4684.95486452 0 11545.71419916 0 -6373.41214074 0 -13390.95663544 0 112
0.01050000 0.01054430 66995.59878195 0 -2947.31922104 0 29504.58029772 0 7441.93805473 0 -650.20145694 0 105
0.01150000 0.01145670 73036.41919980 0 -1366.34673445 0 37804.01206211 0 10026.48640598 0 2892.39561375 0 144
0.01250000 0.01249090 73329.67044711 0 -2091.08990783 0 17642.65607357 0 20965.13503138 0 21988.96342167 0 169
0.01350000 0.01339930 73148.10755307 0 2640.86944936 0 20768.59902146 0 12463.06709875 0 23013.56819574 0 180
0.01450000 0.01448870 72033.88590765 0 973.03403563 0 12699.53141768 0 11490.03639048 0 53906.43361548 0 267
0.01550000 0.01550050 59505.15892297 0 4694.34910834 0 26773.59487316 0 15789.53888746 0 12660.26858049 0 238
0.01650000 0.01653350 67240.71423451 0 1032.22664462 0 1586.25189634 0 -463.48448367 0 49718.50855980 0 315
0.01750000 0.01747870 64528.25110885 0 -4835.89496379 0 16602.74544770 0 12406.39108234 0 15293.20782403 0 297
0.01850000 0.01844180 67920.71551940 0 258.90402860 0 4740.48848764 0 -2305.85984554 0 34580.79931699 0 388
0.01950000 0.01947590 67846.62632379 0 -2755.76315854 0 7503.12818829 0 -4720.80161306 0 11776.74383159 0 399
0.02050000 0.02045430 72654.54928887 0 -195.61544058 0 337.88998767 0 3800.97537655 0 12511.97927729 0 462
0.02150000 0.02154770 70948.16863839 0 2251.49079810 0 9228.44151197 0 -5405.61647743 0 1574.68377792 0 571
0.02250000 0.02255340 69562.98905153 0 3166.25944879 0 4458.39498446 0 -4920.74262044 0 2740.87877224 0 510
0.02350000 0.02348930 62283.17102259 0 2371.61955224 0 22712.66402254 0 -3461.20764924 0 897.71149891 0 555
0.02450000 0.02439640 62236.80981935 0 2810.73113062 0 12890.30000519 0 -2141.46612437 0 -3230.33329356 0 592
0.02550000 0.02547300 62122.68140275 0 -1866.01624816 0 10431.47037135 0 6885.88089573 0 -541.55541899 0 837
0.02650000 0.02652900 64381.84730913 0 -838.17839017 0 19309.88479883 0 4347.42755899 0 6065.83106697 0 723
0.02750000 0.02749970 61495.47421533 0 3863.46318016 0 13025.27987205 0 163.97558304 0 11534.51209024 0 826
0.02850000 0.02848090 61949.54781839 0 927.18191832 0 16040.42176243 0 593.18050430 0 4952.68526765 0 831
0.02950000 0.02946900 58784.89659315 0 507.89030889 0 16868.26870264 0 2176.62521869 0 10184.94633678 0 996
0.03050000 0.03053250 59104.43397723 0 2705.78622509 0 26420.67298627 0 -1876.58615885 0 21366.41453696 0 1041
0.03150000 0.03150510 56360.80458815 0 715.75597650 0 18597.05357096 0 -170.01695802 0 5669.44277924 0 1036
0.03250000 0.03246190 56068.44063659 0 779.42499258 0 36335.53758616 0 1320.40699669 0 20801.09622851 0 1059
0.03350000 0.03345080 54704.11249999 0 2576.40741269 0 20368.53954753 0 587.44635548 0 6777.69736070 0 1302
0.03450000 0.03451200 53991.05944819 0 512.32456943 0 35840.87020227 0 3972.81129087 0 22260.58683493 0 1339
0.03550000 0.03553350 52264.93646714 0 -324.79461143 0 25575.08013094 0 4668.77280817 0 10782.46238997 0 1365
0.03650000 0.03647120 52846.33701117 0 -952.23582311 0 23723.73753634 0 7599.45523379 0 10065.81579036 0 1308
0.03750000 0.03744890 53207.13364789 0 888.42483971 0 18456.19536972 0 2833.92282344 0 7586.31216540 0 1579
0.03850000 0.03847530 51182.32473302 0 1072.35126782 0 13498.65215780 0 -3417.37523890 0 3220.48431067 0 1662
0.03950000 0.03950240 49165.27965602 0 1371.31559068 0 15367.07519570 0 -2923.04059092 0 493.15121727 0 1683
0.04050000 0.04050350 45876.18520102 0 1549.92822633 0 14323.06082697 0 -1908.40680290 0 -12424.24790943 0 1822
0.04150000 0.04152450 45039.02165537 0 994.45335517 0 17674.48780881 0 -1502.53554177 0 -5433.79920887 0 1887
0.04250000 0.04250150 42838.08453297 0 1509.58954303 0 15645.90788698 0 -94.11368623 0 -18924.68752881 0 1920
0.04350000 0.04349210 44010.86769827 0 1380.13309225 0 20080.72298673 0 -1989.22835506 0 -5780.45456949 0 2005
0.04450000 0.04448520 40318.38641027 0 1028.65638832 0 17810.02223552 0 1289.05218291 0 -14164.23488667 0 2151
0.04550000 0.04548030 40610.19580198 0 501.84006096 0 22548.84704361 0 380.43692828 0 -4964.00937974 0 2274
0.04650000 0.04648670 40268.03237613 0 1064.32678683 0 21762.03753211 0 393.29162554 0 -5286.20865108 0 2311
0.04750000 0.04749250 38623.98425249 0 670.74789928 0 18340.73600949 0 3986.61983107 0 -5036.06888631 0 2568
0.04850000 0.04851840 38800.88884381 0 -611.82702461 0 21598.22055318 0 1520.53655442 0 1617.44034216 0 2493
0.04950000 0.04949480 37995.88976931 0 -293.95997480 0 15057.40897691 0 3696.51848369 0 -2266.57482594 0 2644
0.05050000 0.05050630 40304.52241409 0 70.30499013 0 16190.81839305 0 2028.89047534 0 2042.29973245 0 2829
0.05150000 0.05149060 38282.37538649 0 41.94923601 0 9056.99378954 0 1304.54658505 0 -2537.35530824 0 2784
0.05250000 0.05249300 38363.45203618 0 284.04444472 0 12885.19805460 0 2178.51072218 0 3188.45293389 0 3055
0.05350000 0.05348950 37337.51631847 0 39.79521465 0 11106.05915213 0 428.17787643 0 -1880.83408728 0 3009
0.05450000 0.05448610 37038.38673677 0 1040.20454258 0 9321.69629591 0 718.37238986 0 2340.32019445 0 3336
0.05550000 0.05550870 37008.88415289 0 418.73261310 0 11477.17060202 0 48.39033773 0 1675.82440289 0 3349
0.05650000 0.05647670 35393.89496526 0 190.92275515 0 10080.57817350 0 -1295.61817151 0 554.44117160 0 3324
0.05750000 0.05747970 35779.86861906 0 502.35691073 0 12042.59982244 0 685.55242897 0 3110.72582567 0 3639
0.05850000 0.05849280 35608.62053818 0 849.12096508 0 14313.74422153 0 -1040.66482726 0 -159.04000040 0 3846
0.05950000 0.05951020 34011.48817763 0 817.66633054 0 13101.03274721 0 -1325.81950080 0 1530.78482040 0 3787
0.06050000 0.06049470 34209.02239528 0 280.08045093 0 16336.77854488 0 2049.08754499 0 3012.69073585 0 3930
0.06150000 0.06148310 33332.59601243 0 -64.38561832 0 13937.41990908 0 630.96377583 0 1626.62385323 0 4083
0.06250000 0.06249100 34164.99034340 0 -516.68673719 0 12593.38866289 0 1973.46776419 0 1805.46940402 0 4303
0.06350000 0.06350600 33771.69649961 0 301.09272355 0 12901.61302608 0 716.04212938 0 2132.77062596 0 4470
0.06450000 0.06451750 33441.28974252 0 430.56581113 0 10320.27003075 0 -357.23747162 0 -785.80243082 0 4479
0.06550000 0.06550280 33490.31283304 0 482.89629657 0 12193.10736503 0 -317.78608408 0 -374.26467718 0 4636
0.06650000 0.06648880 31398.62400057 0 1108.50746075 0 12328.97452764 0 -2150.11725799 0 -2491.71503280 0 4653
0.06750000 0.06749660 30982.03864320 0 735.23433658 0 11516.76617513 0 856.47331954 0 -2412.22442427 0 5220
0.06850000 0.06852730 30317.45412206 0 85.09288302 0 13243.88736390 0 -151.19741504 0 -4470.10728844 0 5029
0.06950000 0.06949320 30857.48450147 0 119.17712945 0 10625.58850034 0 896.69887263 0 -5306.64972706 0 5040
0.07050000 0.07048030 29486.61255867 0 1114.66529330 0 13165.69442542 0 -237.32721406 0 -3345.92574816 0 5475
0.07150000 0.07148790 28452.02570734 0 1110.71682718 0 12077.09344495 0 -1342.06810433 0 -3601.15637233 0 5509
0.07250000 0.07249820 27456.59078123 0 104.23074335 0 12356.36978411 0 2186.77366390 0 -1323.76762936 0 5916
0.07350000 0.07351270 26708.71137101 0 106.47038875 0 11040.29944543 0 1678.38646939 0 -787.61140505 0 5721
0.07450000 0.07449140 27071.94807107 0 71.48986270 0 10191.31268383 0 2396.95184607 0 -441.00151834 0 6028
0.07550000 0.07549160 26542.56524073 0 146.90623094 0 10339.90144934 0 1442.15506559 0 1159.36281700 0 6183
0.07650000 0.07648840 26097.03185932 0 697.42111882 0 8507.31406879 0 332.50742979 0 2812.30608059 0 6330
0.07750000 0.07749960 25318.54074552 0 603.45871652 0 10002.57378536 0 -388.99378673 0 3454.77475501 0 6583
0.07850000 0.07848650 24593.84193693 0 501.67036564 0 9422.74819130 0 346.02205327 0 4551.73849797 0 6549
0.07950000 0.07947320 23904.63495857 0 -210.14158122 0 8039.93102939 0 2374.88036414 0 4485.29113706 0 6828
0.08050000 0.08048110 24792.15253836 0 -380.18183075 0 8086.28114143 0 1011.91533565 0 3946.32551256 0 7147
0.08150000 0.08149960 24371.90708599 0 255.51455881 0 7843.84975854 0 629.79698191 0 4599.00917937 0 7386
0.08250000 0.08250610 24182.13670621 0 406.61658956 0 6998.48981834 0 -279.20646462 0 4429.77969633 0 7227
0.08350000 0.08350160 23733.38687768 0 410.08813420 0 5862.81779803 0 -353.25129544 0 3707.97569014 0 7798
0.08450000 0.08449610 23451.67047520 0 52.29077896 0 7286.61693266 0 259.53622683 0 3706.50056094 0 7371
0.08550000 0.08548940 22856.07319908 0 373.97852430 0 6584.53307465 0 358.38873787 0 1455.81942023 0 8256
0.08650000 0.08650700 22880.47383237 0 244.63298549 0 6926.25285262 0 413.57409740 0 3553.73041418 0 8037
0.08750000 0.08749060 22438.93328186 0 -88.63663136 0 5306.93809818 0 605.57269865 0 1533.36906929 0 8155
0.08850000 0.08849210 22385.14097666 0 17.03840766 0 5353.29930142 0 598.65733736 0 3336.37622759 0 8718
0.08950000 0.08949900 22339.55615720 0 180.37613597 0 4662.32882275 0 428.12907516 0 2533.80612522 0 8571
0.09050000 0.09049190 22397.00855739 0 -220.58616139 0 3924.89732005 0 1024.89758168 0 2152.02494386 0 8932
0.09150000 0.09150830 21770.24501785 0 825.47342407 0 5117.55591029 0 -994.89589393 0 2245.31300140 0 9285
0.09250000 0.09250820 20474.12774248 0 1524.29647019 0 5730.00071457 0 -2378.08572006 0 1633.73331047 0 9204
0.09350000 0.09350330 19475.80910517 0 725.07036369 0 7016.54628698 0 -173.00825384 0 1334.07135133 0 9349
0.09450000 0.09448040 18527.17903019 0 44.34526729 0 8101.18771013 0 -318.09552848 0 713.96918467 0 9564
0.09550000 0.09549270 18342.84333691 0 155.01500503 0 7526.68589061 0 519.40962604 0 82.24266723 0 10155
0.09650000 0.09649430 18384.76806137 0 292.79761736 0 7624.75425403 0 220.97657152 0 590.74598657 0 9913
0.09750000 0.09749140 17943.33842283 0 4.82905170 0 6956.17690199 0 249.97894242 0 -714.24313723 0 10476
0.09850000 0.09850240 17963.30257734 0 350.65373712 0 6859.80549170 0 -328.30719351 0 -541.71735046 0 10575
0.09950000 0.09950330 17470.63160890 0 150.20253467 0 6617.31865282 0 49.78949222 0 -617.18185450 0 10882
0.10050000 0.10051200 16959.21651762 0 371.37542037 0 6995.02936490 0 375.64331296 0 -1166.59427741 0 10875
0.10150000 0.10150300 17115.04783474 0 61.48748855 0 6040.02185167 0 631.76788761 0 -1150.42331226 0 11118
0.10250000 0.10250800 16675.17096377 0 -220.05822041 0 5676.98479316 0 884.59283116 0 -79.76555930 0 11575
0.10350000 0.10349800 16434.71381394 0 408.36234396 0 5215.52445293 0 668.68050017 0 -701.27198240 0 11364
0.10450000 0.10450100 16667.62894985 0 141.28964880 0 4915.37448112 0 318.45377414 0 418.08710544 0 12093
0.10550000 0.10551000 15670.30852027 0 219.29736430 0 4864.13315122 0 409.59013946 0 237.15973698 0 12067
0.10650000 0.10649700 15620.73086991 0 380.22952290 0 5065.57147019 0 55.47716893 0 1750.90071503 0 12054
0.10750000 0.10749900 15193.83069937 0 387.21697698 0 4969.44406624 0 -775.19591918 0 417.22421032 0 12807
0.10850000 0.10850100 14855.43828048 0 304.52655813 0 5529.59387692 0 300.55480050 0 1343.06631205 0 12736
0.10950000 0.10950300 14687.96120656 0 -76.34625419 0 5848.29942122 0 -142.15919864 0 239.36688518 0 12933
0.11050000 0.11050200 14770.03606398 0 18.66249163 0 4636.99652892 0 713.60095693 0 155.35217741 0 13428
0.11150000 0.11150900 14812.95899617 0 6.87796178 0 5663.02097620 0 -208.18620320 0 304.78054654 0 13453
0.11250000 0.11250000 14469.02097880 0 293.16695421 0 4491.51329855 0 -402.85223731 0 -953.73646206 0 13668
0.11350000 0.11349100 14628.17965501 0 135.77732392 0 5765.88073670 0 326.69675171 0 542.04897725 0 13791
0.11450000 0.11448600 13941.19091604 0 -76.42289436 0 4063.92547380 0 15.67907057 0 -924.88825879 0 14205
0.11550000 0.11549300 14595.12788811 0 -223.82590001 0 4587.67397609 0 1274.07906703 0 347.08015346 0 14776
0.11650000 0.11649800 14619.30669745 0 133.93174875 0 3987.78440675 0 -166.09511078 0 -604.01549460 0 14553
0.11750000 0.11747300 14491.86884452 0 192.32024596 0 3978.19052139 0 12.44676304 0 634.78247494 0 14568
0.11850000 0.11849100 13935.97805347 0 379.79142062 0 4578.59028579 0 -503.54477793 0 396.83748121 0 16015
0.11950000 0.11950300 13653.04161932 0 231.44887968 0 4486.25607119 0 144.54380599 0 -108.46647147 0 15270
0.12050000 0.12050700 13626.09001074 0 -58.09369320 0 4747.48703291 0 513.58342029 0 747.04091573 0 15999
0.12150000 0.12150000 13549.56075180 0 111.27576074 0 4512.52002557 0 24.04482769 0 455.34798159 0 15670
0.12250000 0.12250700 13502.97772461 0 188.64684153 0 4462.66509528 0 306.29227668 0 1185.67113616 0 16887
0.12350000 0.12352200 13299.23243667 0 -23.93591213 0 4116.30919698 0 335.71278571 0 385.10299484 0 16407
0.12450000 0.12449800 13156.93237983 0 34.88591815 0 4198.88315826 0 218.10727887 0 1198.99166369 0 16306
0.12550000 0.12549900 13223.70138546 0 123.39289341 0 3556.07065674 0 349.32057524 0 1192.13730398 0 17523
0.12650000 0.12650100 12904.82947320 0 -47.69236870 0 3602.69804871 0 614.83717547 0 812.29930033 0 17154
0.12750000 0.12750600 13053.78424821 0 59.86850653 0 2805.71790960 0 178.53388816 0 1591.16529659 0 18007
0.12850000 0.12850300 13025.94534387 0 131.41515616 0 2948.36179355 0 194.47526553 0 959.78560087 0 17496
0.12950000 0.12949900 12542.92371678 0 208.68974354 0 2616.02516819 0 -144.99965418 0 1366.80147352 0 18405
0.13050000 0.13049000 12639.41713022 0 255.61327047 0 3272.23583563 0 -230.87879215 0 795.41738946 0 18100
0.13150000 0.13148800 12146.30251391 0 326.05013493 0 3428.73262457 0 -458.87941870 0 712.37537967 0 19059
0.13250000 0.13249300 11697.99633326 0 195.37697984 0 3590.76392079 0 -152.14571238 0 818.82646974 0 18957
0.13350000 0.13349100 11725.05885381 0 33.74674131 0 4017.85264168 0 -32.65924945 0 707.95553768 0 19468
0.13450000 0.13450700 11567.67476912 0 111.16263053 0 3548.30681887 0 121.73919594 0 216.65211383 0 19953
0.13550000 0.13551000 11251.79748003 0 273.47009755 0 4496.02741570 0 -404.82092477 0 151.64328115 0 19956
0.13650000 0.13649900 11327.21761928 0 184.24252723 0 4222.71814051 0 -300.19544572 0 544.91494254 0 19723
0.13750000 0.13749600 10950.58275331 0 44.18444493 0 4894.53412205 0 127.40236110 0 -196.23654760 0 20946
0.13850000 0.13851100 11396.42668824 0 -146.42154563 0 4173.02957818 0 492.56227471 0 780.66055192 0 20955
0.13950000 0.13949800 11176.59916472 0 -138.83516692 0 4043.67294817 0 505.49793771 0 67.07312625 0 20506
0.14050000 0.14048300 11495.69290092 0 -31.74012195 0 3649.70254137 0 283.43553801 0 974.16311948 0 21447
0.14150000 0.14148400 11469.29585219 0 -6.83735691 0 3523.20744018 0 335.55861807 0 -68.86380000 0 21771
0.14250000 0.14249400 11474.95236263 0 179.61195250 0 3371.09167403 0 -148.94479294 0 912.99073183 0 22470
0.14350000 0.14350900 11082.81200333 0 278.45226322 0 3306.80709652 0 -282.10237614 0 166.84820305 0 22519
0.14450000 0.14449900 10887.62911943 0 249.23472310 0 3434.33367903 0 244.70286003 0 620.53472334 0 22218
0.14550000 0.14550500 10449.50465759 0 70.69063105 0 3168.15604347 0 23.84673891 0 -256.70797161 0 23559
0.14650000 0.14650700 10447.66351889 0 146.88626678 0 3449.91681074 0 333.85501022 0 -64.84080104 0 23044
0.14750000 0.14750500 10191.88942607 0 184.59966377 0 2884.90905581 0 104.15133038 0 -276.16858577 0 23649
0.14850000 0.14849900 9886.69295965 0 186.01268226 0 2964.05583723 0 -298.88890272 0 -144.72902898 0 23640
0.14950000 0.14949500 9735.94141073 0 158.34680059 0 3217.40095792 0 -18.34517249 0 -346.74076283 0 24457
0.15050000 0.15050000 9558.16061484 0 101.58283099 0 2750.40611042 0 -198.66330150 0 -592.38526548 0 24591
0.15150000 0.15149900 9615.43555588 0 -1.76466489 0 2985.39530016 0 381.43624513 0 -327.09714392 0 25020
0.15250000 0.15250500 9554.55597583 0 -39.08138521 0 2987.61353955 0 2.08767382 0 -655.64723464 0 25297
0.15350000 0.15350100 9712.38370841 0 91.97652349 0 2879.74055803 0 78.69636791 0 -413.91016067 0 25452
0.15450000 0.15450400 9433.16282524 0 67.75756401 0 2926.40122359 0 223.24028481 0 -237.91282926 0 26061
0.15550000 0.15549900 9462.37703800 0 87.20176321 0 2770.95809836 0 -127.32694097 0 59.92274249 0 26128
0.15650000 0.15649500 9448.75704815 0 73.09753169 0 3150.31030758 0 157.18444315 0 244.97903083 0 26331
0.15750000 0.15749700 9414.92889745 0 18.81089185 0 3133.17440830 0 197.21479118 0 272.23121085 0 27345
0.15850000 0.15849900 9270.84315790 0 70.86908840 0 2851.75746813 0 74.94732152 0 486.71721392 0 26980
0.15950000 0.15949700 9259.11976272 0 132.98234229 0 3140.66096624 0 -192.39455698 0 180.34840798 0 27777
0.16050000 0.16050000 9124.26189903 0 109.46878294 0 3228.53651966 0 -99.83940574 0 783.34018510 0 28224
0.16150000 0.16150500 9066.23275660 0 58.84722912 0 3324.53082924 0 260.59654526 0 299.65530443 0 28075
0.16250000 0.16249700 8877.88205002 0 57.67699693 0 3014.18804744 0 49.63676644 0 491.80918244 0 28590
0.16350000 0.16349900 8903.43616779 0 110.73850316 0 3106.38916767 0 63.25620173 0 -13.45661652 0 29163
0.16450000 0.16449100 8745.07605777 0 118.43401925 0 3362.54036119 0 -116.25348993 0 165.50949558 0 28996
0.16550000 0.16550500 8635.91649740 0 86.09719090 0 3150.32139878 0 -155.35217741 0 -106.59793752 0 30777
0.16650000 0.16650700 8540.12182936 0 60.23551424 0 2881.41532877 0 89.38018520 0 -118.31534345 0 29211
0.16750000 0.16749900 8504.72981990 0 -20.25929126 0 2958.62115073 0 290.55164997 0 -48.96064707 0 30922
0.16850000 0.16850800 8642.94831627 0 -33.07716575 0 2676.25036762 0 290.17787664 0 -577.87021604 0 30867
0.16950000 0.16949900 8492.76241839 0 103.36607364 0 2577.37234683 0 33.28612390 0 -189.02948783 0 30852
0.17050000 0.17049200 8376.69304233 0 220.23789780 0 2381.19125521 0 20.59801641 0 -113.38530640 0 31257
0.17150000 0.17149500 8167.22469676 0 37.26143071 0 2683.38200726 0 -18.38975910 0 -346.24387721 0 32608
0.17250000 0.17250900 8084.73946506 0 124.56856028 0 2644.21899083 0 -62.58895532 0 -4.37091871 0 32361
0.17350000 0.17350400 8050.06838340 0 94.16171112 0 2600.83022837 0 -47.44270586 0 -272.64934898 0 32508
0.17450000 0.17449800 7981.74661020 0 -47.88435732 0 2663.96132140 0 193.43269302 0 -301.12156067 0 32791
0.17550000 0.17549800 7995.28896167 0 34.98684804 0 2414.77539957 0 76.07817996 0 -390.38573194 0 33633
0.17650000 0.17650100 8016.31787109 0 23.57855377 0 2433.35315446 0 75.61567705 0 -365.38284666 0 33984
0.17750000 0.17750300 8092.42566454 0 26.77880774 0 2239.39030222 0 45.50230095 0 -464.53482002 0 34069
0.17850000 0.17849800 7934.26519606 0 64.00940492 0 2352.91979419 0 -50.25388064 0 -339.75441788 0 34536
