### header ###
fiducial parameters:
Omega_m = 0.31
Omega_nu = 0
Omega_de = 0.69
Omega_k = 0
H_0 = 100
w_de = -1
zeff = 0
beta = 0
fgrowth = 0
b_1 = 2
gamma = 0.55
Lx = 3500 Ly = 3500 Lz = 3500
nx = 700 ny = 700 nz = 700
xoffset = 1379.75464 yoffset = 22.6059522 zoffset = 368.141391
bins = 400 dk = 0.001
kx_ny = 0.628318531 ky_ny = 0.628318531 kz_ny = 0.628318531
############################
A(data) = 3.32146828 (not used)
A(ran) = 3.32448017 (used)
Ngal = 187037
weighted Ngal = 0
Nran = 9399747
weighted Nran = 0
SN(data) = 6608.07403
SN(ran) = 132.232471
SN(data+ran) = 6740.3065
############################
13 columns: k_central k_mean P_0(k) sigma^{lin}_{P_0(k)} P^img_1(k) sigma^{lin}_{P_1(k)} P_2(k) sigma^{lin}_{P_2(k)} P^img_3(k) sigma^{lin}_{P_3(k)} P_4(k) sigma^{lin}_{P_4(k)} N_modes
### header ###
0.00050000 0 0 0 0 0 0 0 0 0 0 0 0
0.00150000 0.00179520 61444.01106149 0 -70450.83936723 0 -96393.70358897 0 105519.98408585 0 99222.95701849 0 3
0.00250000 0.00253879 88883.74322336 0 -55932.24073807 0 -28093.55822197 0 -120119.88118864 0 -66541.52517889 0 6
0.00350000 0.00331552 122738.51278812 0 -13562.09380435 0 -79345.75749577 0 -56535.71276402 0 -38086.50484838 0 7
0.00450000 0.00420575 129592.87250212 0 17595.74031048 0 -40980.64178005 0 -93063.12805739 0 3386.19788428 0 24
0.00550000 0.00557378 69629.31440928 0 28716.99440243 0 16607.07101451 0 -43892.52462684 0 22194.15056521 0 45
0.00650000 0.00659388 42910.95369692 0 15168.21003442 0 29259.35393320 0 21655.11839353 0 -14865.42035773 0 40
0.00750000 0.00754703 51325.62299759 0 -9847.55212562 0 -2259.62064546 0 46280.90297767 0 -22739.17198325 0 57
0.00850000 0.00846663 47556.83427459 0 -9758.93346200 0 4389.42992183 0 19019.40635075 0 695.63321787 0 75
0.00950000 0.00948925 51592.69902011 0 2187.61659487 0 -21066.17583558 0 -5890.52360800 0 10890.87884014 0 112
0.01050000 0.01054430 55702.09840139 0 -5746.95915471 0 -18254.33558526 0 -4539.62691091 0 -4850.89026206 0 105
0.01150000 0.01145670 58668.88267307 0 -6704.46218725 0 -19572.41343059 0 -1578.03331940 0 2191.97543527 0 144
0.01250000 0.01249090 64816.06766966 0 -10.60125441 0 -6761.57076033 0 -21849.10342815 0 -8480.87265526 0 169
0.01350000 0.01339930 76658.58229915 0 -4806.61420385 0 -23245.70694787 0 -5731.59784693 0 -11038.82431623 0 180
0.01450000 0.01448870 71764.70255772 0 2291.26383035 0 10665.49462696 0 -7246.67753245 0 -6522.59983089 0 267
0.01550000 0.01550050 72934.15836394 0 3749.35694595 0 13044.68946671 0 -7619.28629393 0 -9788.09221878 0 238
0.01650000 0.01653350 76592.47876534 0 -4543.68628899 0 14574.60917375 0 17955.98238736 0 12872.55409008 0 315
0.01750000 0.01747870 71618.18784603 0 -2051.64961148 0 13578.84151174 0 11511.55331256 0 17065.80292029 0 297
0.01850000 0.01844180 77436.18611719 0 194.06600036 0 9311.38148274 0 8698.94776966 0 34779.77539024 0 388
0.01950000 0.01947590 83462.25524310 0 3.18028981 0 2259.59846306 0 12384.31960042 0 29936.47150689 0 399
0.02050000 0.02045430 74002.35154202 0 300.74335085 0 6678.28696245 0 -4734.65451805 0 33108.88656999 0 462
0.02150000 0.02154770 74340.74396091 0 4820.28964968 0 11276.53084923 0 -5401.04690429 0 37433.34426010 0 571
0.02250000 0.02255340 69374.21687947 0 1763.04557569 0 6504.93155415 0 1270.28587768 0 7480.31359617 0 510
0.02350000 0.02348930 72980.51956718 0 229.49239253 0 24788.93609125 0 3424.98380001 0 47525.77892313 0 555
0.02450000 0.02439640 69134.64702539 0 990.87644416 0 5432.02461736 0 -5544.05679774 0 7683.73723940 0 592
0.02550000 0.02547300 68746.01148432 0 3748.48074139 0 30143.65506588 0 569.10151573 0 25102.70605291 0 837
0.02650000 0.02652900 63098.70673419 0 2927.72107603 0 29597.30270421 0 -8906.71916209 0 2467.30330831 0 723
0.02750000 0.02749970 61643.31987065 0 2929.52894113 0 34714.89188809 0 -993.02813637 0 19923.67163794 0 826
0.02850000 0.02848090 60557.71351336 0 1785.84907662 0 48068.13845390 0 4310.82660906 0 9047.41099538 0 831
0.02950000 0.02946900 59223.66434442 0 230.00258759 0 31950.07831284 0 6023.27414428 0 15364.85695631 0 996
0.03050000 0.03053250 60765.56254417 0 -1056.63725998 0 38478.57866050 0 10797.72387697 0 23094.31210953 0 1041
0.03150000 0.03150510 59287.54963885 0 -1218.36798476 0 20519.82347391 0 11764.09986707 0 13823.18058051 0 1036
0.03250000 0.03246190 62411.49617128 0 703.22957866 0 33410.23439107 0 4580.13196216 0 34835.45319892 0 1059
0.03350000 0.03345080 57299.45258588 0 2032.36201999 0 15789.87162337 0 -571.28204505 0 15881.59582213 0 1302
0.03450000 0.03451200 56736.01978091 0 3274.11024792 0 30855.70990996 0 -1225.82126911 0 22546.73971619 0 1339
0.03550000 0.03553350 51622.20160399 0 1948.21310874 0 20417.22990214 0 -3526.13551617 0 7500.01156195 0 1365
0.03650000 0.03647120 51589.70439693 0 1497.02321689 0 36757.55763004 0 1549.12966015 0 17677.03878411 0 1308
0.03750000 0.03744890 48634.67679402 0 780.04166313 0 25165.59313961 0 -99.33974732 0 6782.81040249 0 1579
0.03850000 0.03847530 47814.48277970 0 710.56085985 0 25619.11218282 0 1514.99095595 0 -10.56893467 0 1662
0.03950000 0.03950240 48401.53983417 0 941.29435732 0 26399.37788813 0 2832.10386714 0 2727.30314717 0 1683
0.04050000 0.04050350 45673.43812081 0 462.24005137 0 20582.48873666 0 -2897.06500766 0 -8710.82644159 0 1822
0.04150000 0.04152450 45255.18908389 0 1395.06184334 0 23148.43715064 0 -1526.19306486 0 -5072.35928272 0 1887
0.04250000 0.04250150 43932.23111191 0 1038.84587096 0 21958.79536597 0 -652.59160988 0 -12619.23115178 0 1920
0.04350000 0.04349210 42295.50317826 0 -118.12346574 0 21585.13294078 0 1950.74190165 0 -12304.13024648 0 2005
0.04450000 0.04448520 43766.86136541 0 161.30593194 0 18314.11713681 0 2735.58827129 0 -11720.84419897 0 2151
0.04550000 0.04548030 42127.91519237 0 318.94400504 0 18074.88001864 0 1978.44771162 0 -9851.46731814 0 2274
0.04650000 0.04648670 42673.26934632 0 789.23515628 0 19187.99254436 0 3792.21333096 0 -5398.08555470 0 2311
0.04750000 0.04749250 41136.02944929 0 693.72442288 0 15699.14563233 0 3063.28877633 0 -4044.52697034 0 2568
0.04850000 0.04851840 39194.84815942 0 1305.02350652 0 16707.00269902 0 1233.41873902 0 1259.72705818 0 2493
0.04950000 0.04949480 38595.92352421 0 748.82327108 0 14648.36563346 0 524.45279330 0 7369.98946012 0 2644
0.05050000 0.05050630 36775.96901698 0 1195.60884862 0 19841.48586855 0 1006.45403027 0 6669.09236018 0 2829
0.05150000 0.05149060 37726.04094756 0 554.71401505 0 18698.42711107 0 1752.96367767 0 12245.45781462 0 2784
0.05250000 0.05249300 35785.74695344 0 178.26215383 0 19334.17452014 0 2387.29141353 0 12277.95502168 0 3055
0.05350000 0.05348950 36916.93813019 0 -1015.46119131 0 14275.47959206 0 5032.59734167 0 12400.95639584 0 3009
0.05450000 0.05448610 37814.99234709 0 -299.44457169 0 16458.55988738 0 3350.91678678 0 14911.11608916 0 3336
0.05550000 0.05550870 37315.66666048 0 521.81974314 0 10545.17732246 0 170.42067759 0 13111.79120825 0 3349
0.05650000 0.05647670 36644.31650920 0 598.04843065 0 13718.70150526 0 1013.46699410 0 13701.62106196 0 3324
0.05750000 0.05747970 35034.54018414 0 1182.93161051 0 10542.98126547 0 -389.83671770 0 10355.62876662 0 3639
0.05850000 0.05849280 33716.12960290 0 444.97771244 0 10825.07476865 0 1237.38938753 0 7119.99388091 0 3846
0.05950000 0.05951020 32746.75898963 0 650.08389025 0 9648.88660588 0 -408.02738981 0 7961.47190218 0 3787
0.06050000 0.06049470 31849.14842061 0 849.58790447 0 9881.38027631 0 -463.87711204 0 4529.03481782 0 3930
0.06150000 0.06148310 32032.48590616 0 212.97427292 0 10625.43322358 0 -972.95085165 0 2845.65730981 0 4083
0.06250000 0.06249100 31297.58319637 0 -472.73010545 0 11486.26538352 0 846.63431873 0 1932.30833232 0 4303
0.06350000 0.06350600 31831.06976958 0 -187.40351836 0 7712.79617540 0 1404.74445828 0 4157.95664153 0 4470
0.06450000 0.06451750 32558.76320135 0 24.75821348 0 10469.79045680 0 188.10448200 0 4015.68985827 0 4479
0.06550000 0.06550280 32079.51258122 0 711.89180348 0 8954.63313290 0 1033.16274164 0 3849.31081285 0 4636
0.06650000 0.06648880 32381.85861003 0 180.87856719 0 13644.39048570 0 -1238.07704174 0 6034.52061798 0 4653
0.06750000 0.06749660 30677.47437500 0 393.01434562 0 11814.45390122 0 -147.50737381 0 5370.71248063 0 5220
0.06850000 0.06852730 32531.03520898 0 283.05954644 0 13101.58730706 0 839.25867276 0 7403.08559182 0 5029
0.06950000 0.06949320 30581.97916927 0 -684.69618856 0 11989.14025315 0 508.34726621 0 5368.92679792 0 5040
0.07050000 0.07048030 32591.26040841 0 -47.00571270 0 12099.94131066 0 2232.51376012 0 7927.72138986 0 5475
0.07150000 0.07148790 31807.66734402 0 523.09523079 0 11088.82343208 0 543.56292564 0 4712.02847627 0 5509
0.07250000 0.07249820 30978.15672426 0 1174.00319697 0 10879.39945130 0 -2708.29283560 0 3663.17834567 0 5916
0.07350000 0.07351270 30322.99972053 0 862.59344201 0 11775.41288796 0 -386.54263220 0 2351.94376886 0 5721
0.07450000 0.07449140 28654.10731573 0 631.68137627 0 13851.68495667 0 -438.21097318 0 597.11344274 0 6028
0.07550000 0.07549160 28315.49307290 0 622.15514721 0 12303.90842254 0 390.72401345 0 922.40272156 0 6183
0.07650000 0.07648840 26993.08966077 0 423.69037814 0 13532.36939653 0 707.35217657 0 252.12176167 0 6330
0.07750000 0.07749960 27088.14121861 0 -83.65679484 0 11383.00633993 0 1890.36142546 0 1445.44915108 0 6583
0.07850000 0.07848650 27113.31823569 0 -127.85931842 0 12147.85528148 0 1209.76121593 0 886.99518442 0 6549
0.07950000 0.07947320 26656.91548127 0 464.82762762 0 9256.63533461 0 506.18004632 0 1800.43400060 0 6828
0.08050000 0.08048110 25793.57671082 0 569.93668286 0 10832.69442095 0 -247.77955806 0 913.40997907 0 7147
0.08150000 0.08149960 25132.98502058 0 907.59597363 0 9930.10390450 0 -26.36510609 0 1414.74871793 0 7386
0.08250000 0.08250610 24040.50212118 0 703.61777056 0 10609.49517356 0 -159.62450648 0 -454.52723302 0 7227
0.08350000 0.08350160 23585.43031040 0 295.21217093 0 10104.67934447 0 238.66037593 0 -831.19315433 0 7798
0.08450000 0.08449610 22452.13180623 0 225.68478462 0 9535.76748820 0 573.89734929 0 -420.47614926 0 7371
0.08550000 0.08548940 22550.51072316 0 582.59728418 0 8950.29647490 0 -503.45604835 0 -2566.94662170 0 8256
0.08650000 0.08650700 21683.40094574 0 320.20729237 0 8882.06343127 0 859.36923106 0 -759.20795878 0 8037
0.08750000 0.08749060 20901.47156089 0 320.96703936 0 8822.86971316 0 212.21008945 0 -2825.85952326 0 8155
0.08850000 0.08849210 20993.75031950 0 105.32688635 0 8368.17500307 0 1018.05098580 0 -756.11240571 0 8718
0.08950000 0.08949900 20575.83401850 0 234.23720659 0 8253.30347628 0 812.05307576 0 -1269.25439636 0 8571
0.09050000 0.09049190 20225.24128296 0 227.35955536 0 7208.04689348 0 497.24054158 0 44.38963207 0 8932
0.09150000 0.09150830 19795.45740122 0 371.56618896 0 7755.59710442 0 -353.63726910 0 -548.24673811 0 9285
0.09250000 0.09250820 19434.99350040 0 553.16457484 0 7978.00887683 0 -31.62732448 0 955.01084059 0 9204
0.09350000 0.09350330 18543.15035379 0 377.24377268 0 8597.51877357 0 659.89183571 0 1508.32514658 0 9349
0.09450000 0.09448040 18580.52768751 0 49.08875040 0 7812.84986307 0 513.47805391 0 1540.11251703 0 9564
0.09550000 0.09549270 18517.75151278 0 -241.89235072 0 7359.84101492 0 1583.00217563 0 2133.53591855 0 10155
0.09650000 0.09649430 18574.98208904 0 424.85051734 0 7205.10772629 0 111.28685194 0 1665.93105521 0 9913
0.09750000 0.09749140 17804.25481310 0 339.87974840 0 6255.72344992 0 98.51289859 0 2801.49216356 0 10476
0.09850000 0.09850240 17572.11606098 0 148.99692156 0 6958.16222624 0 664.99156807 0 3060.52706829 0 10575
0.09950000 0.09950330 17203.66649836 0 295.01252939 0 6192.33725936 0 247.50338726 0 2557.78529302 0 10882
0.10050000 0.10051200 16980.62252773 0 329.21334430 0 6714.52190288 0 167.20201223 0 2790.14586908 0 10875
0.10150000 0.10150300 16239.61965962 0 323.81858610 0 6553.03407531 0 78.38714534 0 2928.02053835 0 11118
0.10250000 0.10250800 15975.98190816 0 415.97201418 0 6408.83742379 0 160.68038843 0 3034.40729947 0 11575
0.10350000 0.10349800 15910.65475813 0 -54.89709933 0 6697.03108529 0 309.46657725 0 2304.92818499 0 11364
0.10450000 0.10450100 15628.93835565 0 -55.18014667 0 5866.20061310 0 414.67656238 0 3258.29420107 0 12093
0.10550000 0.10551000 15780.77684187 0 102.63771473 0 5936.08624507 0 -28.71643984 0 2175.92647329 0 12067
0.10650000 0.10649700 15868.95185761 0 -48.90075461 0 5412.00500687 0 167.35507075 0 1954.13580791 0 12054
0.10750000 0.10749900 15987.18401708 0 -19.34970220 0 5227.62494880 0 195.26939523 0 1364.29486301 0 12807
0.10850000 0.10850100 15752.60520162 0 65.08569467 0 5368.44987645 0 -444.32111358 0 1046.40452168 0 12736
0.10950000 0.10950300 15806.06477091 0 135.75514153 0 5166.26844729 0 8.61464358 0 -777.74245800 0 12933
0.11050000 0.11050200 15821.92518255 0 -54.18537722 0 4793.19385554 0 4.32973710 0 -419.10971380 0 13428
0.11150000 0.11150900 15340.23449909 0 223.15377348 0 4854.11780037 0 -126.77903584 0 -873.10235112 0 13453
0.11250000 0.11250000 15489.30018607 0 159.90844112 0 4814.10076179 0 22.18483396 0 -766.59358683 0 13668
0.11350000 0.11349100 15276.12738073 0 17.33897910 0 4338.14422715 0 1382.08514291 0 -142.91783652 0 13791
0.11450000 0.11448600 14934.51851472 0 42.44567798 0 4371.22926764 0 681.45755905 0 328.47356146 0 14205
0.11550000 0.11549300 14882.50080103 0 330.47774075 0 3801.25265647 0 169.40028747 0 1450.05199781 0 14776
0.11650000 0.11649800 14430.42361342 0 368.83886363 0 4357.03253555 0 434.86586819 0 1934.67075727 0 14553
0.11750000 0.11747300 14087.15106788 0 133.03447092 0 4015.91168221 0 153.93250420 0 2027.06042785 0 14568
0.11850000 0.11849100 13954.38944041 0 42.05560059 0 4036.69658529 0 -156.34816690 0 1498.75344361 0 16015
0.11950000 0.11950300 13965.25881342 0 171.62850894 0 4240.00931655 0 -772.87342254 0 804.20050832 0 15270
0.12050000 0.12050700 13572.74135342 0 439.44764164 0 4193.78120767 0 -768.12860849 0 384.21015348 0 15999
0.12150000 0.12150000 13235.45805422 0 185.03998429 0 4823.79446792 0 -49.74823297 0 -299.51222799 0 15670
0.12250000 0.12250700 12946.64328569 0 127.19162836 0 4599.36409767 0 321.84546216 0 -726.76842595 0 16887
0.12350000 0.12352200 12860.68650934 0 82.75896244 0 4212.07059144 0 495.68555577 0 -772.64383476 0 16407
0.12450000 0.12449800 12638.86257038 0 149.26976501 0 3870.23990149 0 597.89980861 0 -21.72066737 0 16306
0.12550000 0.12549900 12410.49482521 0 147.96987673 0 3830.14522452 0 -272.02491459 0 53.35065374 0 17523
0.12650000 0.12650100 12382.54500890 0 171.78489481 0 4298.71502200 0 -15.37439539 0 38.85756486 0 17154
0.12750000 0.12750600 12299.91559164 0 106.88120669 0 3931.07511675 0 -166.36684510 0 144.73901105 0 18007
0.12850000 0.12850300 12152.18084829 0 -28.02512554 0 4657.70379362 0 -323.49361403 0 -224.55791901 0 17496
0.12950000 0.12949900 12499.00257686 0 -0.35683819 0 4803.61958067 0 -10.41477812 0 -361.52865572 0 18405
0.13050000 0.13049000 12347.27500261 0 -5.24518231 0 4526.06237704 0 178.16122394 0 -576.76775106 0 18100
0.13150000 0.13148800 12495.45339384 0 -8.08756772 0 4756.69272638 0 130.31712766 0 -235.75004585 0 19059
0.13250000 0.13249300 12584.40479336 0 -145.94795152 0 4390.29503520 0 621.91003176 0 -326.42723562 0 18957
0.13350000 0.13349100 12533.82893528 0 -72.68549373 0 3968.48572406 0 455.97019774 0 -257.31466008 0 19468
0.13450000 0.13450700 12543.58918859 0 261.83321372 0 3943.36416297 0 -263.63775146 0 190.19184527 0 19953
0.13550000 0.13551000 12302.46656694 0 231.63632090 0 3720.94129937 0 329.65699217 0 60.73650361 0 19956
0.13650000 0.13649900 11941.89175415 0 59.48042555 0 3695.89737666 0 64.66622560 0 495.95839922 0 19723
0.13750000 0.13749600 11899.07973393 0 146.00229839 0 3818.62147089 0 207.03493695 0 -470.10260089 0 20946
0.13850000 0.13851100 11580.98420546 0 337.88222383 0 3612.65794357 0 -201.71892626 0 -42.65252881 0 20955
0.13950000 0.13949800 11133.12167269 0 291.24152242 0 3994.77186083 0 -593.99681640 0 -529.63349139 0 20506
0.14050000 0.14048300 10868.17515999 0 183.19995471 0 4156.53696832 0 -41.61528007 0 -27.71235378 0 21447
0.14150000 0.14148400 10870.29357860 0 15.51469903 0 4353.72735886 0 197.46323399 0 -7.66764391 0 21771
0.14250000 0.14249400 10881.26277239 0 -164.69983820 0 3806.33242468 0 618.70467584 0 -452.21693669 0 22470
0.14350000 0.14350900 11181.47929138 0 -21.79708571 0 3710.21611192 0 555.33068560 0 158.47102200 0 22519
0.14450000 0.14449900 11006.39365636 0 6.43971532 0 3572.07525393 0 48.82056525 0 333.44907241 0 22218
0.14550000 0.14550500 10925.15063871 0 218.16273485 0 3480.59506150 0 104.25447851 0 706.60906637 0 23559
0.14650000 0.14650700 10750.67501952 0 280.57733656 0 3802.36177617 0 -417.15100842 0 345.75475542 0 23044
0.14750000 0.14750500 10464.52213825 0 177.34491184 0 3919.56245432 0 -118.78339196 0 628.83981161 0 23649
0.14850000 0.14849900 10243.61876864 0 90.62339746 0 4269.11261734 0 295.60701754 0 728.76927788 0 23640
0.14950000 0.14949500 10269.98254378 0 74.24602514 0 3568.58152689 0 359.17621285 0 910.06376495 0 24457
0.15050000 0.15050000 10117.26785300 0 6.14659716 0 3782.24234490 0 591.73421222 0 1306.72045965 0 24591
0.15150000 0.15149900 10141.16938243 0 -33.40746159 0 2832.88025092 0 310.41376547 0 1449.12033727 0 25020
0.15250000 0.15250500 9995.60851368 0 73.52598463 0 2984.54127799 0 260.53221631 0 1412.36411058 0 25297
0.15350000 0.15350100 9945.39866509 0 209.41621694 0 2877.66650420 0 -247.89157915 0 1256.34424311 0 25452
0.15450000 0.15450400 9697.26640697 0 84.93272613 0 3003.57377196 0 14.71025451 0 1289.92838747 0 26061
0.15550000 0.15549900 9685.90902129 0 91.72020593 0 2874.79388419 0 -96.32870917 0 644.03364231 0 26128
0.15650000 0.15649500 9683.92369704 0 26.61199613 0 2817.53003435 0 -39.94195119 0 231.67181273 0 26331
0.15750000 0.15749700 9452.97170299 0 105.55558683 0 2811.72933834 0 18.98302722 0 227.50485004 0 27345
0.15850000 0.15849900 9516.30243756 0 55.28640034 0 2629.29023974 0 -147.79019934 0 178.44626770 0 26980
0.15950000 0.15949700 9303.95038079 0 163.19032630 0 2461.77989223 0 295.92089842 0 17.40508263 0 27777
0.16050000 0.16050000 9286.96975826 0 36.81556459 0 2676.13945565 0 156.09750585 0 38.09360321 0 28224
0.16150000 0.16150500 9038.82640894 0 32.59148223 0 2430.96854711 0 215.86242060 0 61.33121359 0 28075
0.16250000 0.16249700 9008.39216451 0 190.42586952 0 2159.73332574 0 144.67911859 0 13.69529908 0 28590
0.16350000 0.16349900 8706.02395331 0 61.30038006 0 2133.30300342 0 -17.55725386 0 342.80671528 0 29163
0.16450000 0.16449100 8694.12309898 0 41.61161997 0 2208.70096027 0 -20.13207523 0 409.48920957 0 28996
0.16550000 0.16550500 8752.41843014 0 81.94187397 0 2037.16450827 0 -10.38475425 0 60.33522410 0 30777
0.16650000 0.16650700 8663.03447394 0 -14.13073947 0 1992.88845005 0 180.60017815 0 -90.78133611 0 29211
0.16750000 0.16749900 8713.21104893 0 39.02215822 0 2015.32594148 0 146.32172486 0 378.75217547 0 30922
0.16850000 0.16850800 8654.88244418 0 9.45089765 0 1746.81915456 0 305.40609005 0 255.21066002 0 30867
0.16950000 0.16949900 8732.04390135 0 42.80780557 0 1675.73567332 0 140.65190498 0 734.87276356 0 30852
0.17050000 0.17049200 8639.07748853 0 68.58574369 0 1786.18181253 0 -74.89153280 0 469.19755922 0 31257
0.17150000 0.17149500 8409.68935325 0 144.86766894 0 1823.68114941 0 -41.54895471 0 499.68725963 0 32608
0.17250000 0.17250900 8298.21173272 0 132.39450885 0 2005.32168183 0 -141.30295824 0 526.73092515 0 32361
0.17350000 0.17350400 8230.35578979 0 16.77876274 0 1868.43412909 0 -21.88026969 0 516.19650629 0 32508
0.17450000 0.17449800 8285.46794743 0 5.92562725 0 1870.30854138 0 181.75033527 0 426.49312361 0 32791
0.17550000 0.17549800 8223.44597409 0 126.07141747 0 1999.67626258 0 -51.88672665 0 111.83697531 0 33633
0.17650000 0.17650100 8090.71762021 0 200.44676597 0 1737.13653962 0 -377.18609846 0 119.78381792 0 33984
0.17750000 0.17750300 7712.99581695 0 190.82071614 0 2327.33240283 0 -277.44740078 0 97.98684312 0 34069
0.17850000 0.17849800 7735.79931787 0 90.93195456 0 2295.26775245 0 127.88039169 0 78.15256653 0 34536
