### header ###
fiducial parameters:
Omega_m = 0.31
Omega_nu = 0
Omega_de = 0.69
Omega_k = 0
H_0 = 100
w_de = -1
zeff = 0
beta = 0
fgrowth = 0
b_1 = 2
gamma = 0.55
Lx = 3500 Ly = 3500 Lz = 3500
nx = 700 ny = 700 nz = 700
xoffset = 1379.75464 yoffset = 22.6059522 zoffset = 368.141391
bins = 400 dk = 0.001
kx_ny = 0.628318531 ky_ny = 0.628318531 kz_ny = 0.628318531
############################
A(data) = 3.35085424 (not used)
A(ran) = 3.35101984 (used)
Ngal = 188086
weighted Ngal = 0
Nran = 9399747
weighted Nran = 0
SN(data) = 6594.5562
SN(ran) = 133.288097
SN(data+ran) = 6727.8443
############################
13 columns: k_central k_mean P_0(k) sigma^{lin}_{P_0(k)} P^img_1(k) sigma^{lin}_{P_1(k)} P_2(k) sigma^{lin}_{P_2(k)} P^img_3(k) sigma^{lin}_{P_3(k)} P_4(k) sigma^{lin}_{P_4(k)} N_modes
### header ###
0.00050000 0 0 0 0 0 0 0 0 0 0 0 0
0.00150000 0.00179520 32505.30363206 0 -14106.22792663 0 10654.42561240 0 -49194.22768005 0 67865.25953466 0 3
0.00250000 0.00253879 47781.32010082 0 -6733.01092819 0 -22203.46717065 0 2363.34551932 0 1154.38286957 0 6
0.00350000 0.00331552 62727.48437234 0 -14809.52072511 0 -13253.09305737 0 -15825.03071769 0 14596.90247962 0 7
0.00450000 0.00420575 61960.74992731 0 -9939.04340924 0 -26250.86676099 0 1799.86834956 0 56.63187344 0 24
0.00550000 0.00557378 75539.81326298 0 3784.53822267 0 -14449.50047217 0 -32072.63603911 0 -23162.30114682 0 45
0.00650000 0.00659388 73986.15839448 0 -5850.50656941 0 -10266.95464702 0 -35017.68156478 0 3360.67704010 0 40
0.00750000 0.00754703 80053.70859697 0 -1242.51352052 0 20781.02116204 0 -3562.64773653 0 -15950.47215518 0 57
0.00850000 0.00846663 78752.15663510 0 -4626.13824710 0 29850.29290660 0 -24432.90866921 0 -15844.21848841 0 75
0.00950000 0.00948925 88577.62618759 0 4657.91452636 0 25320.53716098 0 -13833.38448170 0 -41858.62093047 0 112
0.01050000 0.01054430 82950.50741591 0 7469.17803443 0 78616.84403233 0 -15604.31589842 0 -21217.45976195 0 105
0.01150000 0.01145670 82664.57635858 0 4657.14923377 0 72239.84943498 0 -6314.60661452 0 12604.70168378 0 144
0.01250000 0.01249090 83143.49424281 0 18.69631978 0 74936.23032506 0 20281.25182755 0 -18851.92927683 0 169
0.01350000 0.01339930 90371.18364609 0 -5745.33983995 0 58301.98587803 0 38341.15873031 0 9575.90652996 0 180
0.01450000 0.01448870 95631.73835863 0 -7711.26559022 0 49590.07249914 0 27178.64538571 0 33914.55111631 0 267
0.01550000 0.01550050 115711.13040172 0 -6690.74237662 0 34877.59974732 0 28253.93692984 0 19678.33436144 0 238
0.01650000 0.01653350 106997.88607920 0 4151.42392652 0 32891.49910980 0 4301.78728355 0 37720.16261318 0 315
0.01750000 0.01747870 102681.74678680 0 5951.55846481 0 20406.80417700 0 4480.49973998 0 26861.65897693 0 297
0.01850000 0.01844180 90090.35453936 0 9979.19354219 0 21899.67928623 0 -3245.91642528 0 42300.71604083 0 388
0.01950000 0.01947590 82606.01483870 0 7267.75080666 0 45886.16727828 0 60.69424615 0 29509.34951241 0 399
0.02050000 0.02045430 71279.46269123 0 9252.13230865 0 43557.57047900 0 4398.75761847 0 26812.85771036 0 462
0.02150000 0.02154770 66437.04610364 0 4182.72328431 0 48839.08755377 0 5125.79666962 0 32336.60652648 0 571
0.02250000 0.02255340 60575.12669257 0 -11.94211358 0 44495.10935703 0 9990.10727999 0 24763.31542630 0 510
0.02350000 0.02348930 63268.06931159 0 -1018.31828365 0 46030.13101467 0 15262.59612045 0 39468.68981207 0 555
0.02450000 0.02439640 61570.78344261 0 -1196.99524824 0 43316.78059325 0 5832.36137121 0 22114.84850703 0 592
0.02550000 0.02547300 62567.88204825 0 1444.65058490 0 38345.59520909 0 -489.78392987 0 30155.96629449 0 837
0.02650000 0.02652900 66045.97049925 0 1328.01555779 0 47145.57269175 0 4028.65546750 0 26029.48646991 0 723
0.02750000 0.02749970 63914.90791761 0 810.93841047 0 44742.99760882 0 -7151.95871052 0 17049.72068472 0 826
0.02850000 0.02848090 62094.95341038 0 2827.71175315 0 43336.96657170 0 7056.85169669 0 6493.00851743 0 831
0.02950000 0.02946900 59397.35248863 0 784.34061107 0 46360.20503585 0 918.10710098 0 13792.01431708 0 996
0.03050000 0.03053250 60055.72593948 0 -1153.97249528 0 37883.20320832 0 7752.42502210 0 8200.22100768 0 1041
0.03150000 0.03150510 63997.98098276 0 -2730.67487105 0 34388.03431403 0 11096.96437064 0 2439.94132544 0 1036
0.03250000 0.03246190 62474.60508192 0 -2108.58072542 0 21940.27306707 0 6762.56896806 0 3259.51423273 0 1059
0.03350000 0.03345080 64321.51119774 0 1983.89348933 0 16641.23190111 0 3308.24895212 0 1085.51208212 0 1302
0.03450000 0.03451200 62015.54044023 0 927.96939331 0 13047.57317792 0 4876.52201821 0 9848.71670129 0 1339
0.03550000 0.03553350 55867.46814789 0 1964.25097953 0 14658.90227056 0 3267.13388504 0 6289.50723582 0 1365
0.03650000 0.03647120 56988.34451148 0 2733.15929916 0 9011.02077819 0 -989.32145835 0 6951.27459294 0 1308
0.03750000 0.03744890 50412.15201694 0 2258.14551626 0 11851.27667508 0 1928.11585987 0 3150.83159384 0 1579
0.03850000 0.03847530 50276.83941417 0 1425.67354692 0 10948.60852026 0 -1816.72696892 0 6590.21176748 0 1662
0.03950000 0.03950240 46626.06102669 0 1763.24521724 0 12090.84652917 0 -3565.78654526 0 2185.44272027 0 1683
0.04050000 0.04050350 47289.20369223 0 701.09563237 0 16718.20480793 0 942.55098993 0 647.95770779 0 1822
0.04150000 0.04152450 45519.93595505 0 -209.23764867 0 14387.83341714 0 636.85209229 0 1017.64172063 0 1887
0.04250000 0.04250150 47034.88254621 0 -867.69095613 0 13266.62431765 0 3012.89037739 0 -2932.63447628 0 1920
0.04350000 0.04349210 46107.65848133 0 490.79655616 0 12374.78117104 0 2108.68054619 0 72.08368538 0 2005
0.04450000 0.04448520 44734.67921111 0 2339.80999939 0 11703.65284370 0 -3612.38066364 0 -3820.19642086 0 2151
0.04550000 0.04548030 43792.26020642 0 1906.85403532 0 16609.28925390 0 -906.47687186 0 -61.94111851 0 2274
0.04650000 0.04648670 40769.02174228 0 1064.36893338 0 17201.78099488 0 -1049.09968254 0 -3601.20073712 0 2311
0.04750000 0.04749250 38157.82124476 0 1084.19222968 0 15578.80614544 0 380.35596254 0 -3388.13884374 0 2568
0.04850000 0.04851840 39344.13567034 0 -451.17103682 0 15989.51316844 0 2216.16533582 0 -2496.85025698 0 2493
0.04950000 0.04949480 38997.97941358 0 -362.97605693 0 13901.70625490 0 1245.29741095 0 -7521.01828897 0 2644
0.05050000 0.05050630 38755.08220042 0 1217.35868584 0 14197.39756554 0 434.90912385 0 -3511.78350732 0 2829
0.05150000 0.05149060 36812.34814297 0 1701.43397665 0 13685.87156229 0 -2141.86540746 0 -4820.67784158 0 2784
0.05250000 0.05249300 35076.57582057 0 1561.57398313 0 16929.49210980 0 -227.61354377 0 81.08618812 0 3055
0.05350000 0.05348950 33867.30261731 0 274.52819774 0 16983.61715090 0 2659.11446834 0 -2146.12442709 0 3009
0.05450000 0.05448610 33551.42532822 0 -251.58272950 0 14321.72988333 0 2833.31280761 0 2524.21223986 0 3336
0.05550000 0.05550870 34798.29768914 0 -780.53965787 0 14866.30765349 0 3416.99813820 0 3642.12725386 0 3349
0.05650000 0.05647670 34491.95882943 0 167.00458893 0 12815.98898564 0 285.42197139 0 2588.61882053 0 3324
0.05750000 0.05747970 34362.74638498 0 1085.54202835 0 11517.32073497 0 381.49391935 0 5998.67386945 0 3639
0.05850000 0.05849280 32299.00736883 0 958.72417332 0 12538.81997390 0 -1394.88438419 0 2315.23190696 0 3846
0.05950000 0.05951020 33305.31166794 0 -346.22169482 0 11658.28984819 0 2417.98075549 0 6740.94113401 0 3787
0.06050000 0.06049470 31647.51046009 0 -166.97020622 0 14674.87359416 0 703.66324446 0 1397.54627146 0 3930
0.06150000 0.06148310 32821.51365706 0 660.32106503 0 9328.19573732 0 327.60733898 0 4000.20654733 0 4083
0.06250000 0.06249100 31586.17614097 0 142.87236261 0 11245.69732171 0 277.64149673 0 2249.59420342 0 4303
0.06350000 0.06350600 31511.86512141 0 325.03972688 0 10901.75930435 0 -793.08601986 0 363.60049131 0 4470
0.06450000 0.06451750 30871.34849765 0 632.96240952 0 13009.97402027 0 -410.31550374 0 1072.38565053 0 4479
0.06550000 0.06550280 30646.08628763 0 779.13107586 0 11918.37841662 0 -933.89098336 0 -1777.69704686 0 4636
0.06650000 0.06648880 29420.73084879 0 235.81881127 0 12116.91084199 0 1300.72012210 0 -207.43422004 0 4653
0.06750000 0.06749660 29821.78853044 0 232.77649595 0 13108.46384917 0 749.15600699 0 -595.15695560 0 5220
0.06850000 0.06852730 28925.73072900 0 205.15941555 0 10971.96658103 0 235.61140589 0 -883.09219221 0 5029
0.06950000 0.06949320 29329.67212185 0 315.21958111 0 12855.25182284 0 1920.51838996 0 -223.65065910 0 5040
0.07050000 0.07048030 27994.84656913 0 538.41328289 0 10763.00843052 0 -1659.97508245 0 -234.89491457 0 5475
0.07150000 0.07148790 28005.49411820 0 514.37533175 0 10900.66127585 0 1091.80300903 0 -880.17077094 0 5509
0.07250000 0.07249820 27591.90338400 0 -122.51336149 0 10776.07386053 0 1227.10784796 0 9.93621515 0 5916
0.07350000 0.07351270 26722.90810311 0 345.67378969 0 9230.37138023 0 393.68647216 0 -936.29666398 0 5721
0.07450000 0.07449140 27142.48808366 0 455.05517399 0 9235.78388435 0 1027.07811100 0 -1888.50919557 0 6028
0.07550000 0.07549160 25478.36489355 0 688.35517444 0 9161.32867923 0 -914.57566387 0 -750.02001123 0 6183
0.07650000 0.07648840 24915.15391252 0 934.43112465 0 8791.21543707 0 65.09534401 0 -755.91387329 0 6330
0.07750000 0.07749960 23995.25003763 0 -108.49497584 0 9176.22415673 0 681.94002612 0 -1379.78926515 0 6583
0.07850000 0.07848650 24331.20239319 0 -37.55035639 0 7385.65023022 0 1075.58878821 0 -1430.20984647 0 6549
0.07950000 0.07947320 24403.96064517 0 -339.43942788 0 7781.57268768 0 974.45038148 0 -1602.82214458 0 6828
0.08050000 0.08048110 24325.65679472 0 2.93313358 0 6028.10990615 0 -112.80967328 0 -2591.36943738 0 7147
0.08150000 0.08149960 24667.26566072 0 267.56403518 0 6306.89823264 0 248.73118276 0 -1416.92259253 0 7386
0.08250000 0.08250610 23932.47386291 0 127.55320138 0 5750.37524337 0 221.00984511 0 -2502.55113222 0 7227
0.08350000 0.08350160 23688.02388217 0 367.14967434 0 5544.43389843 0 8.60022503 0 -2888.70224516 0 7798
0.08450000 0.08449610 23758.12024688 0 79.62037553 0 6360.22470756 0 118.67691647 0 -1276.46367438 0 7371
0.08550000 0.08548940 23272.21490858 0 263.91835874 0 5813.02941493 0 -354.58112996 0 -3933.20462657 0 8256
0.08650000 0.08650700 22744.49575778 0 665.77349745 0 7083.73675809 0 -400.84694891 0 -1490.70123463 0 8037
0.08750000 0.08749060 22090.78060965 0 420.43511184 0 6612.33870539 0 -50.71693811 0 -2599.11109285 0 8155
0.08850000 0.08849210 22227.64597999 0 18.21562731 0 7985.01851330 0 -265.56761973 0 -1108.15032421 0 8718
0.08950000 0.08949900 21868.51302281 0 3.73645788 0 6350.16499193 0 1317.45673830 0 -2247.13195769 0 8571
0.09050000 0.09049190 21913.65419439 0 361.10386288 0 7463.36624723 0 5.42823143 0 -1625.64782790 0 8932
0.09150000 0.09150830 21134.27578484 0 651.05215174 0 6328.86989379 0 -199.02931100 0 -1478.44546200 0 9285
0.09250000 0.09250820 20507.17950939 0 417.64123932 0 7394.06844870 0 768.20513775 0 817.13728044 0 9204
0.09350000 0.09350330 19898.49462087 0 170.71792167 0 6288.69757845 0 1248.72459081 0 1058.68136758 0 9349
0.09450000 0.09448040 19618.33098596 0 199.36204690 0 5517.33810429 0 1179.95916973 0 827.81366662 0 9564
0.09550000 0.09549270 19346.48574875 0 357.77872204 0 5758.05035165 0 249.89132196 0 2081.66239042 0 10155
0.09650000 0.09649430 18230.71133576 0 548.48187148 0 5819.65085950 0 -505.40698990 0 1297.53694858 0 9913
0.09750000 0.09749140 17958.31153871 0 483.99210683 0 6225.86594773 0 -277.95870496 0 2706.49606170 0 10476
0.09850000 0.09850240 17624.13377466 0 145.89249554 0 5800.54072716 0 634.16802263 0 1588.96923959 0 10575
0.09950000 0.09950330 17330.66070341 0 -2.74845406 0 6272.97026117 0 190.61774723 0 2506.97651980 0 10882
0.10050000 0.10051200 17535.73693499 0 43.39464080 0 5474.65917843 0 656.25503223 0 1675.58039656 0 10875
0.10150000 0.10150300 17537.51152650 0 -111.67171647 0 5886.51968591 0 184.55086250 0 2676.26145882 0 11118
0.10250000 0.10250800 17456.32396484 0 104.70766482 0 5445.51151285 0 -160.47298305 0 2511.36863379 0 11575
0.10350000 0.10349800 17594.74210275 0 281.11082313 0 6375.56383294 0 -590.56852742 0 821.66027056 0 11364
0.10450000 0.10450100 17260.78616264 0 292.20867480 0 6266.08262787 0 -785.64826319 0 1334.35972245 0 12093
0.10550000 0.10551000 16443.47585953 0 477.07674553 0 7311.78285854 0 -310.74317402 0 611.54863557 0 12067
0.10650000 0.10649700 16614.94576435 0 123.95521709 0 7964.31124859 0 476.93699645 0 1598.60748974 0 12054
0.10750000 0.10749900 16550.83864599 0 -239.80942394 0 6938.29789251 0 1063.35741621 0 1403.38024106 0 12807
0.10850000 0.10850100 16571.80100822 0 -77.95835967 0 6891.82577729 0 873.36964897 0 2353.82927234 0 12736
0.10950000 0.10950300 16532.64908299 0 35.50647061 0 5278.27844527 0 488.96318130 0 1329.12467749 0 12933
0.11050000 0.11050200 16514.68134393 0 367.21178504 0 6309.54902871 0 -655.94226048 0 1876.67488843 0 13428
0.11150000 0.11150900 15769.46382098 0 651.38156029 0 6401.56159859 0 -1196.62923874 0 1600.33771646 0 13453
0.11250000 0.11250000 15266.92168726 0 414.35602679 0 7421.43043157 0 -267.10818698 0 886.71235890 0 13668
0.11350000 0.11349100 15085.35879322 0 -66.28831315 0 7290.21048048 0 171.94460805 0 215.73265360 0 13791
0.11450000 0.11448600 15181.63038273 0 37.93167174 0 6432.51712927 0 567.68295164 0 -85.28498255 0 14205
0.11550000 0.11549300 15140.81477796 0 -71.24984920 0 6466.88874862 0 528.94029158 0 457.40539862 0 14776
0.11650000 0.11649800 15113.41952150 0 -113.07808025 0 5879.05531036 0 685.42709844 0 286.90708266 0 14553
0.11750000 0.11747300 15158.56069307 0 5.11185504 0 5202.84721482 0 495.41493057 0 313.00134172 0 14568
0.11850000 0.11849100 15290.10228888 0 22.53786676 0 5078.30416429 0 378.86308743 0 473.28244705 0 16015
0.11950000 0.11950300 15248.51030032 0 212.39974892 0 5076.61830235 0 -256.88321252 0 -132.50209346 0 15270
0.12050000 0.12050700 14754.95203613 0 323.88735152 0 5004.55879578 0 -503.86531352 0 266.86418065 0 15999
0.12150000 0.12150000 14360.21633674 0 401.83628367 0 5965.99920324 0 -76.80676069 0 -94.69120486 0 15670
0.12250000 0.12250700 14037.46250555 0 208.97256906 0 5579.39335121 0 226.61311781 0 613.98648066 0 16887
0.12350000 0.12352200 13856.01052348 0 -80.86236777 0 5412.95884981 0 959.83662038 0 -89.88494557 0 16407
0.12450000 0.12449800 13933.75981408 0 64.01384139 0 4922.33975280 0 373.40843678 0 291.62971432 0 16306
0.12550000 0.12549900 13819.63139749 0 155.12480788 0 4904.48292572 0 226.14174194 0 946.78006333 0 17523
0.12650000 0.12650100 13311.10001741 0 126.92876700 0 4461.63361397 0 -387.10495589 0 704.06918227 0 17154
0.12750000 0.12750600 13560.20830087 0 83.47112820 0 4232.11238432 0 620.90073284 0 552.39928225 0 18007
0.12850000 0.12850300 13305.55441894 0 -65.34267770 0 3870.75009655 0 335.32459381 0 -25.77838177 0 17496
0.12950000 0.12949900 13165.69442542 0 96.31872710 0 3668.85703850 0 134.34877775 0 3.40753735 0 18405
0.13050000 0.13049000 13234.79258241 0 186.58166066 0 3198.72338226 0 -102.55685991 0 -382.09395311 0 18100
0.13150000 0.13148800 12977.47681321 0 -6.45433351 0 3084.79460721 0 127.76615236 0 119.04958068 0 19059
0.13250000 0.13249300 12871.88861826 0 0.30469514 0 2691.81131694 0 251.23557503 0 -751.44079356 0 18957
0.13350000 0.13349100 12925.23727558 0 102.03934466 0 3315.68005408 0 -98.49737091 0 -704.85776638 0 19468
0.13450000 0.13450700 12790.70105660 0 227.76660229 0 2818.62806285 0 -251.26330302 0 -1111.12720147 0 19953
0.13550000 0.13551000 12486.35861234 0 146.94172277 0 3467.14143961 0 181.92779442 0 -278.73176139 0 19956
0.13650000 0.13649900 12431.56809942 0 87.83030134 0 2902.53296776 0 66.11529048 0 -447.43441257 0 19723
0.13750000 0.13749600 12189.78000594 0 82.45206903 0 3317.11081849 0 264.93985798 0 -779.29855293 0 20946
0.13850000 0.13851100 12139.53688377 0 273.24938273 0 3581.02584987 0 -223.44990844 0 -268.26278059 0 20955
0.13950000 0.13949800 11802.69723245 0 271.73099787 0 3366.21154738 0 -337.63599926 0 -681.89233398 0 20506
0.14050000 0.14048300 11618.25062720 0 144.41958458 0 4048.90799313 0 82.16658162 0 173.01047208 0 21447
0.14150000 0.14148400 11346.29447803 0 150.05945823 0 3914.06122063 0 -195.64649593 0 -636.93305803 0 21771
0.14250000 0.14249400 11336.97787260 0 188.46827326 0 3938.15130041 0 216.72087925 0 398.00649337 0 22470
0.14350000 0.14350900 11147.76205266 0 5.26526847 0 4191.84024820 0 347.15446448 0 339.20540363 0 22519
0.14450000 0.14449900 11048.21856005 0 56.27850791 0 3549.11647625 0 609.16180999 0 348.79374339 0 22218
0.14550000 0.14550500 11035.35277159 0 95.57661511 0 3918.53097300 0 -51.65980076 0 582.51299108 0 23559
0.14650000 0.14650700 10822.44615497 0 259.04710504 0 3291.00214087 0 -196.22212905 0 235.59587822 0 23044
0.14750000 0.14750500 10478.17540170 0 246.03380366 0 3978.57871328 0 -139.79455546 0 805.05120313 0 23649
0.14850000 0.14849900 10188.50661100 0 80.40396860 0 3148.90172557 0 270.57862251 0 111.59851457 0 23640
0.14950000 0.14949500 10287.34026701 0 -139.63262398 0 3540.83135213 0 604.14637073 0 845.48083424 0 24457
0.15050000 0.15050000 10327.21312004 0 -122.26713692 0 2566.86898332 0 606.00858269 0 434.41778383 0 24591
0.15150000 0.15149900 10396.94347525 0 93.95208749 0 2347.31873973 0 251.96648491 0 355.06581526 0 25020
0.15250000 0.15250500 10173.67768068 0 248.61250695 0 2392.88137679 0 -435.20969529 0 558.99743531 0 25297
0.15350000 0.15350100 9912.63526931 0 300.60803825 0 2776.99170950 0 -537.74337460 0 531.33377188 0 25452
0.15450000 0.15450400 9729.37542213 0 160.76800888 0 3153.67094026 0 -54.53075709 0 330.36904702 0 26061
0.15550000 0.15549900 9651.60394913 0 -72.72886031 0 3159.18326514 0 297.72876352 0 639.88886201 0 26128
0.15650000 0.15649500 9665.68976926 0 123.83986865 0 3505.62789302 0 137.52973304 0 1064.64510418 0 26331
0.15750000 0.15749700 9763.35884958 0 7.87575913 0 3013.57803160 0 599.77754825 0 911.41910922 0 27345
0.15850000 0.15849900 9373.68073600 0 -9.98787795 0 2995.87648128 0 59.93682831 0 1534.79983370 0 26980
0.15950000 0.15949700 9562.26435771 0 167.34065220 0 2863.32558655 0 -23.33831844 0 1448.12212954 0 27777
0.16050000 0.16050000 9237.12591918 0 181.81244597 0 3159.74891619 0 122.63425554 0 1735.97196394 0 28224
0.16150000 0.16150500 9028.72232852 0 297.33724427 0 2949.18254212 0 -167.12770121 0 1500.91622702 0 28075
0.16250000 0.16249700 8792.08055043 0 123.70788340 0 3152.52854697 0 -126.41635370 0 1220.85241288 0 28590
0.16350000 0.16349900 8569.39149811 0 105.81079527 0 2921.72073848 0 92.81202336 0 888.34720133 0 29163
0.16450000 0.16449100 8469.45981360 0 139.14793867 0 3357.63805214 0 -424.54440031 0 585.90911559 0 28996
0.16550000 0.16550500 8217.37908936 0 135.59099181 0 3114.53010623 0 -367.50348352 0 -118.17781260 0 30777
0.16650000 0.16650700 8281.91876440 0 45.06641691 0 3225.90790598 0 31.29669590 0 -390.26705614 0 29211
0.16750000 0.16749900 8252.19435658 0 -80.17693180 0 3122.68213598 0 -30.14753698 0 -550.28862747 0 30922
0.16850000 0.16850800 8400.00673831 0 -181.08929993 0 2708.53684194 0 697.82372927 0 -782.67804064 0 30867
0.16950000 0.16949900 8641.12935997 0 -55.88976145 0 2592.16800356 0 199.86891461 0 -653.37686662 0 30852
0.17050000 0.17049200 8473.79647161 0 145.06952872 0 2157.00489129 0 140.16500143 0 -464.73446157 0 31257
0.17150000 0.17149500 8421.88966989 0 174.14288328 0 2414.83085555 0 -100.34261335 0 -497.92043196 0 32608
0.17250000 0.17250900 8111.22524337 0 153.84155639 0 2477.51830070 0 85.27566594 0 243.88211146 0 32361
0.17350000 0.17350400 8027.06524093 0 41.13137115 0 2405.99117158 0 230.43847163 0 -65.47078103 0 32508
0.17450000 0.17449800 8092.99131559 0 51.65381152 0 2359.66324193 0 160.42085442 0 133.59901284 0 32791
0.17550000 0.17549800 7862.52733420 0 121.84678055 0 2418.66840970 0 -205.45998699 0 -221.45238387 0 33633
0.17650000 0.17650100 7726.03906456 0 154.75103454 0 2425.35640146 0 -102.14903660 0 252.47335261 0 33984
0.17750000 0.17750300 7594.77474867 0 57.38995675 0 2899.21669987 0 -174.93257651 0 -108.81429140 0 34069
0.17850000 0.17849800 7630.51058524 0 78.77145532 0 2517.29133296 0 -48.70532772 0 -434.85921347 0 34536
