### header ###
fiducial parameters:
Omega_m = 0.31
Omega_nu = 0
Omega_de = 0.69
Omega_k = 0
H_0 = 100
w_de = -1
zeff = 0
beta = 0
fgrowth = 0
b_1 = 2
gamma = 0.55
Lx = 3500 Ly = 3500 Lz = 3500
nx = 700 ny = 700 nz = 700
xoffset = 1379.75464 yoffset = 22.6059522 zoffset = 368.141391
bins = 400 dk = 0.001
kx_ny = 0.628318531 ky_ny = 0.628318531 kz_ny = 0.628318531
############################
A(data) = 3.33554048 (not used)
A(ran) = 3.34014581 (used)
Ngal = 187359
weighted Ngal = 0
Nran = 9399747
weighted Nran = 0
SN(data) = 6681.229
SN(ran) = 132.855578
SN(data+ran) = 6814.08458
############################
13 columns: k_central k_mean P_0(k) sigma^{lin}_{P_0(k)} P^img_1(k) sigma^{lin}_{P_1(k)} P_2(k) sigma^{lin}_{P_2(k)} P^img_3(k) sigma^{lin}_{P_3(k)} P_4(k) sigma^{lin}_{P_4(k)} N_modes
### header ###
0.00050000 0 0 0 0 0 0 0 0 0 0 0 0
0.00150000 0.00179520 4766.75244201 0 -13984.00293626 0 -28640.24331955 0 30897.30189851 0 22035.99009673 0 3
0.00250000 0.00253879 13242.88915618 0 -13498.20850993 0 -14373.08212520 0 -9717.04201113 0 -12664.37232336 0 6
0.00350000 0.00331552 31048.69673685 0 -21246.96234583 0 -43527.95698315 0 8934.40278967 0 16624.04054584 0 7
0.00450000 0.00420575 41382.36493351 0 -19532.81785748 0 -48686.69450770 0 -4086.51824198 0 -7504.74750305 0 24
0.00550000 0.00557378 76791.12210268 0 -22365.39864609 0 -91518.45705841 0 -6175.26790726 0 9043.80635637 0 45
0.00650000 0.00659388 73956.10125075 0 -19748.65255010 0 -57142.29032512 0 -40734.41720780 0 -64933.07979746 0 40
0.00750000 0.00754703 114425.66067542 0 -15258.71420152 0 -108273.37372824 0 -22738.28468749 0 12745.55988502 0 57
0.00850000 0.00846663 113692.53255715 0 -11719.51325534 0 -69874.54077380 0 -55869.35365137 0 -54768.77417820 0 75
0.00950000 0.00948925 122726.31247147 0 5607.16570837 0 -104429.94124978 0 -33897.13793710 0 -8913.88407532 0 112
0.01050000 0.01054430 119177.12944804 0 7013.89549090 0 -12165.49028463 0 -53040.65478170 0 -52123.74552999 0 105
0.01150000 0.01145670 106266.42164046 0 15031.01192817 0 -21894.57733564 0 -48466.53424828 0 -45252.85993253 0 144
0.01250000 0.01249090 90675.19335444 0 13827.72797126 0 31535.93301879 0 -24283.17751041 0 -44943.41553768 0 169
0.01350000 0.01339930 67423.16442431 0 1775.76717859 0 -6595.80173074 0 -14382.28781867 0 -40691.82701152 0 180
0.01450000 0.01448870 79616.38270130 0 -4219.76788212 0 34128.61121741 0 16823.57117894 0 -42991.36487479 0 267
0.01550000 0.01550050 87411.27591651 0 -4631.06273855 0 27037.89809644 0 -1495.81427642 0 -64371.97614385 0 238
0.01650000 0.01653350 87614.68846855 0 1831.53371685 0 14658.79135859 0 1790.07482266 0 -29434.26210907 0 315
0.01750000 0.01747870 91382.47898383 0 917.58248736 0 22535.64851925 0 -10762.25422913 0 -29734.38989849 0 297
0.01850000 0.01844180 86716.74516362 0 -4054.71978033 0 7117.14344330 0 9474.78808738 0 -27344.34786812 0 388
0.01950000 0.01947590 97529.77489238 0 -1484.17961082 0 12996.44275999 0 -1038.55084512 0 -37308.23555852 0 399
0.02050000 0.02045430 94560.99420525 0 2901.90076953 0 8920.00641603 0 -12598.15787758 0 -34343.11496638 0 462
0.02150000 0.02154770 89731.11067021 0 6207.99802945 0 29959.87393245 0 -12098.72127900 0 -23449.78497172 0 571
0.02250000 0.02255340 82068.86817050 0 7552.43964992 0 30304.81015754 0 2757.64866202 0 -22420.18915902 0 510
0.02350000 0.02348930 76479.57038041 0 2822.17724587 0 40872.39169783 0 -8689.33170190 0 -27725.10865935 0 555
0.02450000 0.02439640 77731.10104405 0 4059.52226861 0 44902.04537306 0 4188.87889862 0 -27657.23053403 0 592
0.02550000 0.02547300 67357.06089049 0 4594.25105588 0 46752.94431978 0 -169.01320470 0 -17137.89570045 0 837
0.02650000 0.02652900 61388.55507675 0 5082.08626245 0 50694.75571518 0 -274.36182979 0 -10073.99000251 0 723
0.02750000 0.02749970 58403.58124207 0 3488.21471381 0 48307.93013192 0 10111.71116333 0 -4345.48659953 0 826
0.02850000 0.02848090 53809.49655415 0 -419.27940911 0 41279.66044977 0 14974.89047161 0 -2382.75511398 0 831
0.02950000 0.02946900 53125.61335032 0 467.03255757 0 33645.58959031 0 11936.78980356 0 8544.22557223 0 996
0.03050000 0.03053250 53096.55441432 0 16.94113787 0 25704.18166341 0 10018.50074418 0 13455.84013758 0 1041
0.03150000 0.03150510 50571.08886921 0 59.46711612 0 23803.03959452 0 6720.52224043 0 11670.49016483 0 1036
0.03250000 0.03246190 49998.22854683 0 1043.00285157 0 11547.82152658 0 -768.07869810 0 13363.00681913 0 1059
0.03350000 0.03345080 46657.11637815 0 1956.46495927 0 20897.58964196 0 -2554.16956281 0 6679.11880222 0 1302
0.03450000 0.03451200 47629.48161460 0 17.56634864 0 14634.72346121 0 -1087.58724507 0 8100.14513762 0 1339
0.03550000 0.03553350 47358.52367315 0 -982.68337697 0 20894.26228288 0 825.78841406 0 1637.99233010 0 1365
0.03650000 0.03647120 49862.91594406 0 -642.35998069 0 8683.48664111 0 4449.49984451 0 -133.42044457 0 1308
0.03750000 0.03744890 51058.87971099 0 -2093.40796799 0 13553.33175876 0 412.61359975 0 -4740.59939961 0 1579
0.03850000 0.03847530 51931.86782278 0 1025.85031549 0 11951.87383140 0 -2862.46047319 0 -6123.63838546 0 1662
0.03950000 0.03950240 50882.75150345 0 1309.91472437 0 16468.76378857 0 -5118.86467153 0 -11532.84841070 0 1683
0.04050000 0.04050350 49901.29148550 0 1560.90851131 0 18217.29098746 0 -4330.41366287 0 -12172.58865067 0 1822
0.04150000 0.04152450 47048.74654239 0 1526.00451452 0 19517.84474160 0 -4025.82721228 0 -14330.93557680 0 1887
0.04250000 0.04250150 47641.46010730 0 2200.56002171 0 24544.70793445 0 -523.83168627 0 -19886.73795210 0 1920
0.04350000 0.04349210 43984.24882560 0 1452.62515551 0 24561.67746578 0 896.25300651 0 -16082.23557492 0 2005
0.04450000 0.04448520 42538.40039143 0 1335.15828863 0 26305.87909786 0 3645.15515062 0 -11088.24668983 0 2151
0.04550000 0.04548030 41689.48017701 0 822.38230748 0 22565.26201510 0 2045.30544683 0 -7313.82363878 0 2274
0.04650000 0.04648670 38764.28789389 0 988.80793593 0 21331.25544264 0 5463.27961036 0 -4107.78006653 0 2311
0.04750000 0.04749250 38790.01947081 0 1740.48608110 0 24009.77950563 0 2172.53256702 0 3200.48688258 0 2568
0.04850000 0.04851840 37078.20413382 0 393.72972782 0 21939.05303540 0 1627.85497609 0 7119.13985875 0 2493
0.04950000 0.04949480 35862.83077223 0 832.93558138 0 25171.36056202 0 3678.62838301 0 8727.38559863 0 2644
0.05050000 0.05050630 35359.17951881 0 580.55983130 0 19833.50020675 0 1512.98344930 0 10656.23347750 0 2829
0.05150000 0.05149060 35556.71373646 0 487.05549543 0 22411.09437752 0 1993.96429615 0 13502.31225280 0 2784
0.05250000 0.05249300 34295.09008360 0 259.82681619 0 21703.36510025 0 792.80208522 0 12495.56430581 0 3055
0.05350000 0.05348950 34661.65414274 0 398.33922928 0 23196.01838554 0 1645.23488171 0 10613.75419319 0 3009
0.05450000 0.05448610 33631.06012231 0 -35.73029097 0 18149.52377410 0 1475.31774446 0 9693.38448804 0 3336
0.05550000 0.05550870 34547.63663811 0 -197.73164095 0 19895.49999769 0 310.11097579 0 7904.06386677 0 3349
0.05650000 0.05647670 33919.54215493 0 -222.67019729 0 16394.00912114 0 2475.12260216 0 4729.12001077 0 3324
0.05750000 0.05747970 33385.61193384 0 760.44019076 0 14806.85883785 0 -237.15419139 0 2418.02512027 0 3639
0.05850000 0.05849280 32421.56509511 0 829.53391127 0 15595.33202890 0 496.56508769 0 1688.37963784 0 3846
0.05950000 0.05951020 32222.36719792 0 498.48164652 0 14267.38301829 0 93.45098721 0 1098.56198445 0 3787
0.06050000 0.06049470 31077.86658483 0 11.97039613 0 13161.14703467 0 2836.90635542 0 2184.24487100 0 3930
0.06150000 0.06148310 31429.34661612 0 -690.00110806 0 9330.49161509 0 2029.97741265 0 -641.10112984 0 4083
0.06250000 0.06249100 32548.22656425 0 -608.22460385 0 8642.18302368 0 1684.83045481 0 -659.78314198 0 4303
0.06350000 0.06350600 31567.87566600 0 622.20949408 0 6857.30997239 0 -133.15869232 0 -1243.31208670 0 4470
0.06450000 0.06451750 31951.18743253 0 376.52395400 0 8003.06389073 0 -2381.20234640 0 -1145.45445602 0 4479
0.06550000 0.06550280 30313.46129116 0 134.11918998 0 7496.83947962 0 424.48450784 0 -3876.75043410 0 4636
0.06650000 0.06648880 30779.73521086 0 48.06425653 0 8568.03837208 0 364.92367111 0 -2659.18101552 0 4653
0.06750000 0.06749660 30369.69365968 0 725.62270530 0 8208.70577335 0 -553.48732867 0 -4794.97953825 0 5220
0.06850000 0.06852730 29903.75247589 0 702.53526974 0 8550.12608901 0 585.70171020 0 -3350.36222694 0 5029
0.06950000 0.06949320 27984.97540385 0 532.59927745 0 7529.01504197 0 -550.44501334 0 -4559.30269429 0 5040
0.07050000 0.07048030 27836.35336474 0 825.39134921 0 9988.35487087 0 -224.43924320 0 -417.48263521 0 5475
0.07150000 0.07148790 27315.06710817 0 -9.81864847 0 7988.81170265 0 1683.38859921 0 -3337.41880010 0 5509
0.07250000 0.07249820 27367.63938171 0 49.15163748 0 8134.68312492 0 532.00922578 0 -1974.68779586 0 5916
0.07350000 0.07351270 26702.16756482 0 651.00889607 0 7790.29036848 0 -642.47200178 0 -2367.33835022 0 5721
0.07450000 0.07449140 26497.75680506 0 313.97625793 0 7999.88071721 0 -219.92068957 0 -1476.82614725 0 6028
0.07550000 0.07549160 26352.79486095 0 -139.15902987 0 8050.92240556 0 1074.46081348 0 -706.67228620 0 6183
0.07650000 0.07648840 26540.45791331 0 -283.78269248 0 7942.98287686 0 1760.01767893 0 -238.20230950 0 6330
0.07750000 0.07749960 26649.37346734 0 -75.96260969 0 6983.56106725 0 -8.88928380 0 -926.57301161 0 6583
0.07850000 0.07848650 26530.25401212 0 776.89065408 0 6872.17217630 0 -390.11177938 0 -1572.47662973 0 6549
0.07950000 0.07947320 25299.24206283 0 802.21518407 0 7853.66546784 0 -1726.69972329 0 -911.31041549 0 6828
0.08050000 0.08048110 24406.62253244 0 844.25414786 0 10063.71955414 0 -2177.07995777 0 -3630.21530833 0 7147
0.08150000 0.08149960 23805.92330573 0 855.33869009 0 10977.62309147 0 -688.17771529 0 -3819.75277298 0 7386
0.08250000 0.08250610 22783.42585907 0 -101.28525418 0 10132.81771112 0 950.91264331 0 -4042.22000137 0 7227
0.08350000 0.08350160 23247.59245135 0 -433.28980910 0 9184.47600726 0 1721.47576953 0 -2909.50933064 0 7798
0.08450000 0.08449610 24181.02758651 0 -519.08576309 0 7624.05550862 0 3165.54961219 0 -2105.34209591 0 7371
0.08550000 0.08548940 24273.52816906 0 -328.27946551 0 5721.31630736 0 1926.79600744 0 -1374.15493710 0 8256
0.08650000 0.08650700 23714.53184287 0 666.64637465 0 5773.11219711 0 -578.64881806 0 -166.51213978 0 8037
0.08750000 0.08749060 23418.39688436 0 782.07246129 0 6185.50508204 0 -1034.52141327 0 150.76374924 0 8155
0.08850000 0.08849210 21841.89415013 0 642.01171711 0 7371.15403580 0 -882.71065504 0 162.92968317 0 8718
0.08950000 0.08949900 21673.52978046 0 658.44443451 0 7730.71954967 0 360.41288131 0 841.22181462 0 8571
0.09050000 0.09049190 21015.04541764 0 168.91116568 0 7275.10427023 0 932.49571078 0 951.54705978 0 8932
0.09150000 0.09150830 20724.56696957 0 -9.35256310 0 7322.05330691 0 1360.62367682 0 1771.80762128 0 9285
0.09250000 0.09250820 20747.63665922 0 86.54649529 0 6110.78368820 0 936.83458703 0 2278.84168977 0 9204
0.09350000 0.09350330 20289.01566541 0 448.30174417 0 6438.31782528 0 319.91892125 0 3934.34701985 0 9349
0.09450000 0.09448040 19530.04505825 0 285.01825182 0 5211.89763153 0 555.10442518 0 2877.59995702 0 9564
0.09550000 0.09549270 19886.73795210 0 -179.28143483 0 5342.16373969 0 878.89084681 0 3832.58528785 0 10155
0.09650000 0.09649430 19160.93002381 0 51.80243355 0 5019.37663490 0 576.96073789 0 2295.35648203 0 9913
0.09750000 0.09749140 19402.16355743 0 492.31826838 0 4393.40057034 0 -198.05994038 0 3301.66078114 0 10476
0.09850000 0.09850240 19086.06444441 0 17.71663436 0 4134.90913427 0 112.56899431 0 2589.93867297 0 10575
0.09950000 0.09950330 18042.60463552 0 360.97964148 0 3830.83287873 0 -178.68472843 0 1997.22510806 0 10882
0.10050000 0.10051200 18133.99609837 0 540.30100461 0 4531.21978362 0 -762.92129152 0 1164.86405068 0 10875
0.10150000 0.10150300 17230.39628300 0 564.37777495 0 4811.99343437 0 -669.61548807 0 -149.18769015 0 11118
0.10250000 0.10250800 16748.15103969 0 458.29380350 0 4842.05057809 0 -727.71783241 0 -155.83908096 0 11575
0.10350000 0.10349800 16297.73753163 0 221.27603384 0 5669.09895213 0 154.72441567 0 -518.49349317 0 11364
0.10450000 0.10450100 16032.10336472 0 -26.66035375 0 5091.91306294 0 876.93879615 0 -200.85824937 0 12093
0.10550000 0.10551000 16064.71148374 0 -47.36972578 0 5089.87228271 0 1085.30245850 0 390.90701820 0 12067
0.10650000 0.10649700 16026.33594230 0 306.83130885 0 4538.14069052 0 29.15188023 0 738.79239256 0 12054
0.10750000 0.10749900 16015.35565732 0 123.23096193 0 4224.32636406 0 297.18862223 0 1376.67263880 0 12807
0.10850000 0.10850100 15567.38221259 0 102.56972570 0 5173.94355557 0 317.10175723 0 2889.14589304 0 12736
0.10950000 0.10950300 15669.19940057 0 86.52409107 0 4786.87187328 0 258.98721258 0 2696.00378939 0 12933
0.11050000 0.11050200 15882.81585379 0 -131.29648035 0 4738.73607852 0 483.65826180 0 3005.54800501 0 13428
0.11150000 0.11150900 15540.76333991 0 109.98674183 0 5110.66827698 0 -127.35688720 0 3026.17763134 0 13453
0.11250000 0.11250000 15561.28205426 0 502.79612213 0 4945.94181991 0 -600.82677548 0 2278.49786266 0 13668
0.11350000 0.11349100 14895.58841343 0 449.84452966 0 5933.56854336 0 -868.57492453 0 2453.98278078 0 13791
0.11450000 0.11448600 14463.58629230 0 298.56614889 0 6064.44466735 0 -224.85849045 0 1337.60944315 0 14205
0.11550000 0.11549300 14183.53356936 0 195.15737414 0 6089.36658689 0 314.59514672 0 1188.34411462 0 14776
0.11650000 0.11649800 13923.22317698 0 32.17689329 0 5612.36747974 0 446.44064132 0 345.73368215 0 14553
0.11750000 0.11747300 13771.82833864 0 165.21114238 0 5152.47099828 0 562.72962308 0 936.04822116 0 14568
0.11850000 0.11849100 13535.69675561 0 124.39331937 0 4926.55440764 0 461.37493801 0 878.69120527 0 16015
0.11950000 0.11950300 13292.46680654 0 119.02961653 0 4673.88584997 0 313.05679770 0 1134.36325908 0 15270
0.12050000 0.12050700 13165.58351345 0 -44.30411895 0 4092.79585945 0 322.59189972 0 1512.88362853 0 15999
0.12150000 0.12150000 13377.64719910 0 -67.15087554 0 4342.46979396 0 479.08092482 0 1454.04482872 0 15670
0.12250000 0.12250700 13550.89169543 0 143.62989136 0 4424.31173624 0 -419.23282609 0 1549.63985521 0 16887
0.12350000 0.12352200 13148.83580606 0 330.20711554 0 4985.16029232 0 -283.87031293 0 1506.14018078 0 16407
0.12450000 0.12449800 12815.98898564 0 270.60635050 0 5333.95625395 0 -206.67225481 0 2662.98529607 0 16306
0.12550000 0.12549900 12989.34439394 0 -70.58770474 0 5690.37186788 0 140.32471467 0 2351.79958330 0 17523
0.12650000 0.12650100 13047.90591383 0 -159.94171471 0 5408.33382068 0 1076.56148618 0 2839.09132122 0 17154
0.12750000 0.12750600 13125.21155656 0 8.08329761 0 5566.08391487 0 27.90711520 0 2914.38945730 0 18007
0.12850000 0.12850300 13262.96422265 0 54.66340781 0 4834.75257050 0 -262.42659275 0 2889.05716347 0 17496
0.12950000 0.12949900 13263.74060644 0 81.43511718 0 5292.84118686 0 459.17555366 0 2367.21634705 0 18405
0.13050000 0.13049000 13092.71434950 0 27.35399721 0 4503.79125357 0 -199.81567686 0 1876.14251097 0 18100
0.13150000 0.13148800 12875.99236113 0 142.09043322 0 4631.68384558 0 -45.87862526 0 2120.90304523 0 19059
0.13250000 0.13249300 12850.37169618 0 152.32428065 0 4273.07217465 0 413.86246852 0 798.89891618 0 18957
0.13350000 0.13349100 12481.58939765 0 253.63571005 0 4445.91738789 0 134.94437503 0 1938.98523288 0 19468
0.13450000 0.13450700 12004.11336903 0 242.39921842 0 4118.82689869 0 203.49795425 0 752.77617367 0 19953
0.13550000 0.13551000 12100.38495854 0 32.21582339 0 3595.18930837 0 428.11798396 0 1587.74920793 0 19956
0.13650000 0.13649900 11467.52126068 0 7.75189264 0 3559.44238061 0 345.43754719 0 979.67655348 0 19723
0.13750000 0.13749600 11800.36808109 0 144.59593461 0 3041.82731023 0 167.01124365 0 1507.91477229 0 20946
0.13850000 0.13851100 11346.62721394 0 81.55789673 0 2790.54515217 0 387.65951573 0 936.82016847 0 20955
0.13950000 0.13949800 11270.98525075 0 171.00518367 0 2636.39969699 0 -122.39579480 0 687.06748647 0 20506
0.14050000 0.14048300 11010.85231753 0 143.73082125 0 2634.76929104 0 -124.19256871 0 879.90790957 0 21447
0.14150000 0.14148400 11005.00725674 0 138.14862183 0 2580.12296367 0 -343.51211540 0 333.15626481 0 21771
0.14250000 0.14249400 10964.22492556 0 -48.35262766 0 2509.28348876 0 383.59570117 0 497.47678408 0 22470
0.14350000 0.14350900 10725.80855596 0 41.60851444 0 2344.14665740 0 163.07719609 0 349.63889260 0 22519
0.14450000 0.14449900 10896.57971537 0 84.22788057 0 2231.11626930 0 271.26849496 0 477.55144876 0 22218
0.14550000 0.14550500 10819.97281805 0 11.70509470 0 2595.76155137 0 53.01958151 0 538.64176155 0 23559
0.14650000 0.14650700 10717.73416458 0 139.41745476 0 2193.37292609 0 17.71641253 0 483.36323596 0 23044
0.14750000 0.14750500 10591.41652254 0 173.90885903 0 2914.65564602 0 -139.94317749 0 1204.75908611 0 23649
0.14850000 0.14849900 10504.73881839 0 132.23479562 0 2631.31992878 0 -111.07833744 0 695.35150147 0 23640
0.14950000 0.14949500 10395.75671718 0 22.05861614 0 2920.83344272 0 441.00595482 0 1578.33278172 0 24457
0.15050000 0.15050000 10396.87692807 0 77.45160288 0 3074.81252996 0 -46.26149338 0 1722.06360297 0 24591
0.15150000 0.15149900 10144.28600877 0 203.04210605 0 3199.68831640 0 -198.02223031 0 1664.66665876 0 25020
0.15250000 0.15250500 10128.46996192 0 158.75606576 0 3470.52425467 0 -163.15372535 0 1505.08651707 0 25297
0.15350000 0.15350100 9734.52173752 0 228.60842414 0 3764.54079457 0 -276.58117830 0 1593.84936625 0 25452
0.15450000 0.15450400 9643.20791304 0 158.81484910 0 3874.21055000 0 22.81869587 0 1725.60169480 0 26061
0.15550000 0.15549900 9646.10271544 0 -13.84436477 0 3717.86903782 0 197.47099783 0 1433.20446965 0 26128
0.15650000 0.15649500 9558.23825322 0 49.80679449 0 4103.46559092 0 51.99142755 0 1382.18496369 0 26331
0.15750000 0.15749700 9381.82167456 0 216.51347387 0 3580.41583404 0 -123.56037048 0 779.95182443 0 27345
0.15850000 0.15849900 9191.27491099 0 120.57351114 0 3833.90514029 0 264.57606672 0 1773.63766878 0 26980
0.15950000 0.15949700 9093.91638418 0 26.06154003 0 3432.74763787 0 191.35420271 0 928.02263105 0 27777
0.16050000 0.16050000 9101.45839811 0 25.86178757 0 3307.94948981 0 471.65425934 0 1301.19704357 0 28224
0.16150000 0.16150500 8893.58718490 0 126.35757035 0 3063.22222914 0 3.20484572 0 1124.13717549 0 28075
0.16250000 0.16249700 8840.81526982 0 66.44314626 0 2456.33411453 0 24.19755347 0 672.83082607 0 28590
0.16350000 0.16349900 8690.16354167 0 67.45810169 0 3047.97183334 0 52.85387903 0 1121.08709633 0 29163
0.16450000 0.16449100 8566.50778690 0 87.46895014 0 2474.01348247 0 -85.74371446 0 347.41067113 0 28996
0.16550000 0.16550500 8612.10369755 0 41.29396809 0 2841.56465813 0 219.50033320 0 860.77004924 0 30777
0.16650000 0.16650700 8446.32357677 0 107.23268672 0 2665.82464249 0 -25.82185926 0 478.95004870 0 29211
0.16750000 0.16749900 8420.02634880 0 43.13366493 0 2498.74685166 0 246.32439302 0 685.35167830 0 30922
0.16850000 0.16850800 8364.51490808 0 -12.13787320 0 2620.25091423 0 219.61124517 0 791.33471986 0 30867
0.16950000 0.16949900 8337.44129633 0 19.68731823 0 2134.33448473 0 194.86234830 0 1048.67821705 0 30852
0.17050000 0.17049200 8526.20237719 0 -19.78869177 0 1988.89561915 0 390.48777096 0 611.93460922 0 31257
0.17150000 0.17149500 8217.19053901 0 96.14570443 0 1871.71712339 0 -163.48867950 0 622.79621840 0 32608
0.17250000 0.17250900 8113.43239156 0 209.19993860 0 1763.47813237 0 -110.75513996 0 676.58741447 0 32361
0.17350000 0.17350400 7998.02848732 0 148.18504595 0 1984.08203967 0 -211.55792707 0 214.62131567 0 32508
0.17450000 0.17449800 7823.19794982 0 41.49349873 0 2067.54329671 0 -81.98335504 0 -189.93785686 0 32791
0.17550000 0.17549800 7708.08241670 0 54.03376056 0 1894.02152045 0 25.97724693 0 -88.59381934 0 33633
0.17650000 0.17650100 7746.48014053 0 24.17781114 0 1746.44205386 0 258.59125685 0 -82.81996403 0 33984
0.17750000 0.17750300 7750.49515383 0 -29.07424186 0 1569.62619211 0 216.25837634 0 124.53528669 0 34069
