### header ###
fiducial parameters:
Omega_m = 0.31
Omega_nu = 0
Omega_de = 0.69
Omega_k = 0
H_0 = 100
w_de = -1
zeff = 0
beta = 0
fgrowth = 0
b_1 = 2
gamma = 0.55
Lx = 3500 Ly = 3500 Lz = 3500
nx = 700 ny = 700 nz = 700
xoffset = 1379.75464 yoffset = 22.6059522 zoffset = 368.141391
bins = 400 dk = 0.001
kx_ny = 0.628318531 ky_ny = 0.628318531 kz_ny = 0.628318531
############################
A(data) = 3.34702488 (not used)
A(ran) = 3.35164568 (used)
Ngal = 188333
weighted Ngal = 0
Nran = 9399747
weighted Nran = 0
SN(data) = 6590.56507
SN(ran) = 133.31299
SN(data+ran) = 6723.87806
############################
13 columns: k_central k_mean P_0(k) sigma^{lin}_{P_0(k)} P^img_1(k) sigma^{lin}_{P_1(k)} P_2(k) sigma^{lin}_{P_2(k)} P^img_3(k) sigma^{lin}_{P_3(k)} P_4(k) sigma^{lin}_{P_4(k)} N_modes
### header ###
0.00050000 0 0 0 0 0 0 0 0 0 0 0 0
0.00150000 0.00179520 93605.59850013 0 -88372.10630814 0 -113637.07657240 0 134403.12461856 0 238303.23939012 0 3
0.00250000 0.00253879 118425.14629495 0 -61278.41949105 0 -5676.27495656 0 -187630.88789278 0 -145263.62467026 0 6
0.00350000 0.00331552 164623.30894338 0 -17365.70888577 0 -117664.29018430 0 12881.31613567 0 50068.54673548 0 7
0.00450000 0.00420575 184168.21620554 0 -2839.25768917 0 -42962.30593879 0 -94119.67547868 0 -20112.11107409 0 24
0.00550000 0.00557378 154970.64023935 0 34682.17285709 0 22767.45453546 0 -82545.12416745 0 31775.17013696 0 45
0.00650000 0.00659388 108015.61431117 0 25190.88106865 0 37974.59467117 0 37209.63481765 0 -50618.44828018 0 40
0.00750000 0.00754703 94636.63616843 0 3013.71112597 0 66127.71262075 0 5398.80648250 0 16486.39879172 0 57
0.00850000 0.00846663 87803.34972863 0 8719.73267274 0 42495.69928318 0 26249.20308145 0 -48282.97493879 0 75
0.00950000 0.00948925 83917.21614192 0 13906.80820550 0 54898.76300643 0 7042.63278220 0 7897.58660775 0 112
0.01050000 0.01054430 57043.35684834 0 7204.57534884 0 41732.29219723 0 -11.18181203 0 10459.10963414 0 105
0.01150000 0.01145670 67560.91709040 0 -3066.84905055 0 42522.87271570 0 28797.51649227 0 -11324.99937989 0 144
0.01250000 0.01249090 55740.47394283 0 -4090.84380879 0 23950.66342590 0 13694.96634379 0 -11813.89934137 0 169
0.01350000 0.01339930 62516.08615850 0 4894.68939881 0 10372.84230428 0 -5680.68925294 0 -9742.62940249 0 180
0.01450000 0.01448870 61970.84291653 0 -441.65922632 0 23115.49629570 0 -3257.71745883 0 -793.75260080 0 267
0.01550000 0.01550050 69662.58800012 0 -4092.91786262 0 6099.79231202 0 10893.19690030 0 -4777.93236854 0 238
0.01650000 0.01653350 72122.17183536 0 -6859.99404205 0 9009.64546977 0 14694.94866064 0 2485.75906004 0 315
0.01750000 0.01747870 69454.84988128 0 337.23893441 0 -9836.60511423 0 1495.29299017 0 -11041.85221300 0 297
0.01850000 0.01844180 83662.67317195 0 -2800.59377661 0 5482.72247861 0 -4565.28084945 0 5253.41198171 0 388
0.01950000 0.01947590 73006.91661592 0 6593.48367058 0 6816.08399333 0 -12623.22398268 0 -4328.05123792 0 399
0.02050000 0.02045430 73442.13518417 0 6796.19747721 0 32938.96943274 0 -20115.32752120 0 1505.01996989 0 462
0.02150000 0.02154770 63341.04938751 0 3503.06582652 0 38270.61871772 0 -1772.89455858 0 -5648.64678496 0 571
0.02250000 0.02255340 71332.47861265 0 -3723.74737220 0 40367.18767684 0 8321.48106392 0 635.86608488 0 510
0.02350000 0.02348930 71112.20744125 0 -3787.06701558 0 44063.88361969 0 12183.67984762 0 8023.59369628 0 555
0.02450000 0.02439640 78233.64317777 0 -768.63991267 0 33703.04199050 0 8531.09359504 0 -255.46686667 0 592
0.02550000 0.02547300 79262.57351866 0 1868.47849388 0 34755.15293301 0 -1755.54792656 0 12453.30684543 0 837
0.02650000 0.02652900 71332.81134855 0 4357.94201370 0 34926.84466177 0 -3184.32700862 0 -2718.09745371 0 723
0.02750000 0.02749970 73672.16660887 0 3840.65967923 0 51685.75416250 0 599.15533210 0 17003.80312935 0 826
0.02850000 0.02848090 64382.73460489 0 2054.35586354 0 41193.48184949 0 5172.01368730 0 -1174.70194238 0 831
0.02950000 0.02946900 63123.99466324 0 1278.67082257 0 40811.72285053 0 8817.19102032 0 14974.11408783 0 996
0.03050000 0.03053250 62457.30281468 0 568.16541871 0 38724.13776093 0 9339.30911666 0 13331.17508389 0 1041
0.03150000 0.03150510 60509.46680663 0 899.94748422 0 28012.81430819 0 6715.13191871 0 5142.25600589 0 1036
0.03250000 0.03246190 60672.61831374 0 690.17523986 0 27939.94514424 0 4260.12874781 0 18627.44345060 0 1059
0.03350000 0.03345080 56890.07650652 0 120.69773255 0 18833.62880187 0 1079.51285369 0 4378.23890411 0 1302
0.03450000 0.03451200 56151.73552567 0 2700.85064245 0 23483.50221044 0 -4110.39758901 0 4964.39757163 0 1339
0.03550000 0.03553350 55573.44051679 0 2169.51576145 0 23077.00984229 0 -3957.42780070 0 -4886.62609863 0 1365
0.03650000 0.03647120 50049.13714082 0 2075.51786731 0 26095.92273963 0 -1085.21372892 0 -4247.65115125 0 1308
0.03750000 0.03744890 48966.52540671 0 672.50918136 0 23622.36399623 0 -134.51847307 0 -11637.88204580 0 1579
0.03850000 0.03847530 48188.47794079 0 1703.75203681 0 23772.53880291 0 2573.81207261 0 -11602.83386344 0 1662
0.03950000 0.03950240 46236.64910184 0 1016.05235211 0 20735.65816652 0 1829.03819753 0 -11395.87212839 0 1683
0.04050000 0.04050350 44892.50694369 0 -438.26088357 0 17257.56971553 0 5037.88784261 0 -9206.44766842 0 1822
0.04150000 0.04152450 43350.71965591 0 -75.01220502 0 15293.87329584 0 2845.54639784 0 -7863.90264262 0 1887
0.04250000 0.04250150 44344.82363838 0 -248.54595977 0 10094.61962883 0 2671.10405224 0 -12665.81417896 0 1920
0.04350000 0.04349210 44597.48110486 0 -40.49384915 0 7573.60165370 0 41.54629282 0 -10908.50275209 0 2005
0.04450000 0.04448520 44122.22331563 0 -185.94835332 0 7433.61965702 0 -950.01092900 0 -13603.90761684 0 2151
0.04550000 0.04548030 42296.61229796 0 1704.58387658 0 6210.31608961 0 -356.80269670 0 -6231.54464057 0 2274
0.04650000 0.04648670 41593.20858750 0 2177.26850812 0 9330.20324397 0 -1668.77040163 0 -11799.92443321 0 2311
0.04750000 0.04749250 39480.11374492 0 1956.42059448 0 12318.32697857 0 -1042.47158324 0 -7621.57108050 0 2568
0.04850000 0.04851840 36880.78082814 0 1119.91142945 0 13878.30382934 0 551.96561644 0 -3103.43890928 0 2493
0.04950000 0.04949480 35151.88504785 0 1085.06177952 0 15556.06919170 0 891.21316662 0 -3379.17715661 0 2644
0.05050000 0.05050630 34192.71833577 0 1110.40627367 0 17041.73502291 0 -700.84386220 0 135.15843513 0 2829
0.05150000 0.05149060 34805.17423125 0 426.88907934 0 17853.83246346 0 596.91823768 0 -445.34261282 0 2784
0.05250000 0.05249300 33544.65969808 0 -21.75926473 0 17963.63531325 0 881.80561337 0 2391.57261555 0 3055
0.05350000 0.05348950 33415.44725364 0 154.43049895 0 16418.52066639 0 995.75213434 0 -1085.67734095 0 3009
0.05450000 0.05448610 33578.26602484 0 117.40586530 0 16588.54871561 0 1449.26452283 0 3111.36911510 0 3336
0.05550000 0.05550870 33468.35226308 0 351.94253420 0 15649.12433409 0 2902.67715332 0 3284.33633150 0 3349
0.05650000 0.05647670 32752.97005992 0 157.69131085 0 13354.46659748 0 1534.40055060 0 3004.56088849 0 3324
0.05750000 0.05747970 33648.47330152 0 -554.88814684 0 12198.32022759 0 2914.22308934 0 4748.64051740 0 3639
0.05850000 0.05849280 32832.93758991 0 -338.75066455 0 11738.92285000 0 1167.01574289 0 3883.38296988 0 3846
0.05950000 0.05951020 34413.21133110 0 -230.17006467 0 8550.07063302 0 1353.66949633 0 5982.35871874 0 3787
0.06050000 0.06049470 33631.17103428 0 -129.17362526 0 10450.55832130 0 -64.77824669 0 4370.00923598 0 3930
0.06150000 0.06148310 33697.71821597 0 721.73634989 0 10174.58715883 0 -2524.53388457 0 1633.84422244 0 4083
0.06250000 0.06249100 34403.67290172 0 -258.97057578 0 10966.64280649 0 176.80255231 0 1533.10288056 0 4303
0.06350000 0.06350600 33973.11263619 0 370.94286369 0 13838.93008018 0 -722.99852810 0 2805.56263284 0 4470
0.06450000 0.06451750 32987.21613946 0 1519.85999141 0 12772.28966966 0 -1308.51723356 0 -217.44846177 0 4479
0.06550000 0.06550280 32212.71785657 0 927.00113181 0 16327.35102748 0 -1741.34010326 0 1298.92334820 0 4636
0.06650000 0.06648880 31597.37824988 0 847.66469092 0 15826.69439724 0 736.31905564 0 1231.44450596 0 4653
0.06750000 0.06749660 30502.23346322 0 59.48852213 0 17932.24722589 0 1559.67738845 0 2928.12035912 0 5220
0.06850000 0.06852730 30756.55460924 0 336.75535822 0 15236.19907171 0 1244.45447998 0 2210.88592607 0 5029
0.06950000 0.06949320 29744.70471165 0 444.72816051 0 15893.24157893 0 1515.32369185 0 1337.15470408 0 5040
0.07050000 0.07048030 29257.57934169 0 469.02564567 0 14895.58841343 0 261.21543405 0 3143.23412393 0 5475
0.07150000 0.07148790 28259.59344028 0 424.59985629 0 13090.16337420 0 798.28557299 0 170.76894117 0 5509
0.07250000 0.07249820 28015.47619545 0 -30.66727047 0 12686.88745316 0 1331.86420313 0 2324.21577648 0 5916
0.07350000 0.07351270 27858.75758258 0 -379.01725507 0 8886.40008928 0 3797.67019986 0 546.19153931 0 5721
0.07450000 0.07449140 27571.38466965 0 53.51424889 0 7495.06488811 0 1268.71092771 0 444.24236609 0 6028
0.07550000 0.07549160 27880.60724056 0 39.55597753 0 5846.93520400 0 615.33406109 0 327.47646285 0 6183
0.07650000 0.07648840 26362.44420229 0 1012.10721336 0 5525.40140447 0 -399.26201686 0 -665.83338991 0 6330
0.07750000 0.07749960 25071.98343737 0 1134.09707035 0 5784.36976201 0 -1746.13150035 0 -1729.27288099 0 6583
0.07850000 0.07848650 24834.29908677 0 414.48912115 0 6565.35639512 0 -372.71190961 0 -2560.51372747 0 6549
0.07950000 0.07947320 23814.57443935 0 53.08524139 0 7000.66369295 0 328.77524202 0 -2042.38846203 0 6828
0.08050000 0.08048110 23575.67005708 0 147.13692783 0 6158.29837593 0 915.22449889 0 -3402.41321422 0 7147
0.08150000 0.08149960 23539.62366700 0 278.17165594 0 5958.50155410 0 427.95716161 0 -2257.89041873 0 7386
0.08250000 0.08250610 22649.55511190 0 645.05181419 0 5195.41611287 0 37.59494300 0 -2262.11616477 0 7227
0.08350000 0.08350160 22212.22921624 0 564.40328470 0 5584.97222328 0 1324.46637477 0 194.17913057 0 7798
0.08450000 0.08449610 21258.38627869 0 105.90019032 0 5419.79102713 0 255.10085717 0 1078.99711303 0 7371
0.08550000 0.08548940 21538.66082557 0 24.82553704 0 4548.23367974 0 1557.09313956 0 1122.41803996 0 8256
0.08650000 0.08650700 21414.66124369 0 1.64102023 0 5355.71718236 0 891.93298530 0 3332.19484634 0 8037
0.08750000 0.08749060 21246.62960992 0 82.87098353 0 3744.21063057 0 -282.12566765 0 1816.59387456 0 8155
0.08850000 0.08849210 21302.64015451 0 221.35145397 0 5405.74957179 0 -578.77193035 0 3169.49807830 0 8718
0.08950000 0.08949900 20981.32817892 0 367.29829638 0 5622.16100664 0 -1106.31805847 0 1486.15384388 0 8571
0.09050000 0.09049190 20051.77496269 0 908.58419928 0 7012.05435221 0 -1488.83791354 0 1574.05157969 0 8932
0.09150000 0.09150830 19796.45560894 0 510.30818983 0 8068.87905342 0 -540.36533356 0 930.17210502 0 9285
0.09250000 0.09250820 18971.38146797 0 248.94302462 0 8163.10986269 0 327.36222353 0 1532.81450944 0 9204
0.09350000 0.09350330 19059.11283583 0 -379.99106216 0 7960.14095854 0 2053.65711813 0 1957.48534939 0 9349
0.09450000 0.09448040 19536.58886445 0 -106.65283894 0 6004.34147109 0 1803.17352625 0 1520.92474631 0 9564
0.09550000 0.09549270 19405.93456440 0 -0.97788976 0 5831.54062263 0 950.52001494 0 3355.79691344 0 10155
0.09650000 0.09649430 19071.64588838 0 219.47482345 0 4491.72403129 0 -409.43708094 0 2404.56040718 0 9913
0.09750000 0.09749140 18562.44903648 0 379.00838211 0 4828.00912276 0 -117.24947942 0 2560.11444438 0 10476
0.09850000 0.09850240 18162.27865059 0 497.00318997 0 4203.26418106 0 -849.43817331 0 772.81796656 0 10575
0.09950000 0.09950330 17874.01844191 0 185.93726212 0 5290.05729642 0 244.18157377 0 1098.18266551 0 10882
0.10050000 0.10051200 17403.19713146 0 -47.85585294 0 4186.88248317 0 157.44730452 0 -16.53508915 0 10875
0.10150000 0.10150300 17514.10910094 0 163.19365366 0 4788.61319120 0 -245.49477149 0 -1165.59606968 0 11118
0.10250000 0.10250800 17285.96317971 0 142.54517230 0 4199.30462375 0 -379.71378224 0 -1301.42995871 0 11575
0.10350000 0.10349800 17321.01136207 0 -1.15107769 0 4765.95387583 0 113.13353623 0 -1590.49982477 0 11364
0.10450000 0.10450100 17189.69159020 0 11.29815868 0 5063.60832833 0 71.10277992 0 -1805.93523429 0 12093
0.10550000 0.10551000 17275.87019049 0 33.77735301 0 4033.80178289 0 -81.39995808 0 -2334.48622486 0 12067
0.10650000 0.10649700 17389.33313527 0 93.06601177 0 4921.99592570 0 -233.48189608 0 -1761.22661939 0 12054
0.10750000 0.10749900 16732.73427594 0 517.87793174 0 4501.72829094 0 -443.36948889 0 -3025.82271304 0 12807
0.10850000 0.10850100 16640.34460536 0 497.06419155 0 5449.63743812 0 -287.40175004 0 -1702.58746113 0 12736
0.10950000 0.10950300 15790.31527125 0 167.15099273 0 5328.36629068 0 269.22993296 0 -2171.90036879 0 12933
0.11050000 0.11050200 15989.40225647 0 163.10936056 0 5980.09611456 0 364.28149081 0 -1470.16033788 0 13428
0.11150000 0.11150900 15195.38346694 0 400.94455144 0 5747.40280258 0 -339.68565245 0 -1784.14103229 0 13453
0.11250000 0.11250000 15077.70586732 0 459.24542820 0 6045.70054451 0 -36.69123227 0 -974.43485380 0 13668
0.11350000 0.11349100 14542.22287866 0 -54.40021370 0 5834.75706975 0 693.31072123 0 -52.68950749 0 13791
0.11450000 0.11448600 14871.96416393 0 -224.13090793 0 5781.03131173 0 1202.35229637 0 77.79942282 0 14205
0.11550000 0.11549300 14614.53748276 0 126.29545965 0 4910.44998967 0 802.99045873 0 1227.77331977 0 14776
0.11650000 0.11649800 14567.84354361 0 288.74378487 0 4749.03980049 0 -39.90279926 0 1481.07407568 0 14553
0.11750000 0.11747300 14449.61138414 0 -21.50427812 0 5264.60299943 0 334.48277197 0 2179.66420666 0 14568
0.11850000 0.11849100 14415.11776164 0 -65.39003711 0 4698.15338889 0 437.88378287 0 2190.84413318 0 16015
0.11950000 0.11950300 14543.55382230 0 138.57230555 0 4462.74273366 0 121.19239993 0 1193.87862190 0 15270
0.12050000 0.12050700 14112.54990889 0 342.42295986 0 5050.48744234 0 -911.51449351 0 1781.93388410 0 15999
0.12150000 0.12150000 13933.31616620 0 214.30299831 0 4512.68639352 0 -191.64257383 0 268.73082910 0 15670
0.12250000 0.12250700 13587.82538127 0 296.20816042 0 5582.89816945 0 -378.08226717 0 910.62830688 0 16887
0.12350000 0.12352200 13311.76548923 0 232.32175688 0 5588.24412638 0 -262.60183366 0 -297.08991057 0 16407
0.12450000 0.12449800 13293.68683820 0 211.29284746 0 5711.22331814 0 -13.63795759 0 595.11591817 0 16306
0.12550000 0.12549900 12989.23348197 0 49.17481809 0 5488.29025948 0 511.79995582 0 315.38705818 0 17523
0.12650000 0.12650100 12947.30875751 0 -20.30975620 0 5307.69229957 0 716.55343356 0 1101.59320857 0 17154
0.12750000 0.12750600 13008.75398860 0 -57.14029391 0 5234.25748458 0 596.59659296 0 1228.82698348 0 18007
0.12850000 0.12850300 12901.83485002 0 138.81187541 0 4879.71628293 0 358.14029506 0 1560.60904899 0 17496
0.12950000 0.12949900 12791.25561645 0 74.17570695 0 5158.46024463 0 80.66128437 0 1859.51680675 0 18405
0.13050000 0.13049000 12721.27016370 0 128.11219771 0 4863.48986180 0 7.42026586 0 1736.40452062 0 18100
0.13150000 0.13148800 12616.68017648 0 -9.32484620 0 4667.49732052 0 215.57072213 0 2129.57636124 0 19059
0.13250000 0.13249300 12483.80763704 0 77.59223926 0 4691.66503867 0 -79.44524553 0 1234.58331470 0 18957
0.13350000 0.13349100 12735.13415989 0 82.17789464 0 4279.32760973 0 365.52148663 0 1585.78606607 0 19468
0.13450000 0.13450700 12282.28058849 0 28.68261169 0 4127.61112667 0 377.29922866 0 1125.93394940 0 19953
0.13550000 0.13551000 12401.51095569 0 25.49633263 0 3560.64022988 0 346.36809862 0 1291.62534061 0 19956
0.13650000 0.13649900 12151.84811238 0 130.47351354 0 3555.43845851 0 295.32973762 0 761.31306796 0 19723
0.13750000 0.13749600 12152.06993632 0 273.82057938 0 3332.17266394 0 -184.32349296 0 1094.30185570 0 20946
0.13850000 0.13851100 11652.96607365 0 101.82129173 0 3319.65070259 0 70.70283136 0 764.49291413 0 20955
0.13950000 0.13949800 11541.61045629 0 32.93542025 0 3127.01879399 0 117.42028385 0 1233.65165416 0 20506
0.14050000 0.14048300 11494.69469320 0 83.76404671 0 3062.46802775 0 273.66641174 0 826.08676726 0 21447
0.14150000 0.14148400 11467.52126068 0 143.70752974 0 2845.49094185 0 233.95327195 0 1053.56943491 0 21771
0.14250000 0.14249400 11249.13559277 0 108.99862710 0 2939.74393352 0 165.93428842 0 1330.17834120 0 22470
0.14350000 0.14350900 11094.52430731 0 171.38228436 0 3007.73297081 0 -87.63376533 0 1029.09227236 0 22519
0.14450000 0.14449900 10839.61532785 0 147.99427736 0 2728.36790208 0 1.89545228 0 1231.40014118 0 22218
0.14550000 0.14550500 10863.42812769 0 102.28057819 0 3250.73000475 0 -128.07448764 0 773.49452957 0 23559
0.14650000 0.14650700 10601.57605894 0 69.90459792 0 3012.92365098 0 -150.28017305 0 730.21778820 0 23044
0.14750000 0.14750500 10461.73824782 0 121.83125288 0 3145.49672811 0 138.78636565 0 709.13564104 0 23649
0.14850000 0.14849900 10657.14295565 0 -15.13704377 0 2924.01661625 0 -119.73168930 0 478.70604236 0 23640
0.14950000 0.14949500 10450.12576462 0 111.93457784 0 3153.78185223 0 75.66381284 0 265.69516849 0 24457
0.15050000 0.15050000 10342.77406935 0 216.55118394 0 3431.80488613 0 -306.61059404 0 54.87247687 0 24591
0.15150000 0.15149900 10070.60718744 0 261.67017312 0 3332.56085584 0 -339.31298824 0 412.98626397 0 25020
0.15250000 0.15250500 9958.92992537 0 101.96436817 0 3724.63466796 0 340.34225131 0 309.18375173 0 25297
0.15350000 0.15350100 9884.84072976 0 -63.99931193 0 3552.62129449 0 212.98536412 0 427.40592912 0 25452
0.15450000 0.15450400 9839.67737578 0 100.59249802 0 3298.20032769 0 328.78078761 0 447.54199718 0 26061
0.15550000 0.15549900 9687.53942724 0 137.64951797 0 3134.79372305 0 44.20540729 0 608.96660492 0 26128
0.15650000 0.15649500 9629.53246720 0 -109.04598651 0 2676.60528592 0 442.58866862 0 753.43609989 0 26331
0.15750000 0.15749700 9638.09487125 0 0.04720768 0 2964.25547878 0 411.56991812 0 521.71770413 0 27345
0.15850000 0.15849900 9508.98224757 0 175.45829924 0 2077.74719790 0 54.64277818 0 537.49715003 0 26980
0.15950000 0.15949700 9357.98669232 0 146.55464000 0 2295.00156372 0 -57.50951986 0 1084.56489390 0 27777
0.16050000 0.16050000 9109.51060709 0 135.00648573 0 2003.72454947 0 103.42618793 0 566.15236646 0 28224
0.16150000 0.16150500 9106.87090222 0 62.11236659 0 2102.22546957 0 371.21127066 0 863.21343992 0 28075
0.16250000 0.16249700 8962.60770351 0 15.83113088 0 1816.78242491 0 23.38312688 0 615.75996305 0 28590
0.16350000 0.16349900 8914.97101262 0 50.95451155 0 1712.53626479 0 251.58383862 0 994.46777373 0 29163
0.16450000 0.16449100 8765.88314324 0 123.63024502 0 1627.11186590 0 -238.81898005 0 526.55901160 0 28996
0.16550000 0.16550500 8811.82288100 0 79.49615413 0 1790.39646737 0 -74.63898625 0 555.32181264 0 30777
0.16650000 0.16650700 8761.59085002 0 -58.56717640 0 1740.55262828 0 147.81349085 0 166.90587728 0 29211
0.16750000 0.16749900 8800.07730343 0 -45.72013206 0 1519.41634353 0 189.49531810 0 278.42453523 0 30922
0.16850000 0.16850800 8754.09320088 0 100.52295621 0 1439.49317832 0 -78.41154598 0 -163.78037798 0 30867
0.16950000 0.16949900 8718.63464424 0 162.29637582 0 1345.77256411 0 -213.50665037 0 143.69643854 0 30852
0.17050000 0.17049200 8473.67446844 0 100.24234893 0 1627.31150744 0 165.66699058 0 -126.34315180 0 31257
0.17150000 0.17149500 8437.50607519 0 49.23049589 0 1132.03410772 0 85.32003073 0 -201.41946394 0 32608
0.17250000 0.17250900 8296.04894932 0 69.33717228 0 1414.62671476 0 174.53218430 0 112.40373547 0 32361
0.17350000 0.17350400 8261.01185816 0 35.86416172 0 1142.07164096 0 64.09502896 0 -99.26887457 0 32508
0.17450000 0.17449800 8220.15188860 0 20.45848915 0 1065.35604990 0 167.97728690 0 389.59825696 0 32791
0.17550000 0.17549800 8171.94954666 0 94.76595952 0 1188.74339771 0 -46.01959438 0 -35.47674621 0 33633
0.17650000 0.17650100 8062.60143595 0 108.59878945 0 991.47647791 0 30.37058096 0 435.87183975 0 33984
0.17750000 0.17750300 7935.60723089 0 132.73057212 0 1436.19909283 0 -161.16618285 0 381.58043069 0 34069
0.17850000 0.17849800 7838.35961605 0 121.55175471 0 1424.37587688 0 3.72846113 0 633.61013542 0 34536
