### header ###
fiducial parameters:
Omega_m = 0.31
Omega_nu = 0
Omega_de = 0.69
Omega_k = 0
H_0 = 100
w_de = -1
zeff = 0
beta = 0
fgrowth = 0
b_1 = 2
gamma = 0.55
Lx = 3500 Ly = 3500 Lz = 3500
nx = 700 ny = 700 nz = 700
xoffset = 1379.75464 yoffset = 22.6059522 zoffset = 368.141391
bins = 400 dk = 0.001
kx_ny = 0.628318531 ky_ny = 0.628318531 kz_ny = 0.628318531
############################
A(data) = 3.35360582 (not used)
A(ran) = 3.3608182 (used)
Ngal = 188799
weighted Ngal = 0
Nran = 9399747
weighted Nran = 0
SN(data) = 6615.72188
SN(ran) = 133.677831
SN(data+ran) = 6749.39971
############################
13 columns: k_central k_mean P_0(k) sigma^{lin}_{P_0(k)} P^img_1(k) sigma^{lin}_{P_1(k)} P_2(k) sigma^{lin}_{P_2(k)} P^img_3(k) sigma^{lin}_{P_3(k)} P_4(k) sigma^{lin}_{P_4(k)} N_modes
### header ###
0.00050000 0 0 0 0 0 0 0 0 0 0 0 0
0.00150000 0.00179520 85338.66394280 0 -76042.79904459 0 -122471.21494166 0 160091.44587034 0 184477.66060040 0 3
0.00250000 0.00253879 116002.82888146 0 -52514.59931044 0 7633.59393799 0 -185393.79346832 0 -148536.63688968 0 6
0.00350000 0.00331552 139853.33879892 0 -188.95406769 0 -96723.00122636 0 1048.93109634 0 114616.42926293 0 7
0.00450000 0.00420575 154810.92700329 0 8360.27807084 0 -17390.55316694 0 -88832.39098149 0 -23118.60183084 0 24
0.00550000 0.00557378 131590.39707249 0 21621.73389071 0 43189.01000441 0 -52191.18000743 0 39326.27884325 0 45
0.00650000 0.00659388 104439.59059112 0 19558.88217031 0 79407.75728671 0 23971.84761207 0 -138412.59231534 0 40
0.00750000 0.00754703 103962.78003432 0 795.36304259 0 87992.01098872 0 -3647.53975797 0 42590.52901708 0 57
0.00850000 0.00846663 93890.19861382 0 6634.57655528 0 84079.92400115 0 37385.31937731 0 -43830.41392392 0 75
0.00950000 0.00948925 112321.66061435 0 6356.20969427 0 99232.16271196 0 10701.55210823 0 27136.27701337 0 112
0.01050000 0.01054430 95394.38674394 0 2993.28114119 0 100107.92362299 0 5274.00833444 0 -31235.58340543 0 105
0.01150000 0.01145670 98725.29501143 0 7411.28198636 0 95507.51695281 0 9505.18905822 0 11660.50808757 0 144
0.01250000 0.01249090 89508.06669958 0 3107.19882504 0 98354.62720942 0 15952.35765866 0 -4777.94345973 0 169
0.01350000 0.01339930 87352.93622057 0 3789.47380531 0 83023.93113971 0 23050.94552946 0 3526.57916405 0 180
0.01450000 0.01448870 89933.74683845 0 1489.65866212 0 88620.32729584 0 18435.89847931 0 6572.87622665 0 267
0.01550000 0.01550050 85500.37359431 0 1296.87147676 0 76266.84122294 0 17496.36318582 0 -14222.02002277 0 238
0.01650000 0.01653350 82085.72678986 0 1578.13314017 0 61913.05778043 0 12561.66783962 0 6021.29991122 0 315
0.01750000 0.01747870 82323.74387637 0 3003.51831597 0 58108.33357931 0 6245.28663359 0 356.60083692 0 297
0.01850000 0.01844180 75115.35315578 0 -370.94508193 0 45129.41491050 0 18378.55699108 0 9842.21725988 0 388
0.01950000 0.01947590 78448.47966266 0 1713.62320209 0 40318.71914618 0 10373.69632645 0 4348.15957799 0 399
0.02050000 0.02045430 73946.67373334 0 3243.01053168 0 37073.98947898 0 7521.19574812 0 8741.36050679 0 462
0.02150000 0.02154770 68371.57267535 0 2707.53863421 0 32714.92725439 0 4383.42958429 0 15337.57261182 0 571
0.02250000 0.02255340 65287.55445193 0 1532.48177353 0 29969.30144985 0 4879.89374208 0 12093.50841643 0 510
0.02350000 0.02348930 68592.73114250 0 -1780.34784293 0 24508.77245633 0 13784.36139119 0 18958.73750344 0 555
0.02450000 0.02439640 64600.56571295 0 -2486.94581811 0 10627.41854783 0 14030.36413950 0 5702.71637008 0 592
0.02550000 0.02547300 68135.88474020 0 -1859.05097648 0 5433.69938810 0 3791.91386864 0 15756.37620858 0 837
0.02650000 0.02652900 71052.20406576 0 -2456.33411453 0 3061.60291439 0 -2246.32230032 0 -1589.04687797 0 723
0.02750000 0.02749970 71793.42875781 0 1718.38132558 0 87.84039433 0 -4779.76241603 0 887.69060247 0 826
0.02850000 0.02848090 67867.58868602 0 5997.01018990 0 5960.09868646 0 -14959.80644376 0 -19240.56481790 0 831
0.02950000 0.02946900 60330.45488789 0 5762.40919206 0 12793.69567977 0 -13066.98277258 0 -16019.34848823 0 996
0.03050000 0.03053250 56173.25244775 0 2252.98810968 0 18177.69541435 0 -1851.02094989 0 -25924.56374678 0 1041
0.03150000 0.03150510 53818.48042368 0 886.77114224 0 18534.94286805 0 4424.97720805 0 -29031.20801197 0 1036
0.03250000 0.03246190 51791.67509336 0 -488.13466889 0 17308.36739755 0 -771.83972299 0 -22004.60200937 0 1059
0.03350000 0.03345080 52027.69576442 0 1424.22060012 0 14430.53452539 0 726.67082341 0 -30247.91231719 0 1302
0.03450000 0.03451200 53969.98617399 0 -454.60598051 0 17001.91762587 0 -1528.34475707 0 -16787.74661280 0 1339
0.03550000 0.03553350 50714.38713378 0 -151.09537603 0 16388.57443463 0 815.37378013 0 -22525.33370608 0 1365
0.03650000 0.03647120 53127.49885380 0 2320.31167516 0 18387.87359652 0 -3741.65965527 0 -15719.77525865 0 1308
0.03750000 0.03744890 50268.41010449 0 1562.18399896 0 21026.46935050 0 -963.85717927 0 -20646.37403109 0 1579
0.03850000 0.03847530 50031.05848980 0 1549.00765699 0 24336.96981561 0 1358.68271735 0 -10798.01224809 0 1662
0.03950000 0.03950240 47585.00591484 0 242.44691057 0 25414.59051110 0 -2490.43954515 0 -12292.04084181 0 1683
0.04050000 0.04050350 50280.16677326 0 -1035.92001320 0 23712.64633939 0 5528.05220054 0 -9624.31960464 0 1822
0.04150000 0.04152450 48077.01141146 0 436.43194519 0 22655.87709416 0 2693.17553416 0 -8138.44304068 0 1887
0.04250000 0.04250150 50212.28864793 0 1645.43452325 0 22676.72854443 0 515.43121370 0 -7705.74217414 0 1920
0.04350000 0.04349210 44568.86581674 0 1483.58068619 0 21822.04090760 0 3958.84747391 0 -2494.75402076 0 2005
0.04450000 0.04448520 45491.54249086 0 1684.12061821 0 20358.11382240 0 523.65644535 0 -2473.30364586 0 2151
0.04550000 0.04548030 40949.47551662 0 1819.14484986 0 19695.41480475 0 486.21700094 0 -4666.97603427 0 2274
0.04650000 0.04648670 38518.39605754 0 2377.56443381 0 21011.38532265 0 1248.75786440 0 -660.46192323 0 2311
0.04750000 0.04749250 36031.41696584 0 1195.56448384 0 18492.57449571 0 794.72308053 0 -3021.48605503 0 2568
0.04850000 0.04851840 35478.18806207 0 -4.55503258 0 16450.01966573 0 4811.97125197 0 -745.82532054 0 2493
0.04950000 0.04949480 35087.99975343 0 -1092.84003594 0 14390.49530441 0 2559.79279967 0 -2926.26812923 0 2644
0.05050000 0.05050630 35436.37424957 0 69.22903311 0 9346.06365560 0 3109.18414930 0 -1375.69661347 0 2829
0.05150000 0.05149060 35047.84962047 0 503.65458078 0 10846.42532277 0 -163.17147126 0 -2956.19217859 0 2784
0.05250000 0.05249300 33932.51885536 0 1352.48273826 0 10409.80926371 0 -2585.85711249 0 -1262.38894545 0 3055
0.05350000 0.05348950 32679.32451218 0 1345.32891623 0 10643.68933376 0 -0.76841920 0 -3452.27923569 0 3009
0.05450000 0.05448610 31479.70065026 0 -20.89614779 0 12714.61544553 0 249.04728187 0 -2481.54440520 0 3336
0.05550000 0.05550870 31236.47070119 0 -381.51942910 0 8480.19609225 0 1683.69915272 0 -4457.39677673 0 3349
0.05650000 0.05647670 31704.07556452 0 -292.16541913 0 10608.07550035 0 1312.60988523 0 -1353.50312838 0 3324
0.05750000 0.05747970 33039.34476512 0 -802.28505861 0 7060.82234519 0 1552.52356642 0 -4023.24296339 0 3639
0.05850000 0.05849280 34242.85054597 0 -947.46439018 0 7488.05525164 0 -46.08347967 0 -1926.97346659 0 3846
0.05950000 0.05951020 34962.33649200 0 495.21861638 0 6861.44698885 0 -400.42991990 0 -3510.35274292 0 3787
0.06050000 0.06049470 34513.14301560 0 982.65343074 0 8427.26890041 0 -2177.39051128 0 -3263.76216117 0 3930
0.06150000 0.06148310 33222.46042674 0 464.21983003 0 9266.79487101 0 -597.41401418 0 -3019.46745718 0 4083
0.06250000 0.06249100 32366.66367021 0 1132.41120841 0 12863.90295646 0 -1231.76615068 0 -2401.37723365 0 4303
0.06350000 0.06350600 32171.90225180 0 601.58319511 0 12690.43663619 0 489.64528991 0 -492.87060999 0 4470
0.06450000 0.06451750 31458.51646409 0 -132.20817674 0 13332.17329161 0 632.72949438 0 -1194.86573843 0 4479
0.06550000 0.06550280 32393.83710273 0 -348.81259842 0 13364.89232261 0 925.31526988 0 -663.17261177 0 4636
0.06650000 0.06648880 32269.39387298 0 306.63055819 0 12977.47681321 0 537.74670196 0 -235.23541431 0 4653
0.06750000 0.06749660 31642.51942146 0 767.72932540 0 11339.75067183 0 -425.59362754 0 -1776.53247118 0 5220
0.06850000 0.06852730 29735.27719425 0 810.36721382 0 14955.70270089 0 -904.41390923 0 -411.51224389 0 5029
0.06950000 0.06949320 29870.03523717 0 1375.50806312 0 13983.33746444 0 -407.85880362 0 -1752.99695126 0 5040
0.07050000 0.07048030 28072.15221186 0 109.78111104 0 13565.64298737 0 2370.17769664 0 105.60250259 0 5475
0.07150000 0.07148790 27972.66417523 0 118.12901134 0 12478.04021463 0 1050.73341585 0 -1271.50590934 0 5509
0.07250000 0.07249820 27901.79142674 0 386.36960953 0 13460.38752833 0 526.20409329 0 661.55551525 0 5916
0.07350000 0.07351270 27825.04034385 0 -29.01024565 0 12068.88595921 0 1895.86265915 0 1996.95891933 0 5721
0.07450000 0.07449140 26917.00404970 0 19.18910166 0 11108.05556758 0 326.69675171 0 -660.26339081 0 6028
0.07550000 0.07549160 27289.11370732 0 394.67469780 0 10670.56330396 0 -300.74445997 0 1605.48403185 0 6183
0.07650000 0.07648840 26787.79160526 0 347.72677024 0 10713.79678967 0 415.69362514 0 -90.34889034 0 6330
0.07750000 0.07749960 26463.48500649 0 275.75377501 0 12121.56914471 0 539.23514059 0 3509.86473025 0 6583
0.07850000 0.07848650 26069.85842680 0 245.16092646 0 9929.17224396 0 1334.48172561 0 -397.22123662 0 6549
0.07950000 0.07947320 25562.43616642 0 377.16835254 0 10926.02684327 0 615.19985761 0 4327.41903970 0 6828
0.08050000 0.08048110 24993.79049888 0 376.26441999 0 9689.30292756 0 675.60584354 0 1203.72760479 0 7147
0.08150000 0.08149960 24637.98490078 0 127.68851399 0 9967.55887660 0 909.36945602 0 3474.66127114 0 7386
0.08250000 0.08250610 24037.28567407 0 125.81410170 0 7785.34369464 0 1094.68339287 0 1590.83256068 0 7227
0.08350000 0.08350160 23251.14163438 0 905.87240163 0 8338.55041602 0 -958.58553336 0 368.64809505 0 7798
0.08450000 0.08449610 22667.07920308 0 619.37458414 0 7982.86682109 0 -648.63981640 0 1242.11423743 0 7371
0.08550000 0.08548940 22135.69995729 0 492.97043076 0 7612.57611978 0 -370.40050416 0 -2367.82636289 0 8256
0.08650000 0.08650700 20988.75928088 0 418.31336586 0 8713.80997357 0 232.08995086 0 -1148.85945349 0 8037
0.08750000 0.08749060 20544.00228325 0 461.64334498 0 7550.37668729 0 531.55892318 0 -1823.91406454 0 8155
0.08850000 0.08849210 20065.19531100 0 157.26097241 0 7070.43841295 0 1445.18296235 0 295.41292160 0 8718
0.08950000 0.08949900 19802.11211939 0 33.42786939 0 7699.91929574 0 1007.64522482 0 -327.45871694 0 8571
0.09050000 0.09049190 19939.19931367 0 280.42205980 0 6456.70702982 0 685.07218014 0 1179.20496834 0 8932
0.09150000 0.09150830 19219.15880779 0 537.01357384 0 7508.66269557 0 -21.45580958 0 2109.83403067 0 9285
0.09250000 0.09250820 18338.29594616 0 514.01819521 0 6697.75201309 0 -611.28022860 0 3368.93998183 0 9204
0.09350000 0.09350330 18628.55257030 0 -185.26513558 0 7986.77092242 0 1077.82588263 0 3949.68614523 0 9349
0.09450000 0.09448040 18040.94095598 0 258.84857262 0 6839.35332453 0 384.13140599 0 2406.35718108 0 9564
0.09550000 0.09549270 18219.84196275 0 402.60823098 0 7097.72275744 0 49.21241724 0 4449.40002373 0 10155
0.09650000 0.09649430 17805.14210886 0 50.05723371 0 7929.46270778 0 62.28627656 0 2683.53728402 0 9913
0.09750000 0.09749140 17819.00610504 0 67.21132256 0 7139.55875233 0 212.75910370 0 3654.64921521 0 10476
0.09850000 0.09850240 17559.02844858 0 114.78057898 0 7303.98574709 0 228.34999925 0 2523.38040008 0 10575
0.09950000 0.09950330 17316.79670723 0 62.11314297 0 5993.96011074 0 -85.92993565 0 2005.68769133 0 10882
0.10050000 0.10051200 17221.19058954 0 291.86484769 0 7627.90415396 0 431.94111955 0 2561.40102322 0 10875
0.10150000 0.10150300 17060.92279363 0 205.36903917 0 6867.30314084 0 -17.20754842 0 1556.17257021 0 11118
0.10250000 0.10250800 16475.19668280 0 427.19075990 0 7609.45949343 0 -299.10296282 0 2259.57628067 0 11575
0.10350000 0.10349800 16207.45518847 0 391.34512048 0 7161.65241665 0 -36.32622098 0 1413.53977746 0 11364
0.10450000 0.10450100 15933.61353582 0 -61.70021771 0 7809.35613603 0 514.68255790 0 2392.88137679 0 12093
0.10550000 0.10551000 16068.92613858 0 -78.38914176 0 7107.48301075 0 514.90770920 0 1833.30830836 0 12067
0.10650000 0.10649700 16186.93647411 0 -31.14685383 0 7137.60670167 0 351.84382255 0 2255.62781456 0 12054
0.10750000 0.10749900 15970.21448575 0 132.59304128 0 6145.65441140 0 -135.01203133 0 766.34181666 0 12807
0.10850000 0.10850100 16285.98086286 0 263.28726964 0 7388.01265517 0 -477.41280880 0 1996.69273060 0 12736
0.10950000 0.10950300 15705.46761459 0 202.87351986 0 6425.77368153 0 -414.26951545 0 -158.23810686 0 12933
0.11050000 0.11050200 15531.77947038 0 137.23581632 0 7345.75519479 0 549.94480036 0 1529.09895846 0 13428
0.11150000 0.11150900 15468.22691187 0 -108.59845671 0 6559.60006391 0 364.36578390 0 -30.28284959 0 13453
0.11250000 0.11250000 15557.62195927 0 -153.76502713 0 6634.65419365 0 833.09862197 0 446.69684797 0 13668
0.11350000 0.11349100 15760.92359933 0 61.28052682 0 6050.55848877 0 159.20747747 0 109.61241394 0 13791
0.11450000 0.11448600 15370.51346676 0 358.29779005 0 5449.44888777 0 -213.61534410 0 -549.40798643 0 14205
0.11550000 0.11549300 15185.29047772 0 272.36874170 0 6499.28613490 0 -601.98802380 0 480.16120740 0 14776
0.11650000 0.11649800 14651.58208057 0 201.91302220 0 5679.84632197 0 161.28596778 0 -1436.83129105 0 14553
0.11750000 0.11747300 14747.41002220 0 33.95791770 0 5891.41090376 0 820.82953991 0 120.74653382 0 14568
0.11850000 0.11849100 14279.47242296 0 144.88985133 0 5368.81588595 0 44.04380855 0 -1371.61505300 0 16015
0.11950000 0.11950300 14566.73442392 0 236.92127625 0 5595.27594524 0 114.91034598 0 -629.63394131 0 15270
0.12050000 0.12050700 13808.31837660 0 123.70122868 0 5605.18038412 0 -184.76714084 0 -1334.68136716 0 15999
0.12150000 0.12150000 13903.48084641 0 371.35767446 0 5431.72515504 0 -497.81950206 0 -1250.17753761 0 15670
0.12250000 0.12250700 13461.38573606 0 133.84301917 0 5692.49028649 0 -136.84873355 0 -1602.38958790 0 16887
0.12350000 0.12352200 13408.48072661 0 -140.90700251 0 5316.17706524 0 771.80755851 0 -1712.83572711 0 16407
0.12450000 0.12449800 13609.23139138 0 26.99397696 0 5675.35438721 0 443.29074139 0 -486.71166832 0 16306
0.12550000 0.12549900 13364.22685079 0 71.37218510 0 4637.56217996 0 598.26359987 0 -1425.56263495 0 17523
0.12650000 0.12650100 13339.38256963 0 174.80724598 0 5047.20444805 0 441.89990529 0 239.62087359 0 17154
0.12750000 0.12750600 12968.04929580 0 208.20616735 0 4680.08582906 0 -0.35051066 0 28.74361328 0 18007
0.12850000 0.12850300 12699.19868178 0 313.46939023 0 4894.62285163 0 278.22156633 0 392.81803143 0 17496
0.12950000 0.12949900 12400.29092402 0 397.00163092 0 5147.15831494 0 -216.98041326 0 842.81451050 0 18405
0.13050000 0.13049000 11822.21773908 0 299.42904401 0 4890.38601440 0 -268.77963036 0 410.93328341 0 18100
0.13150000 0.13148800 11550.92706173 0 196.62917598 0 5417.87225006 0 286.72296879 0 1224.68996702 0 19059
0.13250000 0.13249300 11477.94698581 0 -112.06878132 0 4698.51939839 0 603.15925420 0 812.45679533 0 18957
0.13350000 0.13349100 11445.33886678 0 -73.42350197 0 4355.12484967 0 562.77287875 0 935.17978044 0 19468
0.13450000 0.13450700 11589.19169120 0 2.41354428 0 3761.56835379 0 218.29693833 0 439.92899959 0 19953
0.13550000 0.13551000 11544.16143159 0 101.32551522 0 3691.43871549 0 -30.05037810 0 733.98657692 0 19956
0.13650000 0.13649900 11549.81794203 0 -79.52576762 0 3322.45677542 0 267.32335621 0 718.83489277 0 19723
0.13750000 0.13749600 11552.25800536 0 24.93312165 0 3508.58924260 0 55.25301584 0 532.62035073 0 20946
0.13850000 0.13851100 11584.64430045 0 110.75414175 0 3371.06949164 0 -72.43782730 0 590.31232077 0 20955
0.13950000 0.13949800 11402.19411065 0 95.55909102 0 3716.72664453 0 54.86360391 0 454.03367475 0 20506
0.14050000 0.14048300 11229.06052629 0 91.11462658 0 4067.00882655 0 -36.48981614 0 857.46930902 0 21447
0.14150000 0.14148400 11373.02426268 0 70.38118665 0 4065.43387658 0 88.88507417 0 711.17974864 0 21771
0.14250000 0.14249400 11265.55056425 0 92.20899498 0 3954.43317753 0 220.61278026 0 947.55866536 0 22470
0.14350000 0.14350900 11075.90218763 0 145.75052822 0 4006.60616797 0 -86.36426692 0 888.62891773 0 22519
0.14450000 0.14449900 11018.51633462 0 136.27975514 0 3884.17044486 0 203.66543132 0 1420.48286675 0 22218
0.14550000 0.14550500 10836.78707262 0 -107.97768242 0 3656.54580989 0 683.06023701 0 1381.76349820 0 23559
0.14650000 0.14650700 11052.18920856 0 -71.78045206 0 3371.55750431 0 309.17376965 0 1054.55100584 0 23044
0.14750000 0.14750500 10965.42277483 0 157.58372624 0 2892.89471761 0 -88.56564769 0 895.21708872 0 23649
0.14850000 0.14849900 10731.42070162 0 235.19659512 0 3331.17445622 0 -307.72525933 0 964.77885774 0 23640
0.14950000 0.14949500 10464.96578613 0 143.28273690 0 2875.45935601 0 -129.10485984 0 544.51898681 0 24457
0.15050000 0.15050000 10252.72464133 0 267.35995716 0 3451.23666318 0 -36.46297544 0 214.64682542 0 24591
0.15150000 0.15149900 10075.80895881 0 191.39413102 0 3271.28199270 0 -80.59262986 0 614.12955710 0 25020
0.15250000 0.15250500 9753.18822198 0 160.81791927 0 3611.80392140 0 220.60168906 0 515.38795803 0 25297
0.15350000 0.15350100 9660.67654823 0 103.81792900 0 3382.50451569 0 384.06153144 0 896.35726376 0 25452
0.15450000 0.15450400 9439.54026348 0 142.63722923 0 3178.53740382 0 122.96588233 0 987.59012250 0 26061
0.15550000 0.15549900 9203.99651389 0 172.58124275 0 3330.50898440 0 105.72217661 0 1123.22769734 0 26128
0.15650000 0.15649500 9050.82708404 0 226.33029228 0 3251.22910861 0 -20.24620365 0 1131.19117675 0 26331
0.15750000 0.15749700 8794.16569546 0 116.38658430 0 3289.41609971 0 -75.91780125 0 639.25444555 0 27345
0.15850000 0.15849900 8702.98496535 0 70.56663146 0 3044.40046792 0 -87.08098007 0 796.77606108 0 26980
0.15950000 0.15949700 8410.65428738 0 122.62870994 0 2890.59883984 0 72.89378641 0 379.47310327 0 27777
0.16050000 0.16050000 8571.05517765 0 -67.67426912 0 3075.82182888 0 308.87652557 0 614.07853759 0 28224
0.16150000 0.16150500 8547.68602568 0 -121.99207523 0 2228.25474049 0 382.02740592 0 45.76638235 0 28075
0.16250000 0.16249700 8836.71152695 0 -41.10087035 0 2073.44381349 0 448.83855810 0 -142.25680118 0 28590
0.16350000 0.16349900 8587.24832519 0 40.78432759 0 1930.66683517 0 -238.60935643 0 132.08617358 0 29163
0.16450000 0.16449100 8545.71179262 0 212.66039205 0 2041.73408141 0 -218.59640065 0 -205.00746615 0 28996
0.16550000 0.16550500 8411.77449827 0 102.80508090 0 2066.87782489 0 11.76010704 0 -278.72843403 0 30777
0.16650000 0.16650700 8317.65460097 0 16.15809936 0 2153.24497553 0 -43.04903910 0 -451.70563251 0 29211
0.16750000 0.16749900 8315.76909749 0 66.76357094 0 2194.63732254 0 120.27183059 0 -41.53597801 0 30922
0.16850000 0.16850800 8350.56218232 0 -15.89235428 0 1886.62369209 0 226.69630178 0 -178.78454921 0 30867
0.16950000 0.16949900 8334.49103794 0 -45.58426490 0 1854.53685932 0 59.33823641 0 -197.60852867 0 30852
0.17050000 0.17049200 8365.22474468 0 65.80495879 0 1912.72127851 0 -18.09728424 0 -152.55719578 0 31257
0.17150000 0.17149500 8346.44734825 0 49.31944729 0 1771.09778468 0 106.04226855 0 120.86853698 0 32608
0.17250000 0.17250900 8273.37854275 0 67.51200491 0 2194.54859296 0 -46.01260692 0 66.01546971 0 32361
0.17350000 0.17350400 8180.01284684 0 159.66221655 0 2090.95681347 0 -65.72842953 0 165.89325099 0 32508
0.17450000 0.17449800 8057.24438782 0 69.47026665 0 2092.79795216 0 -32.47691017 0 214.96403365 0 32791
0.17550000 0.17549800 8016.24023271 0 29.92660034 0 2512.34465912 0 -20.17699458 0 387.71940820 0 33633
0.17650000 0.17650100 8111.75762082 0 -58.59179885 0 2141.10011487 0 285.06816220 0 592.85109576 0 33984
0.17750000 0.17750300 8267.52239077 0 -99.00091126 0 2149.99525482 0 297.84300285 0 846.22838092 0 34069
0.17850000 0.17849800 8274.92021913 0 35.20490097 0 2120.25975580 0 246.86564343 0 903.19609580 0 34536
