### header ###
fiducial parameters:
Omega_m = 0.31
Omega_nu = 0
Omega_de = 0.69
Omega_k = 0
H_0 = 100
w_de = -1
zeff = 0
beta = 0
fgrowth = 0
b_1 = 2
gamma = 0.55
Lx = 3500 Ly = 3500 Lz = 3500
nx = 700 ny = 700 nz = 700
xoffset = 1379.75464 yoffset = 22.6059522 zoffset = 368.141391
bins = 400 dk = 0.001
kx_ny = 0.628318531 ky_ny = 0.628318531 kz_ny = 0.628318531
############################
A(data) = 3.37186336 (not used)
A(ran) = 3.37971085 (used)
Ngal = 190478
weighted Ngal = 0
Nran = 9399747
weighted Nran = 0
SN(data) = 6608.80346
SN(ran) = 134.429293
SN(data+ran) = 6743.23275
############################
13 columns: k_central k_mean P_0(k) sigma^{lin}_{P_0(k)} P^img_1(k) sigma^{lin}_{P_1(k)} P_2(k) sigma^{lin}_{P_2(k)} P^img_3(k) sigma^{lin}_{P_3(k)} P_4(k) sigma^{lin}_{P_4(k)} N_modes
### header ###
0.00050000 0 0 0 0 0 0 0 0 0 0 0 0
0.00150000 0.00179520 27424.31539811 0 -8521.28897694 0 12894.18192413 0 -32198.74294842 0 -6215.54004337 0 3
0.00250000 0.00253879 33682.07962827 0 59.69016009 0 -8118.98908123 0 11012.24980835 0 30566.45149355 0 6
0.00350000 0.00331552 40899.34330642 0 -7463.34406484 0 -12978.25319699 0 26919.55502500 0 37746.89239782 0 7
0.00450000 0.00420575 49710.30107406 0 -26508.51526610 0 -39762.93926710 0 27053.42577217 0 -132.01408080 0 24
0.00550000 0.00557378 100087.95946849 0 -26535.24505074 0 -70615.87637782 0 5673.57979570 0 -17248.47493403 0 45
0.00650000 0.00659388 102283.57281636 0 -13657.69992204 0 -87991.01278100 0 -46625.17373094 0 -22897.99792354 0 40
0.00750000 0.00754703 117331.55427586 0 3843.44356966 0 -44863.11527177 0 -60789.85226548 0 -1258.56248250 0 57
0.00850000 0.00846663 101437.75813708 0 10404.75167790 0 -55015.77513424 0 -40482.09247723 0 -25503.32008668 0 75
0.00950000 0.00948925 92284.52603163 0 10123.72292963 0 -14719.68202983 0 -33760.93803857 0 -14677.42456946 0 112
0.01050000 0.01054430 84433.62227183 0 4953.89420812 0 548.74362373 0 -8671.06450053 0 -47690.37228585 0 105
0.01150000 0.01145670 86589.97278250 0 -3609.02003097 0 4633.86881138 0 -19712.38433608 0 -52001.63145159 0 144
0.01250000 0.01249090 82263.07502906 0 4314.91926074 0 20569.40112427 0 -20871.41441717 0 -59968.43821950 0 169
0.01350000 0.01339930 83435.08181058 0 13265.95884583 0 35286.75400274 0 -33494.86022378 0 -38884.40555683 0 180
0.01450000 0.01448870 73527.20466476 0 1679.69523063 0 48811.91412125 0 -9203.53068362 0 -48814.02144867 0 267
0.01550000 0.01550050 80051.49035758 0 -3744.01098902 0 55518.31726796 0 20306.42884462 0 -47993.16196253 0 238
0.01650000 0.01653350 81416.92761388 0 -2748.25441821 0 33903.79265527 0 19928.77358854 0 -23916.61345127 0 315
0.01750000 0.01747870 83486.98861229 0 1764.18796898 0 32669.34243493 0 11107.72283168 0 -17376.80008272 0 297
0.01850000 0.01844180 78029.67606589 0 2329.93883411 0 50454.96403716 0 -8518.49399531 0 -8946.62528871 0 388
0.01950000 0.01947590 79108.84952895 0 7462.60095464 0 35992.37595259 0 3943.18670382 0 -4939.68638483 0 399
0.02050000 0.02045430 71078.82293844 0 2492.97942925 0 45257.29641131 0 -2741.40005850 0 6229.30421879 0 462
0.02150000 0.02154770 72557.72313952 0 -2240.47723953 0 38935.20323886 0 7567.61240735 0 -816.70694200 0 571
0.02250000 0.02255340 77975.44011281 0 -2438.57710822 0 41114.51252721 0 15204.03460056 0 638.62779292 0 510
0.02350000 0.02348930 78864.39954821 0 -4289.24313980 0 25531.60263890 0 11726.50070942 0 12018.86466097 0 555
0.02450000 0.02439640 83734.21139227 0 -2874.17277716 0 28824.91174874 0 11160.96057703 0 1647.48639469 0 592
0.02550000 0.02547300 86775.41759547 0 -1489.86939486 0 13581.72522295 0 6037.42651158 0 11151.53305962 0 837
0.02650000 0.02652900 83198.17384376 0 4508.36082671 0 12004.00245706 0 690.44586506 0 7003.95777844 0 723
0.02750000 0.02749970 82580.28326178 0 3471.98829267 0 21995.17449196 0 -8910.49016905 0 17252.91141281 0 826
0.02850000 0.02848090 75366.90150256 0 3312.05323268 0 16615.50032419 0 1670.76681708 0 2523.61331522 0 831
0.02950000 0.02946900 71822.70951776 0 304.73063615 0 22684.49238229 0 1861.41340143 0 2886.11799628 0 996
0.03050000 0.03053250 70996.63716905 0 4032.07155616 0 18488.58166481 0 -6266.23790463 0 -6014.26809236 0 1041
0.03150000 0.03150510 66163.64809887 0 5412.47083714 0 27252.29093345 0 -5141.64599006 0 -15306.29543643 0 1036
0.03250000 0.03246190 60179.17096151 0 5278.15644210 0 31846.37562137 0 -9526.05159968 0 -9649.05297383 0 1059
0.03350000 0.03345080 52876.83780277 0 3981.26278294 0 30950.87237977 0 1923.93447862 0 -14043.89539978 0 1302
0.03450000 0.03451200 49523.85805336 0 2440.79534761 0 36625.57238636 0 5891.94328121 0 -9059.34512329 0 1339
0.03550000 0.03553350 45631.18066044 0 2666.49011431 0 32448.18396778 0 3907.24013451 0 -9499.83201009 0 1365
0.03650000 0.03647120 42804.36729424 0 575.76288862 0 29706.44008218 0 8786.98969103 0 333.83726430 0 1308
0.03750000 0.03744890 42508.67598361 0 -647.05266612 0 23040.18706842 0 6949.54436621 0 893.05874179 0 1579
0.03850000 0.03847530 42975.83719906 0 417.38725091 0 18661.82616114 0 2047.00239996 0 2140.70083178 0 1662
0.03950000 0.03950240 40398.24302830 0 1828.17308417 0 19891.50716679 0 1083.51233931 0 1186.68043508 0 1683
0.04050000 0.04050350 39231.44910934 0 1346.83731901 0 20508.62136499 0 -3798.29130689 0 496.73589212 0 1822
0.04150000 0.04152450 36708.97818741 0 763.66551084 0 20494.97919274 0 -978.05945696 0 -4086.01913812 0 1887
0.04250000 0.04250150 37750.33066888 0 479.66986738 0 22828.56703065 0 1285.24790236 0 -3744.09971860 0 1920
0.04350000 0.04349210 36406.18851072 0 -448.88514113 0 17151.53787270 0 1645.16833453 0 -6799.77993382 0 2005
0.04450000 0.04448520 37645.85159363 0 189.46093539 0 19575.85170164 0 1193.52370360 0 -5323.48616403 0 2151
0.04550000 0.04548030 35616.16255210 0 534.28846675 0 16001.93530902 0 1266.61469149 0 -8243.64304374 0 2274
0.04650000 0.04648670 37385.43028928 0 -12.22660278 0 17087.09801843 0 225.38975878 0 -6885.01578237 0 2311
0.04750000 0.04749250 36293.05830185 0 274.03685772 0 16168.74691112 0 -411.58988227 0 -7353.54121505 0 2568
0.04850000 0.04851840 36258.67559131 0 526.06434421 0 17631.01031677 0 -250.23514907 0 -6448.06698739 0 2493
0.04950000 0.04949480 35867.26725101 0 289.65215390 0 17173.94209054 0 -379.83689453 0 -8293.69761556 0 2644
0.05050000 0.05050630 36068.68338759 0 -524.73672794 0 18109.70637706 0 1602.92196535 0 -7391.15146390 0 2829
0.05150000 0.05149060 37075.09859867 0 -907.60151923 0 20825.82959771 0 481.01744781 0 -5858.29258967 0 2784
0.05250000 0.05249300 38825.06765316 0 -502.49333246 0 14909.11967371 0 2325.92382081 0 -5845.61535156 0 3055
0.05350000 0.05348950 40205.81076125 0 -1036.30598686 0 17975.50289398 0 2475.98771552 0 -2514.19688901 0 3009
0.05450000 0.05448610 40158.89499815 0 264.41524437 0 15173.75563289 0 758.76431090 0 -1337.85344949 0 3336
0.05550000 0.05550870 40021.58597994 0 1631.61489186 0 15871.28100897 0 807.45022903 0 -63.31476325 0 3349
0.05650000 0.05647670 37198.98726858 0 1993.90884017 0 19368.22449477 0 -2093.47451517 0 1622.35374240 0 3324
0.05750000 0.05747970 35181.72036764 0 2106.72849553 0 20284.13553876 0 -1013.20080537 0 3418.95018887 0 3639
0.05850000 0.05849280 32823.39916054 0 665.29990334 0 20403.80955383 0 1861.79050212 0 3066.44976746 0 3846
0.05950000 0.05951020 33212.25652554 0 -412.41063084 0 18181.24459737 0 4931.06852480 0 4146.26651994 0 3787
0.06050000 0.06049470 32808.09330875 0 -338.54880477 0 15684.72707630 0 2139.43643533 0 3987.91750111 0 3930
0.06150000 0.06148310 32529.59335338 0 581.89077493 0 15120.51788754 0 1352.03909038 0 6398.02350676 0 4083
0.06250000 0.06249100 31168.92531177 0 421.46881139 0 13471.36781331 0 706.10996251 0 2756.18462403 0 4303
0.06350000 0.06350600 30968.72920686 0 856.65521517 0 14051.65923764 0 -1023.53780093 0 4238.78928488 0 4470
0.06450000 0.06451750 29517.55699815 0 570.79957798 0 13676.77678079 0 -711.77201855 0 -485.77668042 0 4479
0.06550000 0.06550280 29974.62522439 0 -129.90897162 0 14296.88560217 0 646.94729975 0 2759.29015917 0 4636
0.06650000 0.06648880 29999.80224146 0 -196.13007211 0 11580.20782167 0 913.04064221 0 -1305.22314806 0 4653
0.06750000 0.06749660 30240.48121524 0 63.56409336 0 12039.49428730 0 2166.96478615 0 -12.28704980 0 5220
0.06850000 0.06852730 30120.36355229 0 486.06837890 0 10687.42192332 0 -1066.93099987 0 -1604.40818574 0 5029
0.06950000 0.06949320 29357.17829028 0 621.85235754 0 11806.46823941 0 -539.27506890 0 -1166.19499432 0 5040
0.07050000 0.07048030 28006.15959002 0 850.93992138 0 12440.55196894 0 233.48633256 0 -28.01336887 0 5475
0.07150000 0.07148790 27430.52646841 0 572.81152111 0 10523.52730602 0 434.16712278 0 -2084.29100410 0 5509
0.07250000 0.07249820 26896.92898323 0 28.82557722 0 11579.65326182 0 1117.40481894 0 -142.35551283 0 5916
0.07350000 0.07351270 26661.79560792 0 305.79760930 0 9519.17505757 0 765.26929791 0 -2862.24974044 0 5721
0.07450000 0.07449140 26278.59475336 0 321.69905836 0 10246.21410872 0 448.86184961 0 868.01592820 0 6028
0.07550000 0.07549160 25637.63448172 0 -71.34279343 0 9065.57837598 0 884.15916536 0 279.54585524 0 6183
0.07650000 0.07648840 25887.74097291 0 16.41264233 0 9100.71528791 0 1225.10034131 0 -1494.28369124 0 6330
0.07750000 0.07749960 25689.09763556 0 84.49418021 0 7156.52828366 0 566.11465639 0 133.89958428 0 6583
0.07850000 0.07848650 25045.91912454 0 585.54643345 0 8447.42160527 0 350.58718993 0 971.06645729 0 6549
0.07950000 0.07947320 25150.39819979 0 42.03020175 0 6664.57824302 0 1214.94080491 0 791.49443310 0 6828
0.08050000 0.08048110 24600.94030297 0 166.54319514 0 7118.59639010 0 1091.62222252 0 1139.47630087 0 7147
0.08150000 0.08149960 24466.84773187 0 313.81210821 0 6115.70817964 0 -349.23517303 0 1704.17350229 0 7386
0.08250000 0.08250610 23599.40521855 0 624.39002340 0 6437.51925910 0 -453.95936373 0 1267.89017914 0 7227
0.08350000 0.08350160 23218.08986747 0 552.08207401 0 7123.93125583 0 -968.85819998 0 -569.32444879 0 7798
0.08450000 0.08449610 22131.92895033 0 538.59961500 0 7964.88799084 0 -163.76152294 0 269.81776640 0 7371
0.08550000 0.08548940 21939.82941919 0 94.55256490 0 7522.50450936 0 188.96404977 0 -1720.51083540 0 8256
0.08650000 0.08650700 21676.19166773 0 269.34084493 0 7756.58422095 0 31.92556677 0 -2138.97060506 0 8037
0.08750000 0.08749060 21516.14569577 0 576.80213377 0 7870.34662805 0 -487.62225559 0 -1411.47681483 0 8155
0.08850000 0.08849210 20599.34735603 0 333.95815835 0 7814.97937288 0 102.82615417 0 -1799.06978338 0 8718
0.08950000 0.08949900 20657.90887591 0 123.15443267 0 8016.35114468 0 931.35442661 0 -1120.73217803 0 8571
0.09050000 0.09049190 19853.90800914 0 342.77676904 0 7631.91916725 0 638.22296423 0 -247.95590809 0 8932
0.09150000 0.09150830 19681.32898462 0 236.40220823 0 6659.43192764 0 840.99000860 0 -95.57195681 0 9285
0.09250000 0.09250820 19448.19202477 0 286.47563510 0 7359.16445190 0 594.20644002 0 290.64370691 0 9204
0.09350000 0.09350330 18577.75488827 0 643.93603978 0 6822.94944424 0 -672.11322563 0 200.65971695 0 9349
0.09450000 0.09448040 18029.84975903 0 694.13479717 0 7719.18470484 0 -1081.16100556 0 312.15730163 0 9564
0.09550000 0.09549270 17024.65457961 0 247.06306674 0 8137.17864423 0 13.47414061 0 -420.95528897 0 10155
0.09650000 0.09649430 17227.95621967 0 89.74430919 0 7799.32969399 0 328.16078971 0 -811.47411528 0 9913
0.09750000 0.09749140 16904.20418076 0 43.39009341 0 7162.40661804 0 622.93485836 0 -1864.64093974 0 10476
0.09850000 0.09850240 17047.83518124 0 -237.63111286 0 7128.52301136 0 748.32638546 0 -1622.45356318 0 10575
0.09950000 0.09950330 17152.86881633 0 -22.57712960 0 6003.11034823 0 568.39833384 0 -1462.82905670 0 10882
0.10050000 0.10051200 17125.91720775 0 -50.54380452 0 5745.83894381 0 439.48978819 0 -398.55883498 0 10875
0.10150000 0.10150300 17358.49960775 0 144.98190827 0 5063.55287235 0 808.77895442 0 -480.97973774 0 11118
0.10250000 0.10250800 16620.26953888 0 462.58387848 0 5696.86021809 0 -236.85472907 0 253.78100473 0 11575
0.10350000 0.10349800 16528.98898800 0 399.15221401 0 5270.49242501 0 143.78849548 0 1067.01085649 0 11364
0.10450000 0.10450100 16046.52192075 0 138.24400612 0 6911.52374307 0 485.78444425 0 1801.62075868 0 12093
0.10550000 0.10551000 15660.65917892 0 275.68168223 0 6150.82290918 0 -257.93798535 0 1810.54917222 0 12067
0.10650000 0.10649700 15599.54668374 0 176.56852806 0 6589.40211011 0 118.14564813 0 2148.42030486 0 12054
0.10750000 0.10749900 15474.88163004 0 -130.74968434 0 6513.49395819 0 47.57147465 0 1562.31709332 0 12807
0.10850000 0.10850100 15769.79655689 0 -30.46385792 0 6604.07576367 0 284.18752116 0 2216.34279497 0 12736
0.10950000 0.10950300 15938.38275050 0 -80.75677957 0 6276.08688752 0 66.58289534 0 836.89402957 0 12933
0.11050000 0.11050200 15997.83156615 0 27.86352680 0 5850.46220463 0 -19.93797928 0 523.56549754 0 13428
0.11150000 0.11150900 15871.50283291 0 104.84297742 0 5454.67284153 0 -182.84170905 0 276.15194898 0 13453
0.11250000 0.11250000 15657.55364378 0 150.42879509 0 5661.51257342 0 -46.89657532 0 -1434.82378440 0 13668
0.11350000 0.11349100 15446.82090176 0 379.68716337 0 5717.95567469 0 -220.33550033 0 -844.48484476 0 13791
0.11450000 0.11448600 15001.17660838 0 406.43136657 0 6019.20367500 0 -523.56549754 0 -1679.46231549 0 14205
0.11550000 0.11549300 14518.59862916 0 360.37295300 0 6364.19535607 0 -124.53085021 0 -1544.50463102 0 14776
0.11650000 0.11649800 14223.79461428 0 107.67289633 0 6328.54824908 0 399.27865366 0 -2129.19926054 0 14553
0.11750000 0.11747300 13776.48664136 0 234.25051603 0 5953.01141161 0 43.09551121 0 -1799.21396894 0 14568
0.11850000 0.11849100 13889.39502629 0 56.49234618 0 5744.50800018 0 569.13478932 0 -1295.08579405 0 16015
0.11950000 0.11950300 13586.05078976 0 -37.72903557 0 5927.67911778 0 452.00509483 0 -1682.78967458 0 15270
0.12050000 0.12050700 13730.56908599 0 118.79448315 0 5159.19226363 0 295.74454838 0 -724.67218972 0 15999
0.12150000 0.12150000 13564.53386768 0 68.06989212 0 5300.19465043 0 177.67542951 0 -1367.07875344 0 15670
0.12250000 0.12250700 13477.91161951 0 45.24631613 0 4916.73869834 0 244.84482735 0 -343.50878804 0 16887
0.12350000 0.12352200 13324.63127769 0 -118.84217530 0 4694.69293544 0 611.80373310 0 -826.93968030 0 16407
0.12450000 0.12449800 13828.83709095 0 -17.84739957 0 3891.53499963 0 551.15263171 0 464.94186695 0 16306
0.12550000 0.12549900 13720.69792071 0 -39.17432945 0 3985.12251948 0 499.35896020 0 -392.05052061 0 17523
0.12650000 0.12650100 13397.27861770 0 213.06078426 0 3641.72797077 0 310.77533849 0 761.76226144 0 17154
0.12750000 0.12750600 13355.68662914 0 170.32307506 0 3733.88472621 0 -37.19266529 0 673.87894418 0 18007
0.12850000 0.12850300 12811.10885898 0 184.05619512 0 3619.73412722 0 -34.50038814 0 631.07025132 0 17496
0.12950000 0.12949900 12791.81017629 0 263.76640934 0 4146.37743191 0 13.50597235 0 1072.57309176 0 18405
0.13050000 0.13049000 12531.72160786 0 144.07243012 0 3519.93553708 0 80.71518758 0 817.48665315 0 18100
0.13150000 0.13148800 12462.29071496 0 38.49321904 0 4200.40265225 0 217.11683498 0 1284.91516645 0 19059
0.13250000 0.13249300 12360.02987910 0 37.55590199 0 3875.10893695 0 5.54016379 0 1254.50310442 0 18957
0.13350000 0.13349100 12414.59856808 0 154.80870876 0 4012.96142382 0 -148.24050193 0 1039.33942922 0 19468
0.13450000 0.13450700 12337.40383732 0 66.26967994 0 3892.52211616 0 -15.71256598 0 294.75077714 0 19953
0.13550000 0.13551000 12351.37874548 0 -51.42134003 0 3952.14839095 0 -95.28547119 0 619.15386932 0 19956
0.13650000 0.13649900 12105.48690914 0 98.15021645 0 3890.50351832 0 91.84986202 0 422.16090208 0 19723
0.13750000 0.13749600 12114.47077867 0 172.11873984 0 3745.65248617 0 57.19042612 0 -405.72596644 0 20946
0.13850000 0.13851100 11811.45927804 0 181.76919031 0 3928.98997173 0 181.69931576 0 516.04455689 0 20955
0.13950000 0.13949800 11623.35257780 0 184.51980715 0 3465.81049597 0 307.11413438 0 555.03122328 0 20506
0.14050000 0.14048300 11362.26580164 0 157.10015005 0 3456.89317363 0 536.10187745 0 808.48392858 0 21447
0.14150000 0.14148400 11145.54381327 0 130.81955888 0 3205.93266028 0 343.80048652 0 845.03607725 0 21771
0.14250000 0.14249400 10981.73792554 0 152.83558483 0 2928.74146615 0 53.48818458 0 971.84173195 0 22470
0.14350000 0.14350900 10636.16950222 0 250.83185546 0 2852.41184875 0 59.03123208 0 1400.03069958 0 22519
0.14450000 0.14449900 10290.63435250 0 238.12023464 0 2996.23139958 0 -55.08742427 0 704.56606790 0 22218
0.14550000 0.14550500 10148.13465411 0 178.72354762 0 3001.89900122 0 16.42073891 0 1416.63422141 0 23559
0.14650000 0.14650700 9866.52916359 0 43.74412441 0 2658.67082046 0 377.11733303 0 797.33173005 0 23044
0.14750000 0.14750500 9808.32256201 0 110.01779718 0 3099.31298401 0 205.56978984 0 1164.40931161 0 23649
0.14850000 0.14849900 9602.68067939 0 130.01766535 0 2270.00200580 0 -237.74535218 0 758.90738734 0 23640
0.14950000 0.14949500 9523.68917473 0 89.93585417 0 2993.39205316 0 136.58587218 0 924.81062042 0 24457
0.15050000 0.15050000 9536.93206388 0 -32.14528338 0 2429.58214749 0 -197.36008586 0 492.30939542 0 24591
0.15150000 0.15149900 9674.21889971 0 -79.53464058 0 2610.79012323 0 156.61546475 0 337.07589381 0 25020
0.15250000 0.15250500 9680.25251085 0 -2.47992509 0 2408.86379159 0 -171.26471768 0 58.60399917 0 25297
0.15350000 0.15350100 9715.26741961 0 88.47713994 0 2401.49923682 0 33.38206275 0 -110.93747924 0 25452
0.15450000 0.15450400 9636.22045896 0 -5.29641255 0 2297.58581261 0 197.57858244 0 -1.70262073 0 26061
0.15550000 0.15549900 9552.28228046 0 104.86726715 0 2282.14686646 0 301.69497555 0 -46.24873851 0 26128
0.15650000 0.15649500 9627.75787569 0 65.63903448 0 1878.84876303 0 160.08257291 0 100.44154683 0 26331
0.15750000 0.15749700 9443.92128628 0 72.03044764 0 2088.29492620 0 275.44543973 0 329.58489939 0 27345
0.15850000 0.15849900 9299.04807174 0 33.70248743 0 1529.75333908 0 -45.68120196 0 519.23105777 0 26980
0.15950000 0.15949700 9164.73367669 0 264.14129180 0 2073.25526314 0 -399.92748868 0 271.41378964 0 27777
0.16050000 0.16050000 8980.88599608 0 236.53308436 0 2137.42892868 0 -229.12083744 0 371.44307668 0 28224
0.16150000 0.16150500 8703.57279878 0 57.53558417 0 2770.04862021 0 -219.30069166 0 42.25124930 0 28075
0.16250000 0.16249700 8709.73950429 0 67.59141788 0 2522.45983074 0 87.39253179 0 -155.77697026 0 28590
0.16350000 0.16349900 8630.40417252 0 34.11042165 0 2547.79212457 0 267.69269306 0 199.49181391 0 29163
0.16450000 0.16449100 8596.67584260 0 80.11792663 0 2616.00298580 0 -17.30248906 0 285.57613902 0 28996
0.16550000 0.16550500 8605.73735050 0 68.04693334 0 2735.83227763 0 131.80556629 0 487.35273950 0 30777
0.16650000 0.16650700 8383.93559393 0 50.58761475 0 2633.41616501 0 319.03051638 0 345.74588247 0 29211
0.16750000 0.16749900 8443.36222718 0 27.52768535 0 2507.37580289 0 -151.97490794 0 884.19243895 0 30922
0.16850000 0.16850800 8471.99969770 0 15.29065685 0 2590.45995923 0 125.83517498 0 465.78590704 0 30867
0.16950000 0.16949900 8448.73036651 0 -9.29915898 0 2355.68150223 0 179.98350760 0 625.23073613 0 30852
0.17050000 0.17049200 8506.30476986 0 21.76769404 0 2380.98052247 0 -110.99404434 0 324.65042587 0 31257
0.17150000 0.17149500 8363.41687958 0 183.53490886 0 2295.64485315 0 -109.61807045 0 243.69245199 0 32608
0.17250000 0.17250900 8156.42187094 0 197.46212487 0 2560.55809225 0 -188.54480252 0 252.09847015 0 32361
0.17350000 0.17350400 8075.18994449 0 92.52287585 0 2747.87731751 0 -196.33747750 0 149.59695532 0 32508
0.17450000 0.17449800 7949.00539681 0 94.30367844 0 2698.95404777 0 119.71616162 0 111.05282768 0 32791
0.17550000 0.17549800 7938.40221252 0 28.41986124 0 2774.05254231 0 241.27568017 0 178.27546327 0 33633
0.17650000 0.17650100 7755.24218612 0 55.61725074 0 2569.09831390 0 -157.83993289 0 28.14901421 0 33984
0.17750000 0.17750300 7877.64463564 0 67.70554630 0 2936.46093922 0 235.06793724 0 510.28046183 0 34069
0.17850000 0.17849800 7741.54455789 0 77.34257641 0 2624.92030814 0 -119.46993705 0 -38.54412763 0 34536
