### header ###
fiducial parameters:
Omega_m = 0.31
Omega_nu = 0
Omega_de = 0.69
Omega_k = 0
H_0 = 100
w_de = -1
zeff = 0
beta = 0
fgrowth = 0
b_1 = 2
gamma = 0.55
Lx = 3500 Ly = 3500 Lz = 3500
nx = 700 ny = 700 nz = 700
xoffset = 1379.75464 yoffset = 22.6059522 zoffset = 368.141391
bins = 400 dk = 0.001
kx_ny = 0.628318531 ky_ny = 0.628318531 kz_ny = 0.628318531
############################
A(data) = 3.36596169 (not used)
A(ran) = 3.37552552 (used)
Ngal = 189837
weighted Ngal = 0
Nran = 9399747
weighted Nran = 0
SN(data) = 6602.04438
SN(ran) = 134.26282
SN(data+ran) = 6736.3072
############################
13 columns: k_central k_mean P_0(k) sigma^{lin}_{P_0(k)} P^img_1(k) sigma^{lin}_{P_1(k)} P_2(k) sigma^{lin}_{P_2(k)} P^img_3(k) sigma^{lin}_{P_3(k)} P_4(k) sigma^{lin}_{P_4(k)} N_modes
### header ###
0.00050000 0 0 0 0 0 0 0 0 0 0 0 0
0.00150000 0.00179520 39063.08473967 0 -20143.16642554 0 25516.62952302 0 -39663.67305442 0 147374.27944951 0 3
0.00250000 0.00253879 51656.58431453 0 -18779.94740864 0 -17890.54432536 0 11024.20611866 0 -44981.68016715 0 6
0.00350000 0.00331552 69384.42078066 0 -13564.86660358 0 16739.72173001 0 -33990.19307949 0 45231.67574636 0 7
0.00450000 0.00420575 79274.88474727 0 -4386.32438669 0 -8526.56838669 0 -6224.54609530 0 -1109.00323725 0 24
0.00550000 0.00557378 94680.77913229 0 -1380.51019295 0 33077.05483475 0 -3174.25620179 0 18284.61455293 0 45
0.00650000 0.00659388 87521.63332615 0 8136.89027311 0 -24563.67388123 0 1976.80621448 0 -39604.11332680 0 40
0.00750000 0.00754703 86243.48378984 0 13968.91890841 0 77744.29956841 0 -12506.10094291 0 44107.13928778 0 57
0.00850000 0.00846663 62676.35395441 0 15478.43081306 0 45721.68482754 0 -2030.48760771 0 -1596.05651444 0 75
0.00950000 0.00948925 66783.97874418 0 4569.73951062 0 84187.95225942 0 22788.63872164 0 17563.24310342 0 112
0.01050000 0.01054430 63290.02988155 0 -472.31862204 0 69814.98104619 0 26490.21479113 0 15187.84145302 0 105
0.01150000 0.01145670 58514.16047565 0 1494.06186730 0 67740.15083309 0 10526.48865560 0 22570.69670160 0 144
0.01250000 0.01249090 68154.62886304 0 200.11624830 0 61967.29373351 0 23207.33140643 0 14662.22962964 0 169
0.01350000 0.01339930 66355.41489410 0 3073.62577188 0 58642.04197646 0 759.25010533 0 8438.21591180 0 180
0.01450000 0.01448870 60633.13365260 0 3742.02566477 0 72923.17807896 0 -2153.16733715 0 26912.56757092 0 267
0.01550000 0.01550050 64579.49243875 0 2028.64646901 0 74335.42018638 0 25634.97259446 0 15928.95523310 0 238
0.01650000 0.01653350 58058.75592895 0 -763.27288246 0 66101.87013186 0 10942.75236827 0 26767.38380287 0 315
0.01750000 0.01747870 63227.91917864 0 2106.46230680 0 53953.34937857 0 16644.89199611 0 17492.92491477 0 297
0.01850000 0.01844180 63778.81893106 0 -3639.36554582 0 38489.55894548 0 21576.70363110 0 25726.58588125 0 388
0.01950000 0.01947590 69228.03490369 0 -6770.12207318 0 36027.75687085 0 14754.84112416 0 30744.79794047 0 399
0.02050000 0.02045430 71374.18151317 0 -3752.55121067 0 28424.29771497 0 17368.25986107 0 27957.80197132 0 462
0.02150000 0.02154770 80383.78261815 0 -2466.64892769 0 8601.78888439 0 11120.58862014 0 24655.84172787 0 571
0.02250000 0.02255340 76190.20105203 0 -1280.25686373 0 20123.86774286 0 -7334.14271159 0 17473.40440814 0 510
0.02350000 0.02348930 77183.41773874 0 5735.10266517 0 14429.42540570 0 -9718.84987623 0 20048.55851558 0 555
0.02450000 0.02439640 73431.26581116 0 6832.07749933 0 24585.07989134 0 -16906.64424408 0 -1210.72615006 0 592
0.02550000 0.02547300 64741.75665010 0 5264.39226669 0 33796.54078078 0 -7525.03330226 0 4076.53616473 0 837
0.02650000 0.02652900 61944.77860370 0 2211.32957395 0 44390.63028178 0 -454.46401319 0 -3817.12415931 0 723
0.02750000 0.02749970 60782.31025156 0 999.98231685 0 40864.18421209 0 7115.02502468 0 -729.07206755 0 826
0.02850000 0.02848090 60810.03824393 0 -1343.49886873 0 39999.18176210 0 8514.62316757 0 -5123.21242073 0 831
0.02950000 0.02946900 60573.46301302 0 -1860.94757115 0 28929.94538384 0 6611.06321775 0 -2536.62328924 0 996
0.03050000 0.03053250 61591.30215696 0 335.10387900 0 22766.23450380 0 4914.95301564 0 -2228.48765562 0 1041
0.03150000 0.03150510 63177.34332056 0 -150.74156684 0 22580.67877886 0 1620.75661004 0 -5105.63287357 0 1036
0.03250000 0.03246190 58844.12358486 0 1046.43890439 0 12162.16292554 0 2958.04440848 0 -4563.11806604 0 1059
0.03350000 0.03345080 60492.27545136 0 1138.99937940 0 13559.65374102 0 3883.74897937 0 -5429.02999419 0 1302
0.03450000 0.03451200 54365.27643322 0 1155.59181004 0 2198.37505591 0 796.67845855 0 -7397.32926060 0 1339
0.03550000 0.03553350 55195.23070086 0 2800.82669174 0 6513.01703672 0 1432.08425876 0 -12444.98844772 0 1365
0.03650000 0.03647120 48346.97114518 0 1649.43844535 0 4151.30192336 0 -4239.13311199 0 -10316.74303012 0 1308
0.03750000 0.03744890 46938.61095669 0 1724.99167896 0 2662.10909151 0 -128.39724147 0 -8547.30892498 0 1579
0.03850000 0.03847530 46295.21062173 0 983.36770382 0 7519.08842070 0 -852.51043487 0 -9919.76690895 0 1662
0.03950000 0.03950240 42778.85754126 0 907.29318396 0 2339.76563461 0 -986.18154049 0 -11349.84366106 0 1683
0.04050000 0.04050350 44123.66517124 0 1464.31527709 0 8182.66364291 0 2050.54049179 0 -4036.76313247 0 1822
0.04150000 0.04152450 41213.88965187 0 112.84849247 0 6273.53591222 0 774.59255807 0 -1355.48845263 0 1887
0.04250000 0.04250150 42933.57973869 0 -522.74585808 0 6430.39871066 0 4951.09922649 0 2471.10758887 0 1920
0.04350000 0.04349210 42780.41030884 0 -919.38924335 0 4478.95806360 0 1531.31719785 0 6543.31818679 0 2005
0.04450000 0.04448520 43375.78576102 0 299.65641355 0 5159.72464109 0 1733.05497914 0 5401.06908668 0 2151
0.04550000 0.04548030 43868.90037734 0 -149.41727793 0 4534.25877158 0 -38.72846333 0 11887.21215320 0 2274
0.04650000 0.04648670 42167.51076548 0 570.18845303 0 3135.89175155 0 592.87438727 0 5450.61346345 0 2311
0.04750000 0.04749250 43522.74412058 0 1693.52595322 0 9387.92183288 0 -3553.95223812 0 8112.61164299 0 2568
0.04850000 0.04851840 39131.96107272 0 1252.61760094 0 7692.48819379 0 -4287.16908597 0 625.25402764 0 2493
0.04950000 0.04949480 38815.30739985 0 1841.20524059 0 12581.29925822 0 -1337.66489914 0 3243.72036828 0 2644
0.05050000 0.05050630 37610.35976339 0 193.55802354 0 13820.74051718 0 -2708.00446448 0 -3838.30834548 0 2829
0.05150000 0.05149060 37121.90344979 0 568.62348514 0 15037.88847028 0 -854.20073328 0 -8322.36835967 0 2784
0.05250000 0.05249300 37105.59939028 0 733.65273189 0 16090.11032476 0 -991.49644207 0 -5640.30620485 0 3055
0.05350000 0.05348950 36780.84914363 0 31.25898583 0 15619.51083824 0 -584.41180400 0 -9920.63202231 0 3009
0.05450000 0.05448610 36526.52799761 0 -259.50073500 0 16398.22377598 0 2857.74671448 0 -5869.12868909 0 3336
0.05550000 0.05550870 37479.48363940 0 -313.12667224 0 14644.37280256 0 608.79469137 0 -5059.11639357 0 3349
0.05650000 0.05647670 37295.25885809 0 -173.38868189 0 13286.14482428 0 2086.67561144 0 -6208.12003262 0 3324
0.05750000 0.05747970 37248.45400697 0 1215.45099996 0 15093.45536699 0 332.83905658 0 -4704.68610389 0 3639
0.05850000 0.05849280 36130.79409050 0 747.60989413 0 13393.06396286 0 -172.87294123 0 -2059.56872610 0 3846
0.05950000 0.05951020 35119.16601685 0 218.84706170 0 13681.76781942 0 1068.79432096 0 -1882.61976999 0 3787
0.06050000 0.06049470 34819.92552319 0 851.62313911 0 14289.67632415 0 258.45705336 0 -2260.17520531 0 3930
0.06150000 0.06148310 32460.38428442 0 1007.24926909 0 12908.71139213 0 1022.41537180 0 -754.59845733 0 4083
0.06250000 0.06249100 32690.30479716 0 -95.38784294 0 11090.30965247 0 1962.11037852 0 -2042.54373879 0 4303
0.06350000 0.06350600 32364.99999067 0 -45.96613481 0 11308.25167250 0 1378.92415178 0 -91.00304914 0 4470
0.06450000 0.06451750 31776.50108060 0 729.02992101 0 8862.70929260 0 1030.89570099 0 -1969.65239244 0 4479
0.06550000 0.06550280 30736.59045473 0 278.81272712 0 9044.21673066 0 328.47688882 0 1097.34638926 0 4636
0.06650000 0.06648880 31026.73616690 0 233.27005422 0 6910.07079627 0 1504.68723398 0 -1491.54416560 0 4653
0.06750000 0.06749660 29554.15794808 0 372.19727807 0 7955.11664632 0 912.18883829 0 1519.05033403 0 5220
0.06850000 0.06852730 29027.32609304 0 588.36359747 0 6254.08195277 0 -90.95702067 0 2494.66529119 0 5029
0.06950000 0.06949320 28717.77078622 0 150.25799066 0 6187.56804467 0 2597.34759253 0 2183.22448088 0 5040
0.07050000 0.07048030 28549.73915245 0 -389.51174562 0 6089.17803654 0 1371.28231709 0 2225.23793492 0 5475
0.07150000 0.07148790 28788.19988684 0 -464.34405143 0 4120.91204372 0 641.96513408 0 233.64271843 0 5509
0.07250000 0.07249820 29430.49110211 0 488.78904951 0 4158.75520771 0 -1186.14805763 0 1626.83458597 0 5916
0.07350000 0.07351270 27938.72511257 0 1218.47889673 0 3797.13782241 0 -3073.12666802 0 -2265.21060872 0 5721
0.07450000 0.07449140 27660.22515720 0 737.27733506 0 5444.99022659 0 -1800.28981504 0 -2829.07597037 0 6028
0.07550000 0.07549160 26759.61996501 0 402.95982192 0 7702.38154147 0 -753.46382788 0 -4835.67313985 0 6183
0.07650000 0.07648840 26533.24863529 0 5.28773924 0 7257.16980477 0 -22.06061255 0 -7039.88216535 0 6330
0.07750000 0.07749960 26157.14614678 0 -153.40456323 0 6345.40686844 0 915.80678673 0 -5042.79015166 0 6583
0.07850000 0.07848650 26571.95691264 0 -98.80681531 0 5630.76777548 0 1287.27759140 0 -5903.54467322 0 6549
0.07950000 0.07947320 26695.62375862 0 -63.72280839 0 5154.38977535 0 471.04978911 0 -4047.44395513 0 6828
0.08050000 0.08048110 26538.12876195 0 298.58278568 0 4345.99679459 0 1769.41192274 0 -4331.65587693 0 7147
0.08150000 0.08149960 25527.72071997 0 699.53399184 0 4404.95759756 0 -769.66141191 0 -1764.65379925 0 7386
0.08250000 0.08250610 24779.39766187 0 934.18157272 0 4926.59877243 0 -269.19998673 0 -2037.74125051 0 7227
0.08350000 0.08350160 23947.11424288 0 658.65849461 0 5829.72166633 0 124.91682387 0 -1522.77697620 0 7798
0.08450000 0.08449610 22417.74909569 0 469.77541058 0 5811.34355299 0 -14.69040127 0 -1474.75209342 0 7371
0.08550000 0.08548940 22464.66485878 0 559.23811428 0 6237.26769820 0 294.64430165 0 -791.85156964 0 8256
0.08650000 0.08650700 21691.60843149 0 277.48621997 0 5742.54485832 0 486.20036414 0 -71.91997931 0 8037
0.08750000 0.08749060 21119.08084502 0 242.99148834 0 5374.90495308 0 746.23902219 0 -274.23760838 0 8155
0.08850000 0.08849210 20664.89632999 0 261.23317996 0 5915.29025079 0 237.31723198 0 358.23457023 0 8718
0.08950000 0.08949900 20386.28546265 0 4.05465323 0 5170.72710846 0 446.67133822 0 -762.02623193 0 8571
0.09050000 0.09049190 20523.15083299 0 56.22793205 0 4187.62559336 0 49.95153461 0 50.94397491 0 8932
0.09150000 0.09150830 20566.73923700 0 157.84104201 0 4812.85854773 0 -540.43077162 0 -1736.14942309 0 9285
0.09250000 0.09250820 19823.40721753 0 563.96740066 0 4124.94923941 0 -246.72478523 0 -1794.96604051 0 9204
0.09350000 0.09350330 19318.97958032 0 432.31267465 0 5135.43491977 0 -1031.13194348 0 -2359.68542433 0 9349
0.09450000 0.09448040 18937.77514121 0 409.06774408 0 4538.16287291 0 -21.99794729 0 -3858.60523589 0 9564
0.09550000 0.09549270 18469.39389409 0 413.47649487 0 5550.13477366 0 -95.41357451 0 -3498.42970620 0 10155
0.09650000 0.09649430 17708.42687147 0 441.28988946 0 4339.22007325 0 -174.06302667 0 -2852.64476389 0 9913
0.09750000 0.09749140 17511.00356579 0 -63.69929505 0 4683.35773216 0 1087.56395355 0 -2254.58524204 0 10476
0.09850000 0.09850240 17227.73439574 0 151.53791478 0 4037.66151942 0 263.66215209 0 -3196.62714604 0 10575
0.09950000 0.09950330 17124.47535215 0 206.19311511 0 3582.37897590 0 580.27256930 0 -2260.00883735 0 10882
0.10050000 0.10051200 16267.23674002 0 302.57783482 0 3368.20796283 0 203.97598484 0 -1903.39358188 0 10875
0.10150000 0.10150300 16595.75799363 0 358.58061558 0 3988.87134405 0 -245.97391120 0 -1884.58291185 0 11118
0.10250000 0.10250800 15809.05939409 0 124.23582438 0 3052.03121142 0 244.53981943 0 -2139.27006737 0 11575
0.10350000 0.10349800 15773.01300401 0 99.15164062 0 3419.63784308 0 -329.03588514 0 -2148.16520733 0 11364
0.10450000 0.10450100 15605.64684206 0 49.48903169 0 3736.52443108 0 540.88551069 0 -1610.49725287 0 12093
0.10550000 0.10551000 15647.01700667 0 76.56020338 0 3233.66065265 0 565.47247609 0 -2049.18736576 0 12067
0.10650000 0.10649700 15588.23366285 0 64.85255771 0 2813.54829464 0 236.83365579 0 -741.56297356 0 12054
0.10750000 0.10749900 15451.03555660 0 148.30483087 0 2754.48767089 0 116.33778303 0 -1162.88981763 0 12807
0.10850000 0.10850100 15331.36154153 0 209.90644784 0 3096.86182949 0 -266.83645266 0 -887.93793616 0 12736
0.10950000 0.10950300 14896.91935707 0 411.99027448 0 3576.68919186 0 -452.36666785 0 -517.59621534 0 12933
0.11050000 0.11050200 14502.07274571 0 323.40821181 0 4096.96614951 0 -473.68394838 0 -538.02176364 0 13428
0.11150000 0.11150900 14221.35455095 0 210.05506988 0 5215.60209131 0 -164.50685138 0 -204.51834437 0 13453
0.11250000 0.11250000 14268.49213798 0 -83.30764396 0 4944.77724423 0 577.89350755 0 -176.71271362 0 13668
0.11350000 0.11349100 14282.13431023 0 -246.02825806 0 4901.12229304 0 587.37759006 0 357.73324813 0 13791
0.11450000 0.11448600 14807.96795754 0 50.95340243 0 4831.49175860 0 -1.15533671 0 337.93435246 0 14205
0.11550000 0.11549300 14256.73546921 0 396.53247329 0 5543.34696113 0 -751.86669552 0 468.71731039 0 14776
0.11650000 0.11649800 14113.99176449 0 336.99160072 0 5615.51737967 0 -220.62608969 0 517.06494701 0 14553
0.11750000 0.11747300 13717.70329753 0 174.52663870 0 6101.76654508 0 213.84382276 0 533.12278195 0 14568
0.11850000 0.11849100 13697.62823105 0 -61.99579811 0 5483.93141908 0 607.65895280 0 906.23286553 0 16015
0.11950000 0.11950300 13590.15453263 0 56.39241450 0 5295.92453961 0 322.84477901 0 14.67809004 0 15270
0.12050000 0.12050700 13696.07546348 0 34.00239340 0 4771.00037044 0 322.49762454 0 952.89131285 0 15999
0.12150000 0.12150000 13564.75569162 0 28.65177816 0 4721.63345283 0 -43.14619798 0 -157.31199192 0 15670
0.12250000 0.12250700 13734.67282886 0 63.02417389 0 4481.42030932 0 -204.11351568 0 169.71860482 0 16887
0.12350000 0.12352200 13536.91678728 0 63.06643135 0 4468.11087299 0 -192.37237459 0 -872.09970692 0 16407
0.12450000 0.12449800 13444.74894064 0 126.63595940 0 4422.04913206 0 -8.48494312 0 -944.06050184 0 16306
0.12550000 0.12549900 13333.50423524 0 158.44329400 0 4377.49579392 0 -372.55552373 0 -1462.41868241 0 17523
0.12650000 0.12650100 13143.51203152 0 64.79699081 0 4529.19009458 0 -26.29245875 0 -1807.31054271 0 17154
0.12750000 0.12750600 12931.00469799 0 228.55296815 0 4797.12013926 0 227.56585162 0 -1582.32561262 0 18007
0.12850000 0.12850300 12820.75820033 0 -15.80440109 0 4547.06910406 0 437.18836483 0 -697.44441034 0 17496
0.12950000 0.12949900 12834.95493242 0 -108.30509455 0 3736.39133672 0 807.50457589 0 -867.93607158 0 18405
0.13050000 0.13049000 13123.21514111 0 -161.89709273 0 3463.50352701 0 905.44871790 0 -754.74707937 0 18100
0.13150000 0.13148800 12997.88461559 0 58.78689301 0 2658.26044617 0 232.31732040 0 -228.63726125 0 19059
0.13250000 0.13249300 12593.05592698 0 470.84682021 0 3339.08247964 0 -938.41730083 0 -638.83519830 0 18957
0.13350000 0.13349100 12387.53604753 0 443.27299547 0 3935.97742580 0 -1019.85108706 0 -1070.30716022 0 19468
0.13450000 0.13450700 11927.02955024 0 181.93112178 0 4156.32623557 0 215.13816544 0 -580.76945492 0 19953
0.13550000 0.13551000 11702.65463598 0 23.73793427 0 4105.42873278 0 620.28073493 0 -142.34553075 0 19956
0.13650000 0.13649900 11844.84378085 0 -76.50308372 0 3342.70930104 0 1050.60808532 0 441.47511245 0 19723
0.13750000 0.13749600 11739.81014575 0 57.05466987 0 3380.43046186 0 1125.45702793 0 1026.61228072 0 20946
0.13850000 0.13851100 11652.41151380 0 201.62576020 0 2948.81653262 0 276.67988995 0 2416.87163579 0 20955
0.13950000 0.13949800 11326.33032352 0 147.95656729 0 2879.35236614 0 348.03399640 0 3021.47496383 0 20506
0.14050000 0.14048300 11037.57101098 0 179.85152235 0 3187.73200609 0 -61.97771946 0 3558.41089929 0 21447
0.14150000 0.14148400 10910.52134994 0 95.95427037 0 2981.59101961 0 -127.25484819 0 2582.04174074 0 21771
0.14250000 0.14249400 10993.97151577 0 120.77315269 0 3217.33441074 0 -219.60348134 0 2967.23901075 0 22470
0.14350000 0.14350900 10813.25155270 0 -11.07202027 0 3045.84232353 0 -182.53004642 0 1913.60857426 0 22519
0.14450000 0.14449900 10964.40238471 0 -116.26790849 0 2883.07900831 0 288.97559089 0 1996.02725879 0 22218
0.14550000 0.14550500 10925.52773941 0 103.36296810 0 2952.22153009 0 -224.35051363 0 971.01987426 0 23559
0.14650000 0.14650700 10836.43215432 0 121.64935725 0 2905.07285186 0 -197.64845698 0 239.25042761 0 23044
0.14750000 0.14750500 10634.09544840 0 130.12857731 0 3164.67340763 0 -36.86680592 0 515.46226905 0 23649
0.14850000 0.14849900 10422.48650182 0 135.05750524 0 2263.02564292 0 27.32493827 0 -89.61809137 0 23640
0.14950000 0.14949500 10471.83123704 0 6.17105325 0 2575.60884651 0 382.75942492 0 590.44763338 0 24457
0.15050000 0.15050000 10320.33657793 0 63.68620744 0 2228.21037570 0 276.49688520 0 -436.17352031 0 24591
0.15150000 0.15149900 10201.17275792 0 240.65790050 0 2255.59454097 0 -194.09151012 0 91.57879317 0 25020
0.15250000 0.15250500 9766.15383121 0 215.87018444 0 2278.61986583 0 -343.16385182 0 -404.80317886 0 25297
0.15350000 0.15350100 9547.14705627 0 261.35740137 0 2413.10062883 0 -284.08548215 0 -667.52701569 0 25452
0.15450000 0.15450400 9413.87523374 0 136.81213260 0 2679.78845945 0 18.72482416 0 -614.34805368 0 26061
0.15550000 0.15549900 9038.21639311 0 139.53280321 0 2490.99410500 0 92.33610010 0 -1142.64838320 0 26128
0.15650000 0.15649500 8966.34543688 0 101.57429077 0 2459.45074087 0 356.66405674 0 -397.62384707 0 26331
0.15750000 0.15749700 8783.77324392 0 32.71492725 0 2085.78831569 0 260.66087420 0 -838.55992735 0 27345
0.15850000 0.15849900 8874.64342051 0 10.67101804 0 2176.35902997 0 176.96448379 0 74.13844053 0 26980
0.15950000 0.15949700 8835.16985058 0 44.82340879 0 2130.86294009 0 -1.53132829 0 -650.47208214 0 27777
0.16050000 0.16050000 8719.54412239 0 160.93326772 0 2256.79239024 0 -337.53617849 0 -100.67124552 0 28224
0.16150000 0.16150500 8624.73657088 0 161.00425138 0 2305.32746808 0 -355.09243414 0 -626.92547102 0 28075
0.16250000 0.16249700 8582.81184641 0 28.54863003 0 2709.47959368 0 23.83742231 0 -587.15022052 0 28590
0.16350000 0.16349900 8655.73646635 0 -101.95848983 0 2583.73869388 0 340.96446746 0 -292.18094681 0 29163
0.16450000 0.16449100 8609.15343916 0 -34.18817095 0 2429.93706580 0 351.90371501 0 -454.56050661 0 28996
0.16550000 0.16550500 8856.50931350 0 101.59103848 0 2315.85301399 0 65.60420812 0 144.28538110 0 30777
0.16650000 0.16650700 8560.36326379 0 -3.75798590 0 2183.10247771 0 44.79379529 0 -752.20275879 0 29211
0.16750000 0.16749900 8538.12541391 0 162.59916550 0 2367.21634705 0 -247.07526706 0 18.48569795 0 30922
0.16850000 0.16850800 8379.44365917 0 151.65880883 0 2140.82283495 0 -140.57426660 0 -423.49295483 0 30867
0.16950000 0.16949900 8256.42010262 0 73.36061489 0 2503.88207585 0 -34.44936863 0 -344.71218291 0 30852
0.17050000 0.17049200 8381.18497709 0 -62.84305464 0 2200.88166642 0 227.41279311 0 -981.13393676 0 31257
0.17150000 0.17149500 8143.57826487 0 97.11751510 0 2252.28936428 0 -39.66966230 0 -836.07993571 0 32608
0.17250000 0.17250900 8188.73052765 0 161.21498412 0 2194.78150810 0 -308.05466788 0 -690.41924619 0 32361
0.17350000 0.17350400 8148.71348906 0 -2.45102143 0 2283.15616538 0 63.27805139 0 -1117.73755485 0 32508
0.17450000 0.17449800 8048.10524154 0 48.11383419 0 2770.27044415 0 -104.85861601 0 -1174.65757759 0 32791
0.17550000 0.17549800 7964.87689964 0 163.73823143 0 2490.32863318 0 -265.41677945 0 -1337.99763505 0 33633
0.17650000 0.17650100 7914.15685600 0 82.16824530 0 2889.04607227 0 18.08175656 0 -749.75825898 0 33984
0.17750000 0.17750300 7880.42852608 0 7.09448413 0 2695.92615101 0 214.52925873 0 -1081.12995020 0 34069
