### header ###
fiducial parameters:
Omega_m = 0.31
Omega_nu = 0
Omega_de = 0.69
Omega_k = 0
H_0 = 100
w_de = -1
zeff = 0
beta = 0
fgrowth = 0
b_1 = 2
gamma = 0.55
Lx = 3500 Ly = 3500 Lz = 3500
nx = 700 ny = 700 nz = 700
xoffset = 1379.75464 yoffset = 22.6059522 zoffset = 368.141391
bins = 400 dk = 0.001
kx_ny = 0.628318531 ky_ny = 0.628318531 kz_ny = 0.628318531
############################
A(data) = 3.31790329 (not used)
A(ran) = 3.317635 (used)
Ngal = 186240
weighted Ngal = 0
Nran = 9399747
weighted Nran = 0
SN(data) = 6647.93642
SN(ran) = 131.960202
SN(data+ran) = 6779.89662
############################
13 columns: k_central k_mean P_0(k) sigma^{lin}_{P_0(k)} P^img_1(k) sigma^{lin}_{P_1(k)} P_2(k) sigma^{lin}_{P_2(k)} P^img_3(k) sigma^{lin}_{P_3(k)} P_4(k) sigma^{lin}_{P_4(k)} N_modes
### header ###
0.00050000 0 0 0 0 0 0 0 0 0 0 0 0
0.00150000 0.00179520 81713.61713224 0 -55391.87762275 0 -56258.98740016 0 36777.52178455 0 -84053.97060029 0 3
0.00250000 0.00253879 156166.27127036 0 -55052.15426023 0 -64275.70455434 0 -50813.65334646 0 151636.62643671 0 6
0.00350000 0.00331552 185461.44976970 0 -34367.51559967 0 -79168.74199247 0 -61833.42298634 0 -41129.92929097 0 7
0.00450000 0.00420575 196788.88921292 0 -1468.88485023 0 -70919.44243829 0 -90472.77901013 0 25104.25882048 0 24
0.00550000 0.00557378 161874.91033961 0 24266.31889105 0 -27163.56135786 0 -64034.24919678 0 -23659.18677010 0 45
0.00650000 0.00659388 130880.56046781 0 16591.09969091 0 -87.05003563 0 -10289.81360393 0 -23735.93785298 0 40
0.00750000 0.00754703 106847.93309646 0 6428.47993358 0 14006.51806606 0 -18232.37501531 0 -38653.26501243 0 57
0.00850000 0.00846663 106392.63946173 0 3203.04894907 0 -10928.32272104 0 -1889.56285928 0 -37785.37885124 0 75
0.00950000 0.00948925 96714.90465259 0 9826.32357466 0 -15912.42934965 0 -15781.77504960 0 -51235.34065444 0 112
0.01050000 0.01054430 82295.12858824 0 8436.24167874 0 13140.96105622 0 -21640.58892552 0 -44652.82617764 0 105
0.01150000 0.01145670 74337.41660183 0 3814.49554563 0 10309.67793766 0 -16645.77929186 0 -45595.24518233 0 144
0.01250000 0.01249090 69698.63439020 0 3694.14496754 0 9064.16979397 0 -4183.55512408 0 -43010.10899763 0 169
0.01350000 0.01339930 67506.01566551 0 -1216.93722036 0 856.42784563 0 7663.69544651 0 -33288.67487252 0 180
0.01450000 0.01448870 77620.41089850 0 -6753.27454502 0 11079.41809706 0 1512.41779825 0 -32361.33989568 0 267
0.01550000 0.01550050 85949.45615874 0 2447.08405628 0 25741.22626122 0 -11524.08636511 0 -20297.00132722 0 238
0.01650000 0.01653350 78287.10274706 0 6724.61489210 0 29023.44417411 0 -6161.32627269 0 -24880.21664213 0 315
0.01750000 0.01747870 81281.61501111 0 4684.82177016 0 37987.12772372 0 -5357.93542175 0 -6729.70575150 0 297
0.01850000 0.01844180 73198.90523509 0 -249.49980271 0 46091.79806970 0 1138.04553646 0 9896.91904323 0 388
0.01950000 0.01947590 77666.88301372 0 -582.11370799 0 54250.03889693 0 17057.81725849 0 -13543.57150544 0 399
0.02050000 0.02045430 85013.58096025 0 -1833.51904110 0 52391.70884826 0 2739.01545115 0 1144.66698104 0 462
0.02150000 0.02154770 80445.89332106 0 1817.43680553 0 50421.80135828 0 -717.39969189 0 -719.62902247 0 571
0.02250000 0.02255340 81109.81237038 0 4560.91091785 0 54095.64943541 0 839.01022994 0 -5228.43460618 0 510
0.02350000 0.02348930 75700.63561873 0 4935.84883069 0 54838.20507110 0 -2735.27771778 0 -8352.09276750 0 555
0.02450000 0.02439640 67143.88808515 0 3237.35402123 0 45618.09304804 0 6550.28345847 0 -17055.59901910 0 592
0.02550000 0.02547300 65621.39948007 0 740.99621339 0 41366.61543385 0 8303.39132170 0 -11516.32252725 0 837
0.02650000 0.02652900 60827.78415905 0 1364.53886934 0 33698.16186385 0 10935.98673813 0 -19593.59761676 0 723
0.02750000 0.02749970 60123.82588874 0 2782.83677029 0 30132.34204499 0 4238.94456164 0 -3408.72410528 0 826
0.02850000 0.02848090 54307.15856122 0 4468.05541700 0 22547.62701195 0 581.31957829 0 -12320.43430599 0 831
0.02950000 0.02946900 51566.30197137 0 2273.95047192 0 23543.61649790 0 3204.09152158 0 1299.00098658 0 996
0.03050000 0.03053250 47386.91713734 0 -1371.06049315 0 19711.82977623 0 5411.94955089 0 -1772.07381001 0 1041
0.03150000 0.03150510 50436.88538613 0 -1998.38968374 0 18915.59274732 0 7583.61700454 0 3974.23096408 0 1036
0.03250000 0.03246190 50565.43235876 0 -1533.79053477 0 10873.13292502 0 4112.41618686 0 -752.03306348 0 1059
0.03350000 0.03345080 57706.94316175 0 -401.23292256 0 13441.86522943 0 -2049.48682808 0 -1791.62759023 0 1302
0.03450000 0.03451200 53841.21737742 0 46.67098037 0 10271.86804726 0 -3689.40902645 0 -691.85001060 0 1339
0.03550000 0.03553350 53162.32521222 0 2024.15453425 0 17876.79124115 0 -4233.66515189 0 -6796.64112508 0 1365
0.03650000 0.03647120 54133.02676913 0 1597.09908695 0 15130.72178873 0 -808.17892067 0 -7071.71390060 0 1308
0.03750000 0.03744890 50651.16731117 0 801.46209180 0 18625.44703515 0 622.06309028 0 -11611.59590903 0 1579
0.03850000 0.03847530 50510.53093387 0 1515.90043410 0 17579.54716293 0 -430.22198402 0 -10441.41917501 0 1662
0.03950000 0.03950240 47121.39388240 0 1344.65235321 0 18209.52714959 0 -2479.80308727 0 -14955.25905301 0 1683
0.04050000 0.04050350 45618.09304804 0 2369.04639455 0 16037.20531531 0 2046.84712320 0 -13618.10434894 0 1822
0.04150000 0.04152450 41381.69946170 0 800.71676336 0 12750.88365955 0 2259.43209511 0 -7165.14614369 0 1887
0.04250000 0.04250150 41618.38560457 0 354.79740830 0 15232.87171263 0 3443.00699505 0 -9918.28068855 0 1920
0.04350000 0.04349210 41847.08608564 0 -571.73345677 0 8652.18728332 0 6382.93947891 0 -5526.03360269 0 2005
0.04450000 0.04448520 41265.79645359 0 -88.32519055 0 7492.99083428 0 702.64174523 0 -5634.52769124 0 2151
0.04550000 0.04548030 40957.79391434 0 854.00220086 0 7637.29839777 0 -1634.77588299 0 -3084.83897200 0 2274
0.04650000 0.04648670 39459.48411860 0 1203.60560162 0 7780.31938242 0 343.01744802 0 -2366.80597277 0 2311
0.04750000 0.04749250 39079.83244706 0 -420.36523730 0 7489.46383365 0 589.05901552 0 -427.75086534 0 2568
0.04850000 0.04851840 39385.61674692 0 -1406.89615049 0 4059.83282212 0 4896.82999982 0 -1349.63230064 0 2493
0.04950000 0.04949480 40730.31346493 0 -144.71904690 0 6287.67718833 0 2386.41520897 0 232.82862458 0 2644
0.05050000 0.05050630 38974.46607605 0 1270.27478648 0 2303.54178537 0 -1535.97550057 0 3504.98460359 0 2829
0.05150000 0.05149060 39320.73324478 0 1433.25992563 0 6341.97968858 0 -1038.21589097 0 3489.57893103 0 2784
0.05250000 0.05249300 36664.83522356 0 1285.11480800 0 8375.26227792 0 -2825.18296024 0 605.76235812 0 3055
0.05350000 0.05348950 35174.51108962 0 1269.69804424 0 9286.35974243 0 -596.60990240 0 503.60245215 0 3009
0.05450000 0.05448610 34838.66964603 0 667.80873209 0 11050.63644098 0 -578.82073162 0 2858.05726800 0 3336
0.05550000 0.05550870 33174.76827986 0 -92.14011865 0 9044.39418981 0 881.16897866 0 -516.41611199 0 3349
0.05650000 0.05647670 35153.10507951 0 59.85098244 0 12067.77683951 0 1537.15116745 0 1457.23909344 0 3324
0.05750000 0.05747970 33112.43575301 0 589.24867499 0 9411.81227111 0 -1975.00944057 0 -659.47147934 0 3639
0.05850000 0.05849280 33167.22626593 0 1374.21039308 0 11877.00825200 0 -837.97320303 0 401.40261787 0 3846
0.05950000 0.05951020 32133.41579839 0 383.00897685 0 13445.52532442 0 -1629.91793872 0 -566.05143657 0 3787
0.06050000 0.06049470 31491.45731903 0 214.78879274 0 12521.62861863 0 961.49697256 0 -2027.89226762 0 3930
0.06150000 0.06148310 31866.89433572 0 -110.86472098 0 13533.92216410 0 1125.68994306 0 -1057.81403598 0 4083
0.06250000 0.06249100 31878.20735661 0 -586.10875713 0 11346.40539000 0 1374.87586490 0 -201.56919510 0 4303
0.06350000 0.06350600 31622.77709089 0 313.99954944 0 10507.34524967 0 2885.64107481 0 -187.43124635 0 4470
0.06450000 0.06451750 31868.89075118 0 360.49606529 0 8158.67338392 0 315.81296014 0 -538.99557073 0 4479
0.06550000 0.06550280 30461.30694648 0 851.91816495 0 9506.38690749 0 92.40852561 0 1648.32932566 0 4636
0.06650000 0.06648880 30304.36650966 0 736.42774937 0 10105.00098918 0 -398.00094777 0 -7.64578316 0 4653
0.06750000 0.06749660 28657.32376285 0 637.36561471 0 10412.84825167 0 -413.31456340 0 -767.03945295 0 5220
0.06850000 0.06852730 28984.07042494 0 298.95544990 0 11092.86062776 0 -1239.58544452 0 -2127.06975073 0 5029
0.06950000 0.06949320 28079.58331382 0 133.80198174 0 10149.92033682 0 -300.77884268 0 -2794.85962779 0 5040
0.07050000 0.07048030 28307.61832307 0 73.74270662 0 10745.00741788 0 437.50113658 0 -902.18568776 0 5475
0.07150000 0.07148790 28284.77045736 0 163.00510331 0 10570.68707544 0 1313.41954261 0 -2631.97430940 0 5509
0.07250000 0.07249820 28329.13524515 0 98.54783586 0 10081.92020833 0 970.20578040 0 -2025.67402823 0 5916
0.07350000 0.07351270 27254.73099678 0 515.23379039 0 10258.93571162 0 -35.59974758 0 -306.09707162 0 5721
0.07450000 0.07449140 26578.27889490 0 233.87119709 0 9143.02820427 0 907.04141378 0 -1021.93512297 0 6028
0.07550000 0.07549160 27490.08619602 0 349.94833699 0 10245.71500486 0 -145.58416026 0 950.84165965 0 6183
0.07650000 0.07648840 26475.46349919 0 158.38340154 0 9368.66751498 0 799.11630364 0 -1435.25634108 0 6330
0.07750000 0.07749960 25888.40644472 0 551.95119789 0 9201.86700408 0 550.90862538 0 1033.21265203 0 6583
0.07850000 0.07848650 24958.52049259 0 533.30356846 0 8194.57558844 0 623.79553524 0 -471.48456403 0 6549
0.07950000 0.07947320 25118.45555258 0 222.95080457 0 8507.04788006 0 879.95449260 0 624.58855582 0 6828
0.08050000 0.08048110 24013.77233654 0 431.43536097 0 8265.34851616 0 6.89693882 0 -351.18722369 0 7147
0.08150000 0.08149960 22883.91210342 0 575.46342630 0 7847.02184087 0 649.01802622 0 2272.65280187 0 7386
0.08250000 0.08250610 23001.25696713 0 211.99492023 0 7220.54667244 0 561.64157666 0 -156.54780845 0 7227
0.08350000 0.08350160 22316.93011543 0 331.05670123 0 7306.95818787 0 77.00096755 0 1270.88480231 0 7798
0.08450000 0.08449610 21916.98155347 0 398.66420135 0 7881.42673380 0 149.43280560 0 2386.92540403 0 7371
0.08550000 0.08548940 21716.67453659 0 329.00261155 0 7199.80613415 0 24.97327178 0 285.68926923 0 8256
0.08650000 0.08650700 21419.76319429 0 286.95921128 0 8102.49647137 0 -563.32411124 0 1533.41343408 0 8037
0.08750000 0.08749060 20552.65341687 0 411.31149323 0 7761.37561803 0 316.82780466 0 235.60586029 0 8155
0.08850000 0.08849210 20283.80280285 0 498.20769396 0 8472.50989276 0 -208.39915418 0 990.56034504 0 8718
0.08950000 0.08949900 19765.62208143 0 270.13719287 0 8362.85122854 0 -1.25143084 0 -581.46154561 0 8571
0.09050000 0.09049190 19312.10303821 0 471.21504794 0 9225.38034161 0 376.92656445 0 1230.56830141 0 8932
0.09150000 0.09150830 18942.65526787 0 361.03509746 0 8706.11268289 0 208.30044253 0 522.50185175 0 9285
0.09250000 0.09250820 18064.23246957 0 -36.29161645 0 7466.84888307 0 1295.57380672 0 761.55707430 0 9204
0.09350000 0.09350330 18687.44682609 0 -142.03386812 0 6911.57919906 0 785.35989207 0 1633.72221928 0 9349
0.09450000 0.09448040 18320.32820710 0 93.94299271 0 6368.12163979 0 510.33591782 0 592.59377999 0 9564
0.09550000 0.09549270 18460.18820062 0 58.95525738 0 6263.27655504 0 238.38864161 0 1301.24140836 0 10155
0.09650000 0.09649430 17950.99134873 0 104.20589907 0 5547.50615999 0 139.38861765 0 488.01710220 0 9913
0.09750000 0.09749140 18075.98913834 0 99.65007901 0 5639.84037458 0 352.38174560 0 1180.81319190 0 10476
0.09850000 0.09850240 17982.49034806 0 27.54232573 0 5057.31961966 0 703.39594662 0 1127.55326415 0 10575
0.09950000 0.09950330 17746.80241291 0 256.97526945 0 4663.89268152 0 221.19395898 0 821.32198905 0 10882
0.10050000 0.10051200 17201.78099488 0 393.82400300 0 4844.47955023 0 -251.97092139 0 1713.52338132 0 10875
0.10150000 0.10150300 16855.51382615 0 298.29219632 0 4722.33219824 0 569.38323213 0 319.15473778 0 11118
0.10250000 0.10250800 16510.02304122 0 241.10598486 0 5100.13163988 0 -314.58960112 0 1253.28307276 0 11575
0.10350000 0.10349800 15943.70652504 0 379.97331625 0 4804.25177890 0 -273.94923726 0 -463.48004719 0 11364
0.10450000 0.10450100 15581.46803271 0 341.76857924 0 5234.87859161 0 -93.40418236 0 1184.60638125 0 12093
0.10550000 0.10551000 15610.08332084 0 142.44978800 0 5026.45281856 0 -239.50663426 0 -1126.18904693 0 12067
0.10650000 0.10649700 15556.62375155 0 -103.83534218 0 4528.28061643 0 82.94939830 0 -366.21801379 0 12054
0.10750000 0.10749900 15350.10566437 0 -181.50743806 0 5225.00742632 0 244.65184052 0 -685.13650908 0 12807
0.10850000 0.10850100 15708.68406171 0 91.27578167 0 4515.17082164 0 -70.77647691 0 -1057.85396429 0 12736
0.10950000 0.10950300 15462.34857749 0 211.74425918 0 4563.51734913 0 226.04192116 0 -676.48537546 0 12933
0.11050000 0.11050200 15615.40709537 0 -190.73420480 0 4019.15031172 0 803.74355101 0 -727.68566794 0 13428
0.11150000 0.11150900 15544.42343490 0 -133.45926376 0 3861.73295343 0 950.13736865 0 568.81425373 0 13453
0.11250000 0.11250000 15614.18706371 0 390.60533764 0 3826.70695347 0 380.37038110 0 357.89850696 0 13668
0.11350000 0.11349100 15023.24809031 0 394.32421598 0 3570.68885431 0 147.98651352 0 1376.40645008 0 13791
0.11450000 0.11448600 14284.46346159 0 298.39756269 0 3871.60411872 0 -13.83649002 0 1567.07521681 0 14205
0.11550000 0.11549300 14265.49751480 0 113.31321362 0 3555.82665040 0 103.49894618 0 1850.79912595 0 14776
0.11650000 0.11649800 14019.16203058 0 189.75485211 0 3586.18325645 0 158.86919597 0 1264.47409048 0 14553
0.11750000 0.11747300 13701.39923802 0 148.73184196 0 3385.07767339 0 -362.96163837 0 684.37010737 0 14568
0.11850000 0.11849100 13811.75664765 0 -53.51613439 0 3283.42685335 0 381.49059199 0 995.79760824 0 16015
0.11950000 0.11950300 13741.21663506 0 -78.19693132 0 3262.86377421 0 67.82854767 0 -376.83339839 0 15270
0.12050000 0.12050700 13941.63456392 0 236.16596574 0 2783.92370759 0 -234.71745542 0 123.99514540 0 15999
0.12150000 0.12150000 13426.55937764 0 235.79773800 0 3162.61044500 0 -148.15731795 0 -915.38864861 0 15670
0.12250000 0.12250700 13202.18446338 0 313.96183937 0 3589.94317222 0 -664.91614793 0 -202.71935222 0 16887
0.12350000 0.12352200 12930.89378602 0 101.61499546 0 3603.61861805 0 -160.67484283 0 -1605.14020474 0 16407
0.12450000 0.12449800 12791.14470448 0 231.25811109 0 4170.36769091 0 -128.22976440 0 -692.93140230 0 16306
0.12550000 0.12549900 12841.27691468 0 -6.46173134 0 3623.26112785 0 68.10416392 0 -1202.35229637 0 17523
0.12650000 0.12650100 12851.59172784 0 -81.46362155 0 3664.52038050 0 741.96558401 0 -974.65445950 0 17154
0.12750000 0.12750600 12828.63295016 0 35.98439029 0 3344.75008128 0 80.37790428 0 -552.20962278 0 18007
0.12850000 0.12850300 12484.58402083 0 343.64188241 0 3265.08201360 0 -187.74179986 0 -1098.86588324 0 17496
0.12950000 0.12949900 12364.68818182 0 284.73098982 0 3814.12953613 0 -154.32180522 0 -397.19018127 0 18405
0.13050000 0.13049000 11758.66518057 0 290.08471058 0 4125.19324574 0 -87.21296532 0 -1092.99309446 0 18100
0.13150000 0.13148800 11758.22153269 0 118.36636295 0 4193.99194041 0 -136.91971721 0 276.11645715 0 19059
0.13250000 0.13249300 11445.44977875 0 -144.36745596 0 3926.97137388 0 922.14096931 0 -502.34692866 0 18957
0.13350000 0.13349100 11701.10186841 0 -46.80995307 0 3581.91314563 0 507.63299312 0 751.84007665 0 19468
0.13450000 0.13450700 11846.28563646 0 71.24940555 0 3116.20487697 0 508.68332947 0 315.81739662 0 19953
0.13550000 0.13551000 11511.77513650 0 180.14654819 0 2987.30298603 0 141.83644481 0 1262.57749580 0 19956
0.13650000 0.13649900 11368.47687193 0 174.75733559 0 2685.38951391 0 -77.79321175 0 1107.97286506 0 19723
0.13750000 0.13749600 10971.91112504 0 240.40169385 0 3152.59509415 0 19.46105781 0 959.10238314 0 20946
0.13850000 0.13851100 10928.05653231 0 108.89048793 0 2776.59242641 0 -27.40235483 0 849.25516856 0 20955
0.13950000 0.13949800 10624.55701902 0 123.03908423 0 2974.91411904 0 118.37190855 0 1048.12365721 0 20506
0.14050000 0.14048300 10573.71497221 0 113.53281932 0 2991.71728242 0 -34.49162609 0 1195.19847434 0 21447
0.14150000 0.14148400 10729.72374848 0 -181.64164154 0 2715.02519215 0 457.29226841 0 802.03217932 0 21771
0.14250000 0.14249400 10794.69598021 0 -142.48084336 0 2606.48673882 0 463.05192699 0 1180.48045599 0 22470
0.14350000 0.14350900 10942.71909468 0 83.80841150 0 2494.15509613 0 -253.04787661 0 982.14767216 0 22519
0.14450000 0.14449900 10718.12235648 0 345.27228836 0 3023.54901766 0 -635.16733947 0 1314.68393906 0 22218
0.14550000 0.14550500 10447.40842136 0 246.87340727 0 3492.85083413 0 -252.72512278 0 1428.03597187 0 23559
0.14650000 0.14650700 10412.55988055 0 13.19918984 0 3674.30281620 0 203.44693474 0 1397.45754189 0 23044
0.14750000 0.14750500 10393.15028589 0 -152.12131174 0 3500.81431354 0 654.23088879 0 1681.99110839 0 23649
0.14850000 0.14849900 10597.63868403 0 77.17654120 0 3411.13089502 0 169.84282623 0 1504.35449807 0 23640
0.14950000 0.14949500 10366.53141322 0 127.99463102 0 3172.51488387 0 -35.20734103 0 2247.98597986 0 24457
0.15050000 0.15050000 10188.49551980 0 190.94382842 0 3134.47207834 0 -282.00588273 0 1220.86350408 0 24591
0.15150000 0.15149900 9882.81104071 0 313.55701068 0 3444.28248269 0 -412.05127606 0 1158.66407159 0 25020
0.15250000 0.15250500 9655.15313215 0 131.77340182 0 3593.81399995 0 -121.23343736 0 565.68209971 0 25297
0.15350000 0.15350100 9520.84982831 0 42.24747830 0 3437.19520785 0 314.62509295 0 670.57931309 0 25452
0.15450000 0.15450400 9392.54686201 0 -5.89518191 0 2763.22753409 0 235.54929519 0 -184.57082665 0 26061
0.15550000 0.15549900 9472.24820328 0 75.32797140 0 2591.87963244 0 155.83686272 0 -327.77814341 0 26128
0.15650000 0.15649500 9174.20555889 0 70.25086509 0 2460.41567501 0 122.24384540 0 -151.11090370 0 26331
0.15750000 0.15749700 9153.52047658 0 113.23113876 0 2178.65490774 0 75.23103434 0 -82.29956507 0 27345
0.15850000 0.15849900 9099.06269956 0 -79.58699103 0 1962.14365211 0 586.02224579 0 99.43036240 0 26980
0.15950000 0.15949700 9078.56616760 0 -102.51149691 0 1759.87349337 0 583.94375549 0 -134.32659536 0 27777
0.16050000 0.16050000 9175.70287048 0 37.50898622 0 1165.89553200 0 298.05706295 0 586.51691318 0 28224
0.16150000 0.16150500 9079.64201371 0 204.10242448 0 1318.53258440 0 -94.85968014 0 869.43671053 0 28075
0.16250000 0.16249700 8831.59848516 0 204.05251409 0 1577.30130040 0 -330.78163954 0 915.54836184 0 28590
0.16350000 0.16349900 8585.52918966 0 233.21127087 0 1979.60119611 0 -400.58519666 0 699.53399184 0 29163
0.16450000 0.16449100 8378.70054897 0 155.96552061 0 2351.13411148 0 -406.14410457 0 331.84195797 0 28996
0.16550000 0.16550500 8395.33734440 0 41.96753648 0 2682.22852278 0 -77.70470400 0 339.81320122 0 30777
0.16650000 0.16650700 8396.55737606 0 -74.95220165 0 2304.47344592 0 116.44647676 0 -101.98699421 0 29211
0.16750000 0.16749900 8466.42082564 0 -63.75674745 0 2314.33352000 0 238.13132584 0 -168.63055840 0 30922
0.16850000 0.16850800 8594.36887363 0 24.20332089 0 1933.66145835 0 219.45929578 0 -150.02174816 0 30867
0.16950000 0.16949900 8508.17918215 0 44.03815204 0 1631.43743270 0 188.33628802 0 -31.08263580 0 30852
0.17050000 0.17049200 8411.03138808 0 58.46081182 0 1777.50849651 0 57.59436751 0 -175.53704674 0 31257
0.17150000 0.17149500 8265.60361369 0 144.17779649 0 1390.03753113 0 130.55447928 0 -192.27588117 0 32608
0.17250000 0.17250900 8008.70930998 0 238.95096529 0 1547.43270702 0 -175.42502565 0 231.30247588 0 32361
0.17350000 0.17350400 7851.22540451 0 141.76546115 0 1609.07757966 0 -25.02761865 0 -32.19896477 0 32508
0.17450000 0.17449800 7807.28208220 0 0.72965990 0 1672.23085508 0 136.54705299 0 206.15540504 0 32791
0.17550000 0.17549800 7691.68962761 0 101.72901297 0 1832.94229886 0 -154.65121377 0 115.45492375 0 33633
0.17650000 0.17650100 7651.27330593 0 142.82577958 0 2000.47482876 0 -172.12761280 0 46.72776730 0 33984
0.17750000 0.17750300 7675.23029134 0 -36.34818155 0 2090.57971277 0 -95.27615458 0 67.48571878 0 34069
0.17850000 0.17849800 7636.18927808 0 1.23991818 0 2386.34866179 0 -15.07315848 0 212.60049958 0 34536
