### header ###
fiducial parameters:
Omega_m = 0.31
Omega_nu = 0
Omega_de = 0.69
Omega_k = 0
H_0 = 100
w_de = -1
zeff = 0
beta = 0
fgrowth = 0
b_1 = 2
gamma = 0.55
Lx = 3500 Ly = 3500 Lz = 3500
nx = 700 ny = 700 nz = 700
xoffset = 1379.75464 yoffset = 22.6059522 zoffset = 368.141391
bins = 400 dk = 0.001
kx_ny = 0.628318531 ky_ny = 0.628318531 kz_ny = 0.628318531
############################
A(data) = 3.34366114 (not used)
A(ran) = 3.33570623 (used)
Ngal = 187646
weighted Ngal = 0
Nran = 9399747
weighted Nran = 0
SN(data) = 6697.5712
SN(ran) = 132.678993
SN(data+ran) = 6830.25019
############################
13 columns: k_central k_mean P_0(k) sigma^{lin}_{P_0(k)} P^img_1(k) sigma^{lin}_{P_1(k)} P_2(k) sigma^{lin}_{P_2(k)} P^img_3(k) sigma^{lin}_{P_3(k)} P_4(k) sigma^{lin}_{P_4(k)} N_modes
### header ###
0.00050000 0 0 0 0 0 0 0 0 0 0 0 0
0.00150000 0.00179520 38073.08450007 0 -23382.57231821 0 -34685.27839224 0 67537.95831272 0 100314.55262214 0 3
0.00250000 0.00253879 54511.68023294 0 -17041.18046307 0 -298.79462755 0 -36932.24398198 0 -43806.90058639 0 6
0.00350000 0.00331552 80213.97639287 0 -21507.27273821 0 -53797.07441357 0 42205.55357101 0 46407.67535878 0 7
0.00450000 0.00420575 90011.82886496 0 -15240.85737443 0 -28446.48010886 0 -19163.59191108 0 4990.94989712 0 24
0.00550000 0.00557378 104528.09834277 0 5737.68691406 0 -31873.43814192 0 -35708.77404662 0 12070.21690284 0 45
0.00650000 0.00659388 81576.97358584 0 6485.75487462 0 -19358.46424146 0 13019.40153767 0 -42922.15580584 0 40
0.00750000 0.00754703 67583.87586809 0 11815.56302091 0 -1148.16070808 0 -27853.10107213 0 13595.36739519 0 57
0.00850000 0.00846663 68269.53366343 0 3702.76282757 0 1250.27735838 0 13212.61018851 0 -9610.36687888 0 75
0.00950000 0.00948925 61924.37080132 0 66.89222883 0 10022.89285817 0 7319.79070274 0 7115.25793981 0 112
0.01050000 0.01054430 60628.91899776 0 -4793.92587454 0 -9290.67421804 0 -1229.71427924 0 -14807.96795754 0 105
0.01150000 0.01145670 70243.76672021 0 -2801.66962271 0 10055.31242685 0 -6041.15315376 0 -6422.75687596 0 144
0.01250000 0.01249090 65027.02223561 0 5510.43937979 0 4492.96624535 0 -22088.22963435 0 -16163.64496052 0 169
0.01350000 0.01339930 66224.98241799 0 4042.89656438 0 29854.50756144 0 -10097.39242807 0 -2603.07065016 0 180
0.01450000 0.01448870 58720.12400297 0 2360.46180811 0 28132.59923523 0 1042.11666494 0 -5084.41541381 0 267
0.01550000 0.01550050 66629.70019463 0 -4354.04900357 0 33313.18641777 0 19308.11020731 0 -4103.12176381 0 238
0.01650000 0.01653350 67167.84507056 0 -2697.72292491 0 29242.38440187 0 5434.16521837 0 7550.31014011 0 315
0.01750000 0.01747870 75637.52670810 0 5275.67201398 0 31945.08727421 0 3989.44808629 0 22910.30915216 0 297
0.01850000 0.01844180 63319.19972952 0 -464.65904143 0 28096.88558105 0 6077.27718222 0 25393.40632493 0 388
0.01950000 0.01947590 69864.33687261 0 750.89732491 0 32691.74665276 0 6751.99905737 0 19803.22123908 0 399
0.02050000 0.02045430 71161.89600358 0 -920.67249483 0 39008.84878659 0 7895.31291238 0 22234.30069816 0 462
0.02150000 0.02154770 69137.75256053 0 2225.77031237 0 29180.38461093 0 -758.36280957 0 19620.77104928 0 571
0.02250000 0.02255340 66848.75133436 0 2274.84885887 0 31227.93047954 0 3132.67530443 0 21448.82213029 0 510
0.02350000 0.02348930 63945.74144513 0 1068.45714857 0 30967.73099913 0 1475.71702755 0 20482.11340428 0 555
0.02450000 0.02439640 68716.95254832 0 -1705.67081388 0 28683.94263552 0 11700.43639659 0 11353.17102014 0 592
0.02550000 0.02547300 65373.84396418 0 2513.07667812 0 31010.21028344 0 3450.41591461 0 11154.41677083 0 837
0.02650000 0.02652900 61150.31616630 0 4632.90387724 0 25368.45113179 0 -6531.15114373 0 8320.84886569 0 723
0.02750000 0.02749970 55507.00424707 0 1774.13677264 0 30215.08237423 0 3703.93849445 0 12303.68659860 0 826
0.02850000 0.02848090 58241.76067860 0 -158.05399299 0 26287.46771092 0 6695.38958814 0 9260.96090142 0 831
0.02950000 0.02946900 57378.86555603 0 -1624.02851314 0 24714.40324775 0 7473.32614209 0 7953.43078439 0 996
0.03050000 0.03053250 58767.59432591 0 -86.02776001 0 20664.00903423 0 -669.78851075 0 3449.32897731 0 1041
0.03150000 0.03150510 59033.11758085 0 1577.97786341 0 22157.66052725 0 -7780.19737925 0 -4587.91798242 0 1036
0.03250000 0.03246190 53730.30540794 0 2246.10047638 0 19635.18960532 0 -2901.40166567 0 -8635.02920164 0 1059
0.03350000 0.03345080 55115.15225889 0 420.89983299 0 25379.32050480 0 -613.44855761 0 -15851.64959037 0 1302
0.03450000 0.03451200 54060.37942912 0 -2147.30009396 0 19063.32749067 0 2416.70526784 0 -13620.76623620 0 1339
0.03550000 0.03553350 56644.51740608 0 -1312.16623735 0 13022.61798479 0 8288.47366180 0 -20370.31413904 0 1365
0.03650000 0.03647120 55639.98769848 0 522.99208266 0 10291.35528030 0 -1886.41295935 0 -19670.68143555 0 1308
0.03750000 0.03744890 54013.79640194 0 3014.85351925 0 6017.97255214 0 -1439.26026318 0 -17878.34400872 0 1579
0.03850000 0.03847530 51723.46423213 0 2157.93655184 0 9746.84405733 0 -1988.31887691 0 -17313.13661224 0 1662
0.03950000 0.03950240 46814.50046284 0 2051.09505163 0 12421.91875807 0 -514.90327272 0 -15973.54184483 0 1683
0.04050000 0.04050350 44117.56501291 0 3046.56325133 0 16813.58910169 0 -1882.26485169 0 -16649.88303473 0 1822
0.04150000 0.04152450 40361.30934246 0 2629.73388762 0 16009.81005885 0 -3648.82633681 0 -10268.24122586 0 1887
0.04250000 0.04250150 38367.44486708 0 1215.38445278 0 20550.32426551 0 305.67006053 0 -10894.23947282 0 1920
0.04350000 0.04349210 39059.53555665 0 -401.93721357 0 19306.77926368 0 3136.42412900 0 -5653.99274189 0 2005
0.04450000 0.04448520 39530.46777907 0 -319.10482740 0 21830.69204122 0 2298.20691964 0 -8292.89904938 0 2151
0.04550000 0.04548030 38914.12996466 0 530.31449088 0 17206.99385744 0 1106.73952396 0 -76.00885998 0 2274
0.04650000 0.04648670 37934.88818610 0 760.84723769 0 18416.82162055 0 3131.81019107 0 -3568.51497971 0 2311
0.04750000 0.04749250 38084.06478505 0 532.67137023 0 17354.72860079 0 396.33504999 0 1757.03414695 0 2568
0.04850000 0.04851840 36836.97060019 0 392.86128710 0 15104.76838788 0 2613.84020239 0 -3791.29276161 0 2493
0.04950000 0.04949480 36258.34285540 0 199.95542594 0 13938.75085271 0 583.91270013 0 345.89894098 0 2644
0.05050000 0.05050630 33970.45074892 0 536.01536611 0 10894.74966788 0 103.50593363 0 -4646.57932308 0 2829
0.05150000 0.05149060 35791.29255191 0 734.16292695 0 11994.13129178 0 1609.47686275 0 -3211.64462671 0 2784
0.05250000 0.05249300 34591.55777803 0 -1449.78580909 0 8478.63223348 0 2346.94163903 0 -1188.23320265 0 3055
0.05350000 0.05348950 36153.64195621 0 -379.92118762 0 6384.50333768 0 3818.47728533 0 -4150.62536034 0 3009
0.05450000 0.05448610 37058.90545113 0 -573.77423700 0 4140.95383660 0 1206.14548573 0 -28.76779208 0 3336
0.05550000 0.05550870 36493.80896661 0 596.57884705 0 5603.79398450 0 -1628.87536621 0 -1374.25475787 0 3349
0.05650000 0.05647670 35932.03984119 0 1281.43253061 0 7064.33825463 0 -836.61342228 0 3574.09385178 0 3324
0.05750000 0.05747970 35443.80535153 0 470.97991457 0 11002.25663989 0 -1205.81274982 0 2395.80945279 0 3639
0.05850000 0.05849280 34608.63822133 0 772.37764604 0 11253.23933564 0 -424.36250468 0 1928.30441022 0 3846
0.05950000 0.05951020 34309.84137554 0 476.93588733 0 14006.73989000 0 667.12773260 0 5626.64185021 0 3787
0.06050000 0.06049470 33589.24630981 0 10.50025797 0 12168.15217190 0 1403.59097380 0 6451.03942818 0 3930
0.06150000 0.06148310 33601.22480252 0 -377.36355761 0 10609.27334963 0 3186.71161597 0 5945.10338819 0 4083
0.06250000 0.06249100 34277.45508045 0 -396.37719654 0 9324.05872086 0 1420.62705231 0 5538.08973378 0 4303
0.06350000 0.06350600 33811.29207272 0 843.76724431 0 9690.81133034 0 632.76720445 0 4870.28876552 0 4470
0.06450000 0.06451750 32789.12736197 0 1415.63601368 0 9005.31990296 0 -2007.65083319 0 4945.47598964 0 4479
0.06550000 0.06550280 30476.50188630 0 529.52036118 0 8574.18289519 0 -885.04867936 0 2364.98701647 0 4636
0.06650000 0.06648880 31423.91192961 0 -590.69607619 0 8078.75021871 0 2160.99772219 0 841.81186629 0 4653
0.06750000 0.06749660 30576.87721868 0 188.79990005 0 6770.22189395 0 137.80257648 0 -1571.40078362 0 5220
0.06850000 0.06852730 30733.04127171 0 410.42197923 0 5439.74409044 0 225.95097335 0 -784.67556521 0 5029
0.06950000 0.06949320 30844.84053695 0 127.81051715 0 6133.66482750 0 -611.59189124 0 -2606.10963812 0 5040
0.07050000 0.07048030 29765.00160207 0 348.59853832 0 6180.24785469 0 412.76998563 0 -1033.42671213 0 5475
0.07150000 0.07148790 29293.18208389 0 730.22222468 0 6693.78136459 0 -525.65064257 0 -2885.98490191 0 5509
0.07250000 0.07249820 28434.94526404 0 832.81468733 0 7312.72561028 0 -1161.04867893 0 -95.74375945 0 5916
0.07350000 0.07351270 27872.95431467 0 -261.50047781 0 8054.19430866 0 2053.11364948 0 -1266.30413797 0 5721
0.07450000 0.07449140 28304.84552383 0 -336.67993808 0 7375.52396740 0 611.80927870 0 588.72738873 0 6028
0.07550000 0.07549160 28448.25470037 0 377.24488180 0 6825.37841638 0 -364.02528416 0 -332.00278033 0 6183
0.07650000 0.07648840 28202.36286403 0 826.78994915 0 8570.91099209 0 -1435.58907699 0 -1243.92210253 0 6330
0.07750000 0.07749960 26609.22333439 0 417.01680494 0 8767.94610587 0 -694.14477924 0 -657.65585040 0 6583
0.07850000 0.07848650 27262.38392267 0 -72.90620855 0 8738.03314770 0 492.23286616 0 -2196.36754926 0 6549
0.07950000 0.07947320 27085.47933135 0 -70.01196070 0 8077.48582225 0 545.99411601 0 -2317.46123754 0 6828
0.08050000 0.08048110 26943.06836253 0 523.02646537 0 7440.20782800 0 290.90102268 0 -4055.50725531 0 7147
0.08150000 0.08149960 25952.18082718 0 571.17889692 0 7582.68534400 0 -1188.59921215 0 -3369.69418322 0 7386
0.08250000 0.08250610 24667.37657269 0 819.08267639 0 8140.47272972 0 -361.28132203 0 -5468.55902011 0 7227
0.08350000 0.08350160 24116.47682028 0 895.08066700 0 9047.41099538 0 -62.49113097 0 -3852.39416560 0 7798
0.08450000 0.08449610 22582.78610628 0 489.78282075 0 7452.81851893 0 699.81127176 0 -4400.97585786 0 7371
0.08550000 0.08548940 22235.18799392 0 773.68973464 0 8321.50324631 0 925.41398153 0 -3655.11504548 0 8256
0.08650000 0.08650700 20915.55738102 0 473.42219614 0 8468.45051468 0 455.21599635 0 -987.08214568 0 8037
0.08750000 0.08749060 20657.57614000 0 471.19952027 0 8171.43935160 0 265.81273518 0 -1679.88378097 0 8155
0.08850000 0.08849210 20540.89674811 0 139.72135356 0 8317.27750028 0 1011.41512267 0 263.18855798 0 8718
0.08950000 0.08949900 19612.67447551 0 175.54370146 0 7359.21990789 0 144.09793987 0 161.94256664 0 8571
0.09050000 0.09049190 20359.44476604 0 65.52878799 0 7715.66879541 0 679.12951682 0 1786.07090056 0 8932
0.09150000 0.09150830 19601.58327856 0 -30.67503431 0 7175.36113608 0 361.92461146 0 494.38455837 0 9285
0.09250000 0.09250820 19798.23020046 0 347.25983085 0 7558.28471071 0 29.53907392 0 1129.88241551 0 9204
0.09350000 0.09350330 19196.31094208 0 197.75936895 0 7891.50863183 0 -742.28390136 0 1289.96166106 0 9349
0.09450000 0.09448040 19136.97303840 0 450.10960927 0 7879.01994406 0 84.57403683 0 636.26980445 0 9564
0.09550000 0.09549270 18685.67223458 0 348.41442445 0 8628.57412502 0 -77.06418737 0 813.70233675 0 10155
0.09650000 0.09649430 18445.21508474 0 192.91695236 0 8422.96551599 0 -189.60512095 0 -591.97267296 0 9913
0.09750000 0.09749140 17896.86630762 0 288.66725561 0 8279.27905953 0 468.70400095 0 -75.28050108 0 10476
0.09850000 0.09850240 17726.61643447 0 108.89913906 0 8495.84577114 0 400.20144124 0 -293.42870646 0 10575
0.09950000 0.09950330 17031.64203369 0 92.21664791 0 6646.36649763 0 1052.94389140 0 -711.09434642 0 10882
0.10050000 0.10051200 17559.80483236 0 -62.55313076 0 7118.81821403 0 1138.17863083 0 100.05734776 0 10875
0.10150000 0.10150300 16984.83718257 0 68.37623098 0 4760.50809813 0 510.97587988 0 -814.52086708 0 11118
0.10250000 0.10250800 16861.83580841 0 411.27932876 0 6206.82236257 0 71.75915696 0 399.24427095 0 11575
0.10350000 0.10349800 16418.63157836 0 374.59297661 0 4788.70192077 0 -372.58879732 0 49.43779037 0 11364
0.10450000 0.10450100 15882.03947001 0 335.00516734 0 5379.36361425 0 324.91217812 0 -400.82033003 0 12093
0.10550000 0.10551000 15550.52359322 0 236.49981077 0 5764.80489060 0 -648.38360976 0 327.35778705 0 12067
0.10650000 0.10649700 15244.85020533 0 62.24645916 0 5465.90822404 0 609.23833925 0 156.18290807 0 12054
0.10750000 0.10749900 15528.45211130 0 -164.97379077 0 5291.34387527 0 835.54755826 0 250.06545375 0 12807
0.10850000 0.10850100 15671.97219981 0 -241.53632330 0 4758.27876754 0 -67.99447198 0 -513.00445981 0 12736
0.10950000 0.10950300 15670.97399208 0 210.01957805 0 5089.45081722 0 -510.78289306 0 -842.15347516 0 12933
0.11050000 0.11050200 15635.59307382 0 205.99791004 0 4521.18225038 0 -529.25528157 0 -1266.83651543 0 13428
0.11150000 0.11150900 15597.10662041 0 -30.04194879 0 5395.59003539 0 127.16168213 0 -821.90649513 0 13453
0.11250000 0.11250000 15318.82848898 0 227.90080577 0 5001.09834233 0 -189.37331493 0 -2819.63736177 0 13668
0.11350000 0.11349100 15398.35237110 0 249.51533039 0 5126.65069179 0 -46.98652493 0 -2021.51482937 0 13791
0.11450000 0.11448600 14864.75488592 0 189.78036186 0 5177.43728261 0 184.59522729 0 -2332.68945095 0 14205
0.11550000 0.11549300 14818.83733055 0 109.04044091 0 5362.85991319 0 129.99548295 0 -1522.64388184 0 14776
0.11650000 0.11649800 14406.68845195 0 123.07235782 0 5156.68565312 0 204.84997115 0 -1696.36529964 0 14553
0.11750000 0.11747300 14525.91881915 0 176.96559291 0 4955.01441901 0 797.96171004 0 -523.63980856 0 14568
0.11850000 0.11849100 14287.67990870 0 -85.30383758 0 4661.90735726 0 404.64790210 0 -434.96236160 0 16015
0.11950000 0.11950300 14351.89793903 0 90.28012492 0 4241.44008095 0 548.78244292 0 -718.28255116 0 15270
0.12050000 0.12050700 14195.84479797 0 208.11965602 0 4914.03244629 0 -71.99440125 0 242.27499702 0 15999
0.12150000 0.12150000 13783.14135953 0 364.09404958 0 3999.00869806 0 -433.11345907 0 -640.05522997 0 15670
0.12250000 0.12250700 13583.61072643 0 270.94685025 0 5294.47159281 0 -608.70263443 0 250.78527244 0 16887
0.12350000 0.12352200 12971.82030276 0 212.26998191 0 4713.03777519 0 146.02004430 0 -1008.42937245 0 16407
0.12450000 0.12449800 13139.96284850 0 -70.49775513 0 5156.06454609 0 529.73220304 0 -232.26851913 0 16306
0.12550000 0.12549900 13243.66553996 0 -152.00818153 0 4161.26181822 0 638.95720147 0 -963.61650030 0 17523
0.12650000 0.12650100 13428.22305718 0 -197.56194564 0 3957.61635105 0 982.72996000 0 -381.08909066 0 17154
0.12750000 0.12750600 13321.08209466 0 -40.64457851 0 2978.36348129 0 191.74794020 0 -389.32763176 0 18007
0.12850000 0.12850300 13531.59301274 0 115.66565649 0 2920.64489238 0 12.74311982 0 -149.16107128 0 17496
0.12950000 0.12949900 13218.26669895 0 243.63145040 0 2986.98134132 0 -51.47047403 0 -284.23964979 0 18405
0.13050000 0.13049000 13085.06142360 0 216.68649654 0 3114.74083897 0 -165.63038963 0 -106.19077968 0 18100
0.13150000 0.13148800 12664.81597124 0 48.92127332 0 2979.31732423 0 141.89411904 0 122.30373787 0 19059
0.13250000 0.13249300 12733.02683247 0 61.72129099 0 3007.62205884 0 210.58079262 0 -649.98074212 0 18957
0.13350000 0.13349100 12602.59435636 0 246.79133241 0 3084.75024242 0 -263.76530022 0 -93.65994537 0 19468
0.13450000 0.13450700 12154.17726374 0 400.53972275 0 3627.89724817 0 -790.07032341 0 -571.77782155 0 19953
0.13550000 0.13551000 11805.69185563 0 362.86847232 0 4691.84249782 0 -438.01244076 0 -8.87574145 0 19956
0.13650000 0.13649900 11625.79264113 0 8.95057375 0 4256.10264332 0 279.01680515 0 -124.09052970 0 19723
0.13750000 0.13749600 11688.23607995 0 -122.51890709 0 4273.89292323 0 600.90995946 0 -377.20717173 0 20946
0.13850000 0.13851100 11910.94731467 0 -21.85054528 0 4005.34177152 0 226.25598126 0 33.51992633 0 20955
0.13950000 0.13949800 11883.10841033 0 116.93559854 0 4068.98305961 0 19.81142872 0 -385.66864588 0 20506
0.14050000 0.14048300 11413.72895548 0 291.18384820 0 4109.26628692 0 -158.54089654 0 -80.34718167 0 21447
0.14150000 0.14148400 11206.98904436 0 227.51594124 0 4035.53200961 0 -422.81195534 0 -621.06820991 0 21771
0.14250000 0.14249400 10930.36350128 0 199.90218820 0 4298.52647165 0 -23.72285024 0 -401.55900375 0 22470
0.14350000 0.14350900 10799.50955968 0 13.98843942 0 3741.34910176 0 595.96439474 0 -737.84187698 0 22519
0.14450000 0.14449900 10883.09281988 0 -146.27070535 0 3208.92728345 0 654.18985136 0 -879.88018158 0 22218
0.14550000 0.14550500 10957.08219472 0 5.79730210 0 2963.76746611 0 298.90110304 0 -722.46615065 0 23559
0.14650000 0.14650700 10717.70089099 0 167.48705600 0 2523.65768001 0 -52.70492425 0 -1307.62993780 0 23044
0.14750000 0.14750500 10676.41945595 0 72.33856109 0 2488.80913920 0 -256.34972594 0 -900.73828656 0 23649
0.14850000 0.14849900 10418.64894768 0 100.80134526 0 2605.41089271 0 166.23042338 0 -1315.59341721 0 23640
0.14950000 0.14949500 10271.99005043 0 206.71661960 0 2601.42915301 0 -114.12065276 0 -1056.43207284 0 24457
0.15050000 0.15050000 10179.66692703 0 112.59006758 0 2631.16465203 0 54.34032124 0 -1468.05301046 0 24591
0.15150000 0.15149900 10005.04712228 0 149.35849458 0 2846.86625028 0 118.58707777 0 -935.36611255 0 25020
0.15250000 0.15250500 9732.27022454 0 251.70695090 0 2714.64809146 0 -183.30975756 0 -1175.53378215 0 25297
0.15350000 0.15350100 9488.09752372 0 139.19895818 0 3094.49940454 0 -199.22007958 0 -881.45291331 0 25452
0.15450000 0.15450400 9364.50831613 0 64.21503571 0 3066.32776429 0 285.86783750 0 -714.66571184 0 26061
0.15550000 0.15549900 9482.65174602 0 -39.54699366 0 2810.26530035 0 218.63854720 0 -499.10608091 0 26128
0.15650000 0.15649500 9438.57532935 0 52.77147143 0 2899.70471254 0 137.59295286 0 -1040.65706342 0 26331
0.15750000 0.15749700 9406.58831735 0 95.79244980 0 2757.01646380 0 -137.56855223 0 -920.74347849 0 27345
0.15850000 0.15849900 9328.50629083 0 14.47634117 0 2561.63393836 0 133.18198383 0 -821.50388468 0 26980
0.15950000 0.15949700 9178.74185844 0 33.35655300 0 2383.77550410 0 112.82520096 0 -1052.10096043 0 27777
0.16050000 0.16050000 9306.00225222 0 -49.69455157 0 2111.58643979 0 398.77178596 0 -904.63684229 0 28224
0.16150000 0.16150500 9207.26841699 0 60.43803950 0 1797.35064785 0 337.01045575 0 -865.52373625 0 28075
0.16250000 0.16249700 9058.01417966 0 184.73275813 0 1707.52304377 0 -26.07795500 0 -817.43230628 0 28590
0.16350000 0.16349900 8817.49048264 0 149.70010345 0 1633.78876646 0 20.49497919 0 -591.28945522 0 29163
0.16450000 0.16449100 8628.91795213 0 195.25719491 0 1958.94938739 0 -182.49122723 0 -397.44971528 0 28996
0.16550000 0.16550500 8498.44111123 0 85.63590802 0 1904.20323925 0 48.93879741 0 -444.87234607 0 30777
0.16650000 0.16650700 8388.91554136 0 11.54538146 0 2016.88980025 0 349.61005548 0 -339.16214796 0 29211
0.16750000 0.16749900 8520.24640443 0 -48.67660152 0 1829.27111267 0 73.41107983 0 -71.21369189 0 30922
0.16850000 0.16850800 8417.65283266 0 86.21187388 0 1755.02664030 0 200.07077439 0 114.65635757 0 30867
0.16950000 0.16949900 8569.73532521 0 -4.03619748 0 1596.79962464 0 155.54627336 0 373.26536033 0 30852
0.17050000 0.17049200 8261.77715075 0 154.33844201 0 1751.34436291 0 -221.32594422 0 274.45721408 0 31257
0.17150000 0.17149500 8319.20736854 0 161.56435683 0 1987.35394277 0 -33.00474023 0 185.23518935 0 32608
0.17250000 0.17250900 8123.20373608 0 50.44209825 0 2039.32729167 0 -61.33498460 0 565.36489148 0 32361
0.17350000 0.17350400 8036.23766080 0 54.44857132 0 2044.79525177 0 46.46290952 0 338.44232928 0 32508
0.17450000 0.17449800 8142.58005714 0 -34.43406278 0 1758.10999305 0 128.37062260 0 154.89965658 0 32791
0.17550000 0.17549800 8270.41719317 0 -132.36567174 0 1734.82957066 0 272.22011966 0 184.40556782 0 33633
0.17650000 0.17650100 8156.39968854 0 37.23015353 0 1590.55528075 0 119.16825649 0 319.95441308 0 33984
0.17750000 0.17750300 8245.04053455 0 118.51165763 0 1658.14503496 0 -318.72772670 0 -42.52986017 0 34069
