### header ###
fiducial parameters:
Omega_m = 0.31
Omega_nu = 0
Omega_de = 0.69
Omega_k = 0
H_0 = 100
w_de = -1
zeff = 0
beta = 0
fgrowth = 0
b_1 = 2
gamma = 0.55
Lx = 3500 Ly = 3500 Lz = 3500
nx = 700 ny = 700 nz = 700
xoffset = 1379.75464 yoffset = 22.6059522 zoffset = 368.141391
bins = 400 dk = 0.001
kx_ny = 0.628318531 ky_ny = 0.628318531 kz_ny = 0.628318531
############################
A(data) = 3.36739941 (not used)
A(ran) = 3.3596643 (used)
Ngal = 188911
weighted Ngal = 0
Nran = 9399747
weighted Nran = 0
SN(data) = 6682.00603
SN(ran) = 133.631934
SN(data+ran) = 6815.63797
############################
13 columns: k_central k_mean P_0(k) sigma^{lin}_{P_0(k)} P^img_1(k) sigma^{lin}_{P_1(k)} P_2(k) sigma^{lin}_{P_2(k)} P^img_3(k) sigma^{lin}_{P_3(k)} P_4(k) sigma^{lin}_{P_4(k)} N_modes
### header ###
0.00050000 0 0 0 0 0 0 0 0 0 0 0 0
0.00150000 0.00179520 39235.44194025 0 -36021.10215268 0 -51760.61974190 0 60870.15253139 0 -10264.66986044 0 3
0.00250000 0.00253879 65297.75835312 0 -38941.30339718 0 -19645.06077060 0 -58853.55110226 0 40247.18092586 0 6
0.00350000 0.00331552 82458.16918338 0 -20912.89549375 0 -59757.04000566 0 -15128.05990147 0 -75417.25553671 0 7
0.00450000 0.00420575 103547.85835648 0 -12531.72160786 0 -40894.46317976 0 -53451.69454060 0 864.90817482 0 24
0.00550000 0.00557378 98232.18039511 0 -2231.81501471 0 -32565.41791952 0 -52300.31738540 0 -8793.45585885 0 45
0.00650000 0.00659388 128728.86825985 0 2313.12457954 0 -11212.86737874 0 -49626.56253710 0 -46934.28538989 0 40
0.00750000 0.00754703 107957.38552719 0 2734.04659492 0 -4189.41127607 0 -43334.41559640 0 -71373.62695332 0 57
0.00850000 0.00846663 112530.17511697 0 18351.71629447 0 49581.42136552 0 -49452.31983304 0 -49046.27111277 0 75
0.00950000 0.00948925 94219.60716318 0 16228.86119858 0 85400.77464571 0 -41080.24072864 0 -34825.58203363 0 112
0.01050000 0.01054430 75339.83898201 0 13189.54049886 0 92106.84505651 0 22896.55606794 0 -44445.64261864 0 105
0.01150000 0.01145670 77035.79390736 0 -71.25328747 0 98746.25737366 0 29125.92683391 0 -22211.23100851 0 144
0.01250000 0.01249090 79274.33018742 0 -5329.77487270 0 84366.63144226 0 33681.63598039 0 -3899.13246954 0 169
0.01350000 0.01339930 98984.38537214 0 448.66109895 0 101526.15497676 0 43451.64954814 0 41305.61385063 0 180
0.01450000 0.01448870 103185.61986416 0 -15440.27709556 0 55901.18538661 0 38637.40460080 0 47442.15129814 0 267
0.01550000 0.01550050 111229.17771495 0 -5050.28780080 0 24753.00061313 0 34360.97179347 0 26252.64135250 0 238
0.01650000 0.01653350 122037.54914099 0 2024.91982684 0 29804.92991108 0 9167.89466783 0 60916.95738251 0 315
0.01750000 0.01747870 114885.94534877 0 6680.39428987 0 39635.83415008 0 905.62506793 0 60410.75515379 0 297
0.01850000 0.01844180 106727.70452154 0 8841.83565994 0 51039.69194027 0 -5070.45159685 0 69627.09616989 0 388
0.01950000 0.01947590 90406.67547632 0 12572.75903657 0 54219.20536942 0 -15840.78021736 0 18790.48404574 0 399
0.02050000 0.02045430 88903.70737787 0 11098.40622624 0 76537.91007636 0 -11018.02832196 0 32940.18946440 0 462
0.02150000 0.02154770 71936.72702239 0 2712.81804396 0 74074.99888203 0 11558.35816368 0 24457.08747856 0 571
0.02250000 0.02255340 75349.82105926 0 -920.71353226 0 79061.82285389 0 22363.62405458 0 23914.83885976 0 510
0.02350000 0.02348930 79353.52133363 0 -8105.56873293 0 39916.66325681 0 24403.62790927 0 12225.49366012 0 555
0.02450000 0.02439640 87561.00707532 0 -5537.81245385 0 39558.86124326 0 24201.43538890 0 5063.12031567 0 592
0.02550000 0.02547300 82890.06039254 0 4805.02816268 0 27565.72815920 0 -8442.59693459 0 10687.85448000 0 837
0.02650000 0.02652900 75545.46977343 0 8303.59096324 0 19831.61470327 0 -6032.10273705 0 -7191.38791567 0 723
0.02750000 0.02749970 67517.99415821 0 4657.94779995 0 40352.21456096 0 -2951.24550476 0 12575.75365974 0 826
0.02850000 0.02848090 63638.95893754 0 1028.73735406 0 22430.94762005 0 10188.72843494 0 -3734.32837409 0 831
0.02950000 0.02946900 63357.90800687 0 -709.39850241 0 29828.22142467 0 9295.27706478 0 -1527.45746132 0 996
0.03050000 0.03053250 63035.26508765 0 -13.52460556 0 14835.80686188 0 8390.75668006 0 9457.82964725 0 1041
0.03150000 0.03150510 59629.49124076 0 1952.76049949 0 22261.58504266 0 5113.23034348 0 3379.53207491 0 1036
0.03250000 0.03246190 59643.79888482 0 2064.71504149 0 8220.39589493 0 -1364.76069328 0 15879.48849471 0 1059
0.03350000 0.03345080 53006.71571904 0 2197.53212494 0 20522.70718511 0 1659.46488739 0 2750.68339034 0 1302
0.03450000 0.03451200 54227.63467910 0 2082.28349745 0 14444.50943355 0 -3095.78598338 0 12804.01049294 0 1339
0.03550000 0.03553350 49440.67407624 0 2168.24027380 0 20798.32342928 0 2573.91189338 0 4549.67553534 0 1365
0.03650000 0.03647120 48012.12790931 0 3113.82026962 0 18566.66369132 0 -4524.11032638 0 332.44975557 0 1308
0.03750000 0.03744890 44786.36418889 0 1530.61845245 0 19693.86203717 0 -1091.69986090 0 -437.44235324 0 1579
0.03850000 0.03847530 41870.93215908 0 1530.87354998 0 24091.96527502 0 -961.88849181 0 -3184.24937024 0 1662
0.03950000 0.03950240 40415.10164766 0 1686.79359667 0 22937.81532059 0 50.80555677 0 -2416.92709177 0 1683
0.04050000 0.04050350 39431.64521426 0 242.77521000 0 21627.50131313 0 2870.55704696 0 -4756.07161935 0 1822
0.04150000 0.04152450 38872.09432822 0 -1055.44717455 0 18130.00326747 0 5630.20212443 0 -1255.20184983 0 1887
0.04250000 0.04250150 40031.90079310 0 -134.31994064 0 15621.28542975 0 4146.90980936 0 -3639.33227223 0 1920
0.04350000 0.04349210 40329.25578328 0 103.89235093 0 13606.01494426 0 173.58721432 0 -1765.95146929 0 2005
0.04450000 0.04448520 38338.16410713 0 1302.08433933 0 12642.63357734 0 839.77219517 0 -2111.46443662 0 2151
0.04550000 0.04548030 37450.75743931 0 770.01078461 0 13427.33576143 0 362.03885078 0 5471.64237286 0 2274
0.04650000 0.04648670 37826.52719191 0 -861.63405348 0 10460.48494256 0 4144.04828055 0 1789.27625648 0 2311
0.04750000 0.04749250 38571.41197896 0 -359.64980696 0 9217.06194390 0 3993.14145487 0 6229.98078180 0 2568
0.04850000 0.04851840 38362.23200451 0 -6.04115315 0 9095.50242534 0 2495.82986686 0 7843.91630572 0 2493
0.04950000 0.04949480 37933.11359459 0 321.50496242 0 6429.84415081 0 2115.91200660 0 9925.39014580 0 2644
0.05050000 0.05050630 37879.76493726 0 406.19956055 0 7596.77116412 0 52.77269146 0 11841.40550980 0 2829
0.05150000 0.05149060 36732.82426085 0 1182.36595947 0 9103.54354313 0 -125.76973691 0 11714.96586459 0 2784
0.05250000 0.05249300 35477.96623813 0 1160.57175747 0 9106.74889905 0 -1351.56216891 0 11296.49500373 0 3055
0.05350000 0.05348950 34681.39647331 0 -32.87020401 0 10772.86850461 0 851.84163569 0 9550.84042486 0 3009
0.05450000 0.05448610 35179.50212825 0 -455.99348925 0 12200.76029092 0 23.94633786 0 12058.90388196 0 3336
0.05550000 0.05550870 35682.15517394 0 116.99992749 0 8117.22558092 0 992.17744156 0 6015.18866170 0 3349
0.05650000 0.05647670 35867.82181086 0 386.88424107 0 11753.45231800 0 -2097.58934924 0 5568.76798454 0 3324
0.05750000 0.05747970 35661.63645959 0 331.97727058 0 10938.42680146 0 -2014.25009537 0 4456.22110986 0 3639
0.05850000 0.05849280 35665.62929049 0 407.88985897 0 14684.96658339 0 -1320.87282696 0 4158.40028940 0 3846
0.05950000 0.05951020 35505.69423050 0 154.81647260 0 15260.82152894 0 308.83105166 0 2619.19725052 0 3787
0.06050000 0.06049470 35108.96211566 0 -336.76090382 0 15228.98979370 0 3174.40038735 0 3304.91050184 0 3930
0.06150000 0.06148310 35491.83023431 0 785.54844241 0 15356.31673466 0 -560.38716229 0 5817.42152892 0 4083
0.06250000 0.06249100 35241.61283116 0 48.94190295 0 15295.86971129 0 1296.03963699 0 5213.30621354 0 4303
0.06350000 0.06350600 34217.67352890 0 115.90855371 0 15383.04651931 0 1443.71892436 0 6667.51741021 0 4470
0.06450000 0.06451750 34710.56632128 0 881.54164288 0 14497.19261905 0 -20.31397086 0 6730.62632085 0 4479
0.06550000 0.06550280 33898.02523285 0 849.64557870 0 16171.51971036 0 -434.87806850 0 4917.99200360 0 4636
0.06650000 0.06648880 32099.58764770 0 701.10561445 0 13119.00048627 0 1106.69959565 0 4326.35428479 0 4653
0.06750000 0.06749660 31399.95494420 0 1031.30829351 0 14494.64164375 0 -184.14381557 0 3675.15683837 0 5220
0.06850000 0.06852730 30206.76397651 0 1075.65422627 0 13600.02569791 0 -15.43417694 0 4674.14094750 0 5029
0.06950000 0.06949320 28625.82476352 0 450.79282700 0 14035.35517813 0 1118.26993230 0 2068.27531571 0 5040
0.07050000 0.07048030 28261.81167967 0 -361.76822558 0 10167.87698468 0 2457.34341345 0 2486.50217023 0 5475
0.07150000 0.07148790 28462.78416838 0 -411.49560710 0 10680.13500693 0 2544.94168695 0 1608.38992545 0 5509
0.07250000 0.07249820 28460.34410505 0 351.23158848 0 6925.29900968 0 353.67719740 0 1951.59592381 0 5916
0.07350000 0.07351270 27314.29072439 0 660.03602127 0 7198.17572820 0 556.67604779 0 991.99776417 0 5721
0.07450000 0.07449140 27097.23600011 0 360.64690557 0 7895.87856342 0 -569.69378565 0 2303.66378854 0 6028
0.07550000 0.07549160 25979.24334773 0 350.41527638 0 7215.68872818 0 1103.24025132 0 2033.52659567 0 6183
0.07650000 0.07648840 26815.40868566 0 -79.73672219 0 7144.82707088 0 1303.16018543 0 2824.10711414 0 6330
0.07750000 0.07749960 25613.45567238 0 66.37482449 0 6503.15696264 0 99.97516200 0 1365.38180031 0 6583
0.07850000 0.07848650 26193.74709671 0 852.26199206 0 7340.33159948 0 -937.25383427 0 2602.46063432 0 6549
0.07950000 0.07947320 24997.22876993 0 527.72025992 0 8495.73485917 0 -984.06534011 0 2373.17231981 0 6828
0.08050000 0.08048110 24176.03654789 0 642.77146410 0 9426.76320460 0 -603.95338390 0 1553.49959175 0 7147
0.08150000 0.08149960 23658.85403419 0 585.28800856 0 9797.44209780 0 -900.94901930 0 -51.60312475 0 7386
0.08250000 0.08250610 22732.85000099 0 534.66113097 0 9846.75355944 0 -628.69118957 0 -1588.43686214 0 7227
0.08350000 0.08350160 22620.16343999 0 468.53097828 0 10473.22872786 0 266.97620174 0 -1284.66006892 0 7798
0.08450000 0.08449610 21670.64606925 0 59.32437241 0 10266.96573821 0 1063.06460861 0 -1846.99484539 0 7371
0.08550000 0.08548940 21929.40369406 0 164.28391832 0 9081.82697951 0 729.32051037 0 -2303.95215966 0 8256
0.08650000 0.08650700 21256.50077521 0 117.40919265 0 7461.74693248 0 1573.55247583 0 -741.64283017 0 8037
0.08750000 0.08749060 21040.77699456 0 107.75242021 0 6797.80570076 0 1010.28936618 0 -854.41812074 0 8155
0.08850000 0.08849210 20699.94451235 0 86.16340535 0 5666.98053351 0 713.49448144 0 -900.04619587 0 8718
0.08950000 0.08949900 20777.47197901 0 170.94529120 0 5856.72873090 0 439.02728528 0 -209.42952637 0 8571
0.09050000 0.09049190 20577.71952198 0 -112.49357417 0 4560.00143970 0 568.44491687 0 165.11132161 0 8932
0.09150000 0.09150830 20219.80659646 0 332.70818045 0 4728.84273084 0 -80.89741595 0 -507.94798312 0 9285
0.09250000 0.09250820 20318.96189717 0 352.08671976 0 5306.68300065 0 -397.23343694 0 166.66187094 0 9204
0.09350000 0.09350330 19420.68585634 0 435.49141169 0 4883.65365785 0 236.79594572 0 -52.40368734 0 9349
0.09450000 0.09448040 19205.51663554 0 400.53528627 0 5967.88470672 0 -119.54979367 0 1.62136663 0 9564
0.09550000 0.09549270 18490.13443238 0 274.15553353 0 5953.13341478 0 -722.58371734 0 -133.56573925 0 10155
0.09650000 0.09649430 18490.46716829 0 565.82739439 0 7276.73467618 0 271.21525721 0 -86.92492693 0 9913
0.09750000 0.09749140 17345.52290733 0 242.22841399 0 6114.13322968 0 -472.07017923 0 305.30294191 0 10476
0.09850000 0.09850240 17462.42412316 0 379.36662778 0 6685.76242919 0 390.73399553 0 50.05934104 0 10575
0.09950000 0.09950330 16865.60681538 0 153.41787267 0 6241.01652276 0 495.59904443 0 -636.07459938 0 10882
0.10050000 0.10051200 16641.12098914 0 48.29373340 0 6053.86366546 0 694.97661902 0 -173.29884320 0 10875
0.10150000 0.10150300 16329.12561899 0 261.97961752 0 5598.54784834 0 -457.45530901 0 -838.43459682 0 11118
0.10250000 0.10250800 16118.61470091 0 242.74193641 0 6004.82948375 0 153.69182523 0 -139.99086964 0 11575
0.10350000 0.10349800 16251.15450444 0 14.57793653 0 5550.60060393 0 409.69661495 0 -677.01553468 0 11364
0.10450000 0.10450100 15845.77125599 0 19.73767227 0 5307.47047563 0 330.59419832 0 477.25864116 0 12093
0.10550000 0.10551000 16041.97453000 0 -55.13811104 0 5499.11526770 0 493.21665533 0 3.08693521 0 12067
0.10650000 0.10649700 16106.85803215 0 54.80681698 0 5218.50798491 0 290.18785871 0 1376.58390923 0 12054
0.10750000 0.10749900 16271.22957092 0 150.23913562 0 5856.36272140 0 -38.68964414 0 990.49823434 0 12807
0.10850000 0.10850100 16055.17305437 0 74.65041018 0 5497.04121387 0 -397.94549178 0 1781.75642494 0 12736
0.10950000 0.10950300 15991.95323176 0 240.76770335 0 6381.91908880 0 340.10711794 0 1938.31976107 0 12933
0.11050000 0.11050200 15747.28142709 0 42.66750192 0 6057.69012841 0 241.50970443 0 1876.55288526 0 13428
0.11150000 0.11150900 15948.80847564 0 -162.19322769 0 5903.44485245 0 831.88968150 0 2032.35092879 0 13453
0.11250000 0.11250000 16016.46477702 0 112.26842287 0 5377.30065162 0 491.92231265 0 1690.58678603 0 13668
0.11350000 0.11349100 15597.32844435 0 180.34618974 0 5541.22854251 0 -311.43415559 0 1854.53685932 0 13791
0.11450000 0.11448600 15219.22954038 0 334.40513359 0 4773.25188342 0 52.22622819 0 1374.17711949 0 14205
0.11550000 0.11549300 14992.96912264 0 151.20074240 0 5028.81524351 0 211.22297292 0 1728.62959156 0 14776
0.11650000 0.11649800 14896.14297328 0 -3.69160508 0 4683.33554977 0 426.56521639 0 820.05981084 0 14553
0.11750000 0.11747300 14684.85567142 0 168.12036334 0 4228.01973265 0 561.91331099 0 733.24790320 0 14568
0.11850000 0.11849100 14266.27389859 0 360.70347067 0 3772.85919229 0 -202.34003329 0 169.57663750 0 16015
0.11950000 0.11950300 13901.48443096 0 268.89165145 0 4043.41785064 0 -342.14900730 0 628.26639673 0 15270
0.12050000 0.12050700 13606.79132805 0 250.59117649 0 3892.11174187 0 75.66769476 0 -287.67570261 0 15999
0.12150000 0.12150000 13400.27324087 0 231.96018386 0 4552.32633141 0 -187.01199910 0 -466.85398930 0 15670
0.12250000 0.12250700 13059.32984668 0 213.75176583 0 4237.62470920 0 -139.78790074 0 162.56811015 0 16887
0.12350000 0.12352200 12541.70368511 0 234.66976327 0 4758.15676438 0 316.33091904 0 -23.35983536 0 16407
0.12450000 0.12449800 12818.87269685 0 -121.20127289 0 3909.86874819 0 427.70539144 0 634.93886081 0 16306
0.12550000 0.12549900 12842.60785832 0 -206.99389952 0 4212.88024881 0 988.77022586 0 420.17114135 0 17523
0.12650000 0.12650100 13127.87344382 0 71.53145469 0 3310.34518835 0 252.96025616 0 833.10305845 0 17154
0.12750000 0.12750600 13000.43559089 0 -51.60390113 0 3213.66322455 0 125.26508745 0 1233.97329887 0 18007
0.12850000 0.12850300 12857.58097420 0 122.84942476 0 3324.75265318 0 -18.15163110 0 1302.39489284 0 17496
0.12950000 0.12949900 12674.13257667 0 207.49300339 0 3389.40324020 0 -178.64590925 0 1266.63687388 0 18405
0.13050000 0.13049000 12728.47944172 0 271.10989084 0 3548.35118366 0 -56.12345297 0 617.21623721 0 18100
0.13150000 0.13148800 12100.16313460 0 101.71836542 0 3549.37157378 0 -0.64562190 0 1351.95036081 0 19059
0.13250000 0.13249300 12119.35090532 0 263.79524646 0 4059.05643834 0 -116.12926853 0 905.67941480 0 18957
0.13350000 0.13349100 11876.45369216 0 119.64074148 0 4047.90978541 0 65.39536089 0 1161.61432998 0 19468
0.13450000 0.13450700 11793.38062701 0 229.76412686 0 4061.18594815 0 -213.06411161 0 884.35104307 0 19953
0.13550000 0.13551000 11624.68352143 0 218.26477386 0 4251.27797265 0 17.36681801 0 1353.34785162 0 19956
0.13650000 0.13649900 11443.34245133 0 105.90617956 0 4578.14663791 0 8.16704724 0 1484.24615801 0 19723
0.13750000 0.13749600 11150.86758780 0 5.76494908 0 4554.12310532 0 188.99288688 0 891.91413027 0 20946
0.13850000 0.13851100 11322.22658065 0 15.19571620 0 4422.68133029 0 200.77950187 0 1613.12586654 0 20955
0.13950000 0.13949800 11384.55910750 0 -8.31919628 0 4094.27098865 0 477.57474027 0 1039.81967805 0 20506
0.14050000 0.14048300 11228.50596644 0 38.55022779 0 4087.05061944 0 181.94221298 0 2022.15811880 0 21447
0.14150000 0.14148400 11165.72979171 0 105.71297091 0 4122.90845917 0 2.72846772 0 1365.85872178 0 21771
0.14250000 0.14249400 11090.56475000 0 105.57566189 0 4009.85588868 0 3.59425765 0 1399.63141649 0 22470
0.14350000 0.14350900 10943.85039677 0 192.05738459 0 3601.51129063 0 -36.23205672 0 1121.90784490 0 22519
0.14450000 0.14449900 10802.82582757 0 114.73621419 0 3976.08319397 0 -291.18052084 0 959.34860771 0 22218
0.14550000 0.14550500 10658.25207535 0 33.19573064 0 3911.59897491 0 231.66183066 0 1173.21572199 0 23559
0.14650000 0.14650700 10652.87284483 0 -49.11958392 0 3578.14213866 0 453.26616392 0 469.39609164 0 23044
0.14750000 0.14750500 10853.39059446 0 -101.91778514 0 3013.60021400 0 444.20909249 0 952.37446307 0 23649
0.14850000 0.14849900 10724.84362183 0 164.16191515 0 3410.92016227 0 -39.74774433 0 173.12582052 0 23640
0.14950000 0.14949500 10584.96144591 0 232.24300938 0 3045.22121650 0 -276.53792263 0 1013.89511430 0 24457
0.15050000 0.15050000 10116.83529632 0 189.81807193 0 3408.18063663 0 -264.19896602 0 403.17942762 0 24591
0.15150000 0.15149900 10132.60697838 0 160.87892085 0 3698.30416640 0 133.39826218 0 816.96536689 0 25020
0.15250000 0.15250500 9939.88634021 0 32.74320981 0 3195.40711437 0 397.54620869 0 349.43481457 0 25297
0.15350000 0.15350100 9852.97572092 0 -3.85443495 0 2985.90549522 0 497.15070289 0 482.42713894 0 25452
0.15450000 0.15450400 9668.07437660 0 155.05271510 0 2761.15348026 0 60.15421577 0 1083.31602512 0 26061
0.15550000 0.15549900 9423.70203424 0 250.76309004 0 2831.53821609 0 238.00488619 0 927.76864264 0 26128
0.15650000 0.15649500 9268.76910407 0 162.38288716 0 2732.40509777 0 -122.08745953 0 1163.99893732 0 26331
0.15750000 0.15749700 8948.61061296 0 139.90324919 0 2631.41974956 0 73.22984967 0 666.42344159 0 27345
0.15850000 0.15849900 8916.56814498 0 167.84086518 0 2815.24524778 0 57.05533534 0 1292.96737544 0 26980
0.15950000 0.15949700 8640.02024027 0 -3.08575954 0 2589.82776100 0 -58.27769616 0 709.06687562 0 27777
0.16050000 0.16050000 8774.32354412 0 6.24508699 0 2680.67575520 0 236.20700317 0 1005.52458797 0 28224
0.16150000 0.16150500 8687.49056321 0 48.74226140 0 2639.76032966 0 21.24197131 0 565.73533746 0 28075
0.16250000 0.16249700 8796.27302288 0 85.63956812 0 2461.74661864 0 85.22043178 0 630.57447482 0 28590
0.16350000 0.16349900 8565.65376473 0 7.54781462 0 2421.88485681 0 96.25162536 0 763.28841014 0 29163
0.16450000 0.16449100 8602.87582169 0 81.15018433 0 2566.17023791 0 -129.46976022 0 645.83928918 0 28996
0.16550000 0.16550500 8633.17697175 0 80.80480445 0 2544.13202957 0 -202.90013873 0 145.56863259 0 30777
0.16650000 0.16650700 8491.57566032 0 107.72546860 0 2639.99324480 0 -30.79093732 0 83.54543922 0 29211
0.16750000 0.16749900 8388.47189349 0 -27.20936800 0 2467.82459457 0 171.95680837 0 503.72445532 0 30922
0.16850000 0.16850800 8476.96855394 0 -86.53252038 0 2352.53160229 0 226.49887848 0 205.00857527 0 30867
0.16950000 0.16949900 8620.95447272 0 51.94939191 0 2250.70332311 0 45.58359943 0 148.99692156 0 30852
0.17050000 0.17049200 8446.73395105 0 145.83371219 0 2324.54851239 0 -9.60115009 0 197.81149757 0 31257
0.17150000 0.17149500 8284.24791576 0 179.23485180 0 2504.22590295 0 -120.46259917 0 222.68683409 0 32608
0.17250000 0.17250900 8078.70585392 0 76.00375803 0 2457.55414620 0 96.77856812 0 727.38287826 0 32361
0.17350000 0.17350400 8145.78541306 0 -38.71759395 0 2290.97545923 0 499.12049947 0 376.11690707 0 32508
0.17450000 0.17449800 8038.26734985 0 95.65203525 0 2250.40386079 0 85.05018191 0 537.52598714 0 32791
0.17550000 0.17549800 8009.89606805 0 103.53721081 0 1913.94131017 0 -90.36386346 0 405.78696803 0 33633
0.17650000 0.17650100 7806.90498151 0 111.37114504 0 2160.24352080 0 -6.75824340 0 731.10952043 0 33984
0.17750000 0.17750300 7670.03961116 0 11.65851167 0 1784.29630905 0 112.33829741 0 426.06500341 0 34069
0.17850000 0.17849800 7805.29675795 0 -61.75179178 0 1685.36283227 0 298.39978093 0 342.27211958 0 34536
