### header ###
fiducial parameters:
Omega_m = 0.31
Omega_nu = 0
Omega_de = 0.69
Omega_k = 0
H_0 = 100
w_de = -1
zeff = 0
beta = 0
fgrowth = 0
b_1 = 2
gamma = 0.55
Lx = 3500 Ly = 3500 Lz = 3500
nx = 700 ny = 700 nz = 700
xoffset = 1379.75464 yoffset = 22.6059522 zoffset = 368.141391
bins = 400 dk = 0.001
kx_ny = 0.628318531 ky_ny = 0.628318531 kz_ny = 0.628318531
############################
A(data) = 3.28330948 (not used)
A(ran) = 3.28421106 (used)
Ngal = 184858
weighted Ngal = 0
Nran = 9399747
weighted Nran = 0
SN(data) = 6708.43483
SN(ran) = 130.630752
SN(data+ran) = 6839.06559
############################
13 columns: k_central k_mean P_0(k) sigma^{lin}_{P_0(k)} P^img_1(k) sigma^{lin}_{P_1(k)} P_2(k) sigma^{lin}_{P_2(k)} P^img_3(k) sigma^{lin}_{P_3(k)} P_4(k) sigma^{lin}_{P_4(k)} N_modes
### header ###
0.00050000 0 0 0 0 0 0 0 0 0 0 0 0
0.00150000 0.00179520 79723.96731170 0 -68014.87978149 0 -86697.77921684 0 74962.62737380 0 100900.05690903 0 3
0.00250000 0.00253879 116679.39189530 0 -54863.93664802 0 -47238.07327430 0 -93839.17910786 0 -1352.77110938 0 6
0.00350000 0.00331552 130635.44501525 0 -8676.77646696 0 -59316.60857485 0 -106450.97915768 0 -28351.76128692 0 7
0.00450000 0.00420575 118519.42146901 0 27072.05898304 0 -41328.57262831 0 -81646.29356677 0 -10698.59075865 0 24
0.00550000 0.00557378 63405.93288966 0 24166.38720654 0 -2933.06703296 0 -32365.22181461 0 18860.69132242 0 45
0.00650000 0.00659388 45883.28356707 0 8950.11901575 0 10382.85765512 0 -9895.04463095 0 -27979.20798143 0 40
0.00750000 0.00754703 43051.36825028 0 -7327.87618531 0 25291.58913694 0 -6861.80190715 0 -26083.72242298 0 57
0.00850000 0.00846663 56579.07934409 0 -4469.02035114 0 2935.48491389 0 15564.16576547 0 -45593.02694294 0 75
0.00950000 0.00948925 65142.81433175 0 -10181.79643685 0 19938.53384185 0 -2262.38235350 0 1020.59641550 0 112
0.01050000 0.01054430 82013.19036182 0 -10784.56971739 0 10843.13123728 0 -6801.85398765 0 -26769.71295423 0 105
0.01150000 0.01145670 95101.35732057 0 -3194.30908588 0 47323.25366686 0 3771.88316695 0 20557.64445550 0 144
0.01250000 0.01249090 104101.19817223 0 -3146.01801436 0 22380.48267394 0 -6873.40329916 0 -10498.54993049 0 169
0.01350000 0.01339930 115153.24319523 0 -1291.30369589 0 70534.57790419 0 5250.10680502 0 16587.77233182 0 180
0.01450000 0.01448870 112354.93420519 0 1799.18069535 0 53531.55115863 0 310.98163475 0 24374.34714932 0 267
0.01550000 0.01550050 106812.66309016 0 11008.56753096 0 79678.60431618 0 7596.28315146 0 -12307.01395769 0 238
0.01650000 0.01653350 95090.82068346 0 12146.52433785 0 75077.53217418 0 -11725.50250169 0 39908.34485909 0 315
0.01750000 0.01747870 87470.50290822 0 7739.90306074 0 80431.14202912 0 18957.51747178 0 3109.96053308 0 297
0.01850000 0.01844180 90724.10553298 0 -3089.74128105 0 71998.94863726 0 25524.83700876 0 23611.38371125 0 388
0.01950000 0.01947590 81923.46257850 0 2680.78666717 0 63002.76788059 0 10259.02444120 0 11083.79911986 0 399
0.02050000 0.02045430 80165.72968615 0 5032.35333533 0 56869.33596822 0 4956.05699153 0 19510.19181571 0 462
0.02150000 0.02154770 72233.86018863 0 2948.00687525 0 41628.36768182 0 6330.88849164 0 14120.42465872 0 571
0.02250000 0.02255340 73354.62564025 0 -2864.60107420 0 38906.03339088 0 17671.16044973 0 222.84987468 0 510
0.02350000 0.02348930 74306.13942643 0 -597.03802260 0 31723.81789509 0 9313.89918445 0 10495.58858091 0 555
0.02450000 0.02439640 73073.57470958 0 3078.01788587 0 18958.18294360 0 116.97330861 0 -1400.57416823 0 592
0.02550000 0.02547300 68408.28453725 0 1479.52130811 0 24758.32438767 0 -5316.90908424 0 2243.16130919 0 837
0.02650000 0.02652900 68625.11743759 0 860.88872504 0 23370.92656142 0 -2276.88963911 0 -18472.05578136 0 723
0.02750000 0.02749970 66526.21932710 0 1215.06280807 0 29617.48868266 0 -1791.90487015 0 197.16266255 0 826
0.02850000 0.02848090 66640.12591976 0 -159.50028507 0 20816.73481621 0 7672.90113998 0 -17433.69792306 0 831
0.02950000 0.02946900 67671.49632398 0 -1502.29153544 0 24104.94197545 0 4260.16202140 0 -4846.81979278 0 996
0.03050000 0.03053250 68005.23044015 0 1133.60905768 0 20007.41017490 0 4819.75727223 0 -10691.65876056 0 1041
0.03150000 0.03150510 65180.19166547 0 3531.99166816 0 20802.75990806 0 -2630.66554816 0 -779.76216497 0 1036
0.03250000 0.03246190 58411.34507994 0 4351.36493391 0 16600.74903225 0 -3329.71041822 0 7058.40446426 0 1059
0.03350000 0.03345080 57307.54915965 0 2399.22554145 0 27249.40722224 0 1632.30254607 0 -8877.64913489 0 1302
0.03450000 0.03451200 53866.50530646 0 1543.88352400 0 24937.11448248 0 3297.95632136 0 9958.23117996 0 1339
0.03550000 0.03553350 50825.29910326 0 517.21356905 0 21681.84817817 0 8322.40163327 0 3856.88610037 0 1365
0.03650000 0.03647120 51483.45073017 0 -646.41492230 0 15068.16743795 0 2339.87654658 0 7595.65095323 0 1308
0.03750000 0.03744890 52647.69367382 0 -504.33779851 0 18786.60212681 0 2263.71329713 0 5599.29095854 0 1579
0.03850000 0.03847530 51294.56764614 0 2435.98176813 0 16736.06163502 0 -3875.96295912 0 1767.55969285 0 1662
0.03950000 0.03950240 49410.17328464 0 1886.22440900 0 22378.26443455 0 -3859.71435559 0 4862.36965090 0 1683
0.04050000 0.04050350 46826.03530767 0 641.16102230 0 20902.80250453 0 786.99695274 0 -749.40555892 0 1822
0.04150000 0.04152450 48230.73540116 0 -759.00166252 0 21171.98585446 0 8295.88258136 0 6116.66202258 0 1887
0.04250000 0.04250150 48063.92379906 0 -180.34286238 0 20517.27249861 0 4808.95444640 0 7588.14221290 0 1920
0.04350000 0.04349210 47537.75741584 0 2162.76122251 0 19178.78685090 0 1210.36014057 0 12443.87932803 0 2005
0.04450000 0.04448520 42536.40397598 0 3293.45329540 0 19657.37199921 0 -3953.54588177 0 10278.76677177 0 2151
0.04550000 0.04548030 41068.37314791 0 2454.99207970 0 23486.60774559 0 -1261.46837610 0 13924.66503259 0 2274
0.04650000 0.04648670 38187.10200470 0 710.94794262 0 24908.72101829 0 1871.53966424 0 8263.36319191 0 2311
0.04750000 0.04749250 39025.59649399 0 -1232.84199678 0 20757.17508860 0 5180.15462586 0 12977.80954912 0 2568
0.04850000 0.04851840 38952.94915397 0 -394.83995664 0 19847.25329097 0 4920.78698523 0 8625.16912756 0 2493
0.04950000 0.04949480 39253.63150324 0 503.78212954 0 15754.15796919 0 747.11522675 0 7871.56665971 0 2644
0.05050000 0.05050630 38029.16336016 0 1036.65979604 0 15406.11620896 0 2725.35109651 0 9421.23978852 0 2829
0.05150000 0.05149060 35335.99891719 0 1715.90798866 0 15877.71390320 0 -3758.72900737 0 4326.35428479 0 2784
0.05250000 0.05249300 36223.84923289 0 26.66723029 0 15733.41743090 0 1495.35953735 0 8844.08717292 0 3055
0.05350000 0.05348950 34855.86100130 0 -99.59972498 0 16402.43843082 0 186.27887098 0 440.12309554 0 3009
0.05450000 0.05448610 35151.33048800 0 14.41944333 0 12331.96915082 0 1444.69494969 0 3524.62711339 0 3336
0.05550000 0.05550870 35653.53988582 0 54.24327327 0 13333.94788312 0 1367.66658688 0 84.43794784 0 3349
0.05650000 0.05647670 34441.93753119 0 1282.08691123 0 13450.84909896 0 -1380.38818978 0 1276.10875607 0 3324
0.05750000 0.05747970 33716.24051487 0 754.97777627 0 12399.73636417 0 2777.62390773 0 1499.21927389 0 3639
0.05850000 0.05849280 31855.35949090 0 507.30913017 0 11884.66117790 0 1208.84064658 0 3088.18851348 0 3846
0.05950000 0.05951020 31000.78276604 0 866.31786595 0 11057.30225035 0 1844.79878840 0 4556.45225668 0 3787
0.06050000 0.06049470 30500.23704776 0 349.47474288 0 10939.09227327 0 1362.07662362 0 4705.28502853 0 3930
0.06150000 0.06148310 29442.91324269 0 669.88167680 0 10271.67949692 0 1172.63897974 0 5680.14578429 0 4083
0.06250000 0.06249100 28949.13315456 0 180.98282444 0 9601.64919808 0 1120.79872521 0 6756.66845128 0 4303
0.06350000 0.06350600 28906.32113434 0 244.27141247 0 7929.61798454 0 -40.41133064 0 6991.28054033 0 4470
0.06450000 0.06451750 27898.57497962 0 530.98883566 0 8871.34933502 0 727.96960258 0 3578.91852245 0 4479
0.06550000 0.06550280 27643.47744981 0 654.81761310 0 10350.49354243 0 -1156.03545791 0 6183.95231447 0 4636
0.06650000 0.06648880 27079.04643712 0 -70.76094923 0 9254.02890333 0 1787.41293539 0 4800.86896383 0 4653
0.06750000 0.06749660 27728.32510646 0 -974.69327869 0 7349.30437782 0 2662.70801615 0 5553.11830564 0 5220
0.06850000 0.06852730 28503.82159708 0 -726.69966053 0 5790.49210273 0 1801.65403227 0 5484.77435005 0 5029
0.06950000 0.06949320 29153.98756219 0 -132.89028535 0 4910.59417523 0 227.71891014 0 2901.05783856 0 5040
0.07050000 0.07048030 29293.84755571 0 575.09741680 0 5647.12729098 0 -1390.69191175 0 5806.15287282 0 5475
0.07150000 0.07148790 27295.99024942 0 818.54808069 0 4757.23619503 0 -3199.96559632 0 -1255.84513925 0 5509
0.07250000 0.07249820 27579.48124342 0 842.24331385 0 9205.33854872 0 -1562.67201163 0 1129.62731798 0 5916
0.07350000 0.07351270 26965.91622824 0 21.10078037 0 6815.67361905 0 -1060.86855162 0 -4772.64186759 0 5721
0.07450000 0.07449140 26790.34258055 0 -67.71297740 0 9185.16366147 0 -351.44786682 0 -3955.25392610 0 6028
0.07550000 0.07549160 26714.58970540 0 237.98714028 0 7294.24767617 0 87.26986316 0 -5327.54554211 0 6183
0.07650000 0.07648840 27290.55556292 0 -45.48688419 0 8396.79029120 0 1077.45432754 0 -4785.84039196 0 6330
0.07750000 0.07749960 26449.28827440 0 427.64217161 0 7288.80189846 0 16.43804117 0 -4915.41884591 0 6583
0.07850000 0.07848650 26454.72296090 0 239.97911925 0 7625.56391140 0 838.18060841 0 -4412.34433473 0 6549
0.07950000 0.07947320 25396.62277204 0 426.28571823 0 6886.20254044 0 330.32024575 0 -2025.16383317 0 6828
0.08050000 0.08048110 24791.26524261 0 525.21032205 0 7392.88169063 0 605.90321632 0 -3387.56210150 0 7147
0.08150000 0.08149960 24507.88516058 0 418.67715712 0 6787.20251648 0 13.78946334 0 -1246.82799613 0 7386
0.08250000 0.08250610 23690.35303353 0 303.34312741 0 6765.43049687 0 1174.04756176 0 -2578.81420243 0 7227
0.08350000 0.08350160 23423.83157086 0 351.89040558 0 6090.64207454 0 230.47729082 0 -951.26312514 0 7798
0.08450000 0.08449610 22740.61383885 0 680.26858274 0 6900.06653663 0 -700.31481211 0 535.80906985 0 7371
0.08550000 0.08548940 21648.46367536 0 683.63919749 0 7525.33276458 0 181.13144648 0 -1700.66868406 0 8256
0.08650000 0.08650700 21459.46967936 0 236.26911387 0 6736.20519291 0 286.85051755 0 1832.36555662 0 8037
0.08750000 0.08749060 20950.27282747 0 -149.96407394 0 7660.62318496 0 1204.07143190 0 -246.05376782 0 8155
0.08850000 0.08849210 21530.34242786 0 -36.68125020 0 6565.80004300 0 1420.16122204 0 2919.01448642 0 8718
0.08950000 0.08949900 21078.26524025 0 221.22168697 0 7066.22375811 0 -66.97874016 0 1442.84271980 0 8571
0.09050000 0.09049190 20857.66133295 0 732.70776191 0 6706.69151783 0 -1301.35232033 0 2272.58625469 0 8932
0.09150000 0.09150830 19927.77538081 0 537.55482425 0 7952.92058933 0 -703.35601831 0 909.68888250 0 9285
0.09250000 0.09250820 19647.38992196 0 200.45452980 0 8217.21272141 0 -326.95074012 0 1499.05290593 0 9204
0.09350000 0.09350330 19306.44652777 0 33.29910060 0 7428.88371592 0 923.51295037 0 733.76586210 0 9349
0.09450000 0.09448040 19258.86529286 0 114.53213617 0 7839.21363822 0 922.45595930 0 -226.86488798 0 9564
0.09550000 0.09549270 18908.05073339 0 201.92300428 0 6427.45954346 0 61.32500252 0 -63.71637549 0 10155
0.09650000 0.09649430 18675.80106930 0 278.27147671 0 6043.91486180 0 506.53163727 0 -1027.26222487 0 9913
0.09750000 0.09749140 18004.67274196 0 210.27800294 0 6165.95130182 0 -34.12084738 0 -805.01903866 0 10476
0.09850000 0.09850240 17711.75423056 0 265.78057071 0 5227.44748965 0 285.92329349 0 -1222.07244454 0 10575
0.09950000 0.09950330 17432.47789140 0 85.22741924 0 5280.44122867 0 480.47952475 0 -692.64635854 0 10882
0.10050000 0.10051200 17173.72026660 0 82.02128694 0 4383.04139239 0 783.66848453 0 -1652.27779177 0 10875
0.10150000 0.10150300 17463.86597876 0 105.10628244 0 3678.55074464 0 149.13223417 0 -1465.80149748 0 11118
0.10250000 0.10250800 16859.06300918 0 277.23666804 0 4109.44374607 0 -251.38308795 0 -905.77701733 0 11575
0.10350000 0.10349800 16357.74090712 0 425.40951367 0 4774.74919501 0 -677.90726691 0 -1319.47533614 0 11364
0.10450000 0.10450100 16004.15354841 0 483.97990651 0 4930.56942094 0 -419.32599214 0 -623.30308610 0 12093
0.10550000 0.10551000 15762.36545494 0 332.24456842 0 5328.17774034 0 435.88625830 0 -517.02612782 0 12067
0.10650000 0.10649700 15196.04893876 0 262.78483841 0 5931.48339833 0 150.23580826 0 528.45006068 0 12054
0.10750000 0.10749900 14869.63501257 0 263.72426280 0 5736.38924401 0 13.97302265 0 -518.68980736 0 12807
0.10850000 0.10850100 14667.66431615 0 110.39567426 0 5974.08468581 0 93.97404806 0 813.46831249 0 12736
0.10950000 0.10950300 14688.73759035 0 -2.57344606 0 5520.44363943 0 229.83843788 0 25.44287306 0 12933
0.11050000 0.11050200 14605.88634914 0 47.49816184 0 5303.81038064 0 581.93403060 0 224.96940242 0 13428
0.11150000 0.11150900 14497.85809087 0 199.90440644 0 5066.95786981 0 248.38402830 0 -106.28705127 0 13453
0.11250000 0.11250000 14069.84880064 0 318.48372037 0 5145.99373926 0 -265.79498927 0 -523.93816176 0 13668
0.11350000 0.11349100 13420.79195523 0 481.97018162 0 5313.19353326 0 -205.16607027 0 465.18587328 0 13791
0.11450000 0.11448600 13257.19680024 0 174.85493813 0 5257.89282527 0 134.35432335 0 -387.40219997 0 14205
0.11550000 0.11549300 13049.68050534 0 -214.27083384 0 4438.81902185 0 1188.74339771 0 244.82153584 0 14776
0.11650000 0.11649800 13411.03170191 0 -313.86978244 0 4371.35127081 0 702.32897347 0 69.25897934 0 14553
0.11750000 0.11747300 13726.46534312 0 -39.46458607 0 3335.45565824 0 404.89856315 0 152.71247254 0 14568
0.11850000 0.11849100 13814.08579901 0 -34.42130790 0 3551.01307093 0 13.64117404 0 920.11793499 0 16015
0.11950000 0.11950300 13473.25331679 0 162.98292091 0 3186.42324485 0 -470.38209905 0 -644.61260279 0 15270
0.12050000 0.12050700 13512.51615399 0 304.90144059 0 4012.22940482 0 -163.18588982 0 958.37369150 0 15999
0.12150000 0.12150000 13146.06300682 0 145.85700371 0 3808.50629928 0 -34.37128661 0 -68.44776920 0 15670
0.12250000 0.12250700 13031.60185431 0 212.00379319 0 4481.33157975 0 479.76081519 0 1601.12519145 0 16887
0.12350000 0.12352200 12995.22272832 0 1.81250122 0 3777.31785346 0 303.45403938 0 11.22451314 0 16407
0.12450000 0.12449800 12595.82872622 0 238.82563477 0 4593.43030730 0 -464.25199450 0 880.41921375 0 16306
0.12550000 0.12549900 12530.05792832 0 387.80924689 0 4713.37051110 0 -569.07711510 0 314.17368123 0 17523
0.12650000 0.12650100 12235.69756131 0 52.41577675 0 4957.72067107 0 -82.52970740 0 1175.64469412 0 17154
0.12750000 0.12750600 12223.38633270 0 -170.79112357 0 4699.76161245 0 493.71575919 0 555.95733823 0 18007
0.12850000 0.12850300 12517.52487576 0 -57.24588210 0 4318.32425820 0 830.09512584 0 565.97823467 0 17496
0.12950000 0.12949900 12550.02208282 0 -38.47868957 0 4078.88749848 0 216.40367102 0 913.93237445 0 18405
0.13050000 0.13049000 12465.50716208 0 111.46985669 0 4008.43621547 0 441.53278667 0 1590.59964554 0 18100
0.13150000 0.13148800 12475.26741539 0 -6.12065485 0 3857.78448732 0 82.29734683 0 1673.21797161 0 19059
0.13250000 0.13249300 12372.34110771 0 31.84105185 0 3663.58871995 0 -4.01307234 0 1293.59957366 0 18957
0.13350000 0.13349100 12292.70631362 0 204.70578559 0 4080.69536358 0 36.22606747 0 1412.03137468 0 19468
0.13450000 0.13450700 12170.81405916 0 109.44183133 0 3934.02537514 0 -259.56173658 0 1209.25102087 0 19953
0.13550000 0.13551000 11968.73245077 0 170.51938924 0 4114.27950794 0 195.63207737 0 1591.10984060 0 19956
0.13650000 0.13649900 11775.30197599 0 260.84720631 0 4064.53548963 0 -17.18813882 0 1039.41706760 0 19723
0.13750000 0.13749600 11528.52284389 0 234.64425352 0 4071.46748772 0 -238.93654674 0 871.81022668 0 20946
0.13850000 0.13851100 11287.40022224 0 191.09355958 0 4573.03359612 0 -31.88275475 0 1054.13508595 0 20955
0.13950000 0.13949800 11010.33103127 0 194.81687440 0 4509.01520733 0 -154.24305772 0 778.55433362 0 20506
0.14050000 0.14048300 11050.37025226 0 10.27789057 0 4286.31506381 0 238.10359785 0 1060.10547727 0 21447
0.14150000 0.14148400 10758.12830387 0 81.34261659 0 4361.77956784 0 -107.49632447 0 -236.18149341 0 21771
0.14250000 0.14249400 10889.64771728 0 156.23947317 0 4491.10292426 0 -206.30624531 0 303.80119385 0 22470
0.14350000 0.14350900 10601.15459346 0 68.50865987 0 4464.48405158 0 -3.88977150 0 -198.93059934 0 22519
0.14450000 0.14449900 10528.51834465 0 56.73147239 0 4181.08178716 0 86.97982836 0 118.05580944 0 22218
0.14550000 0.14550500 10497.45190199 0 -30.37446287 0 4118.81580749 0 795.14343689 0 333.61987684 0 23559
0.14650000 0.14650700 10510.40642003 0 -16.06415692 0 3192.73413591 0 578.79411274 0 54.85839105 0 23044
0.14750000 0.14750500 10437.98090396 0 165.65368114 0 3342.05492042 0 492.60220302 0 1057.18960159 0 23649
0.14850000 0.14849900 10032.18728121 0 260.81060536 0 3241.18048418 0 -135.65864811 0 690.14196627 0 23640
0.14950000 0.14949500 9944.66664609 0 107.35679721 0 2992.61566937 0 36.89686306 0 1710.80603807 0 24457
0.15050000 0.15050000 9752.58929734 0 -49.83075147 0 3181.21038228 0 111.95676023 0 796.41116070 0 24591
0.15150000 0.15149900 10054.58040785 0 -20.31984919 0 3079.10482317 0 45.52082325 0 1178.68368208 0 25020
0.15250000 0.15250500 9780.77202879 0 109.08613664 0 2882.66863402 0 110.66042114 0 977.12225082 0 25297
0.15350000 0.15350100 9912.26925981 0 64.38184731 0 2829.70816860 0 -94.60081160 0 729.08870435 0 25452
0.15450000 0.15450400 9661.66366476 0 119.54646631 0 2992.34948065 0 59.56771327 0 612.20856179 0 26061
0.15550000 0.15549900 9681.61672807 0 127.45448973 0 2887.40457512 0 219.52362472 0 560.96501365 0 26128
0.15650000 0.15649500 9279.31683237 0 90.78344344 0 2896.31080627 0 -202.30343234 0 512.57633960 0 26331
0.15750000 0.15749700 9233.28836503 0 155.39765132 0 2766.98744985 0 -32.93852578 0 152.16567653 0 27345
0.15850000 0.15849900 9224.59286662 0 78.48330602 0 2846.85515908 0 -53.52212364 0 224.01888684 0 26980
0.15950000 0.15949700 9063.32686300 0 79.61937732 0 2693.47499648 0 133.29844140 0 -552.62221530 0 27777
0.16050000 0.16050000 9072.89856596 0 25.04957922 0 2439.12057687 0 -34.70590802 0 -363.74800423 0 28224
0.16150000 0.16150500 8917.71053826 0 98.06803068 0 2649.26548545 0 102.82249408 0 -362.67437637 0 28075
0.16250000 0.16249700 8729.47074366 0 133.13540081 0 2334.86332556 0 86.66772207 0 -755.11974359 0 28590
0.16350000 0.16349900 8665.37471650 0 235.40510963 0 2738.61616806 0 -214.43942004 0 -267.29340997 0 29163
0.16450000 0.16449100 8303.96806394 0 112.97049564 0 2459.48401447 0 299.36915155 0 -255.31824463 0 28996
0.16550000 0.16550500 8278.86868524 0 26.20849839 0 2381.03597845 0 354.53565605 0 127.74064261 0 30777
0.16650000 0.16650700 8193.55519832 0 -36.38345156 0 2102.78002941 0 294.90272654 0 -35.56270298 0 29211
0.16750000 0.16749900 8212.89824580 0 -5.99215225 0 1982.05235063 0 348.73274181 0 581.51145600 0 30922
0.16850000 0.16850800 8235.80156749 0 48.39421964 0 1760.28386765 0 183.74564160 0 744.88367792 0 30867
0.16950000 0.16949900 8229.05811975 0 -7.01290837 0 1545.64702431 0 266.36507679 0 868.22111535 0 30852
0.17050000 0.17049200 8152.95032629 0 48.96297622 0 1402.50403650 0 124.54859613 0 546.91579447 0 31257
0.17150000 0.17149500 8143.36753213 0 39.89791913 0 1432.83846015 0 -25.01552924 0 859.36812194 0 32608
0.17250000 0.17250900 8149.83369995 0 82.09914714 0 1344.10888456 0 108.74275318 0 1252.30704742 0 32361
0.17350000 0.17350400 8072.06222695 0 -1.82093053 0 1327.71609547 0 -21.98885251 0 915.06478566 0 32508
0.17450000 0.17449800 8046.31955883 0 49.30425235 0 1300.69793971 0 -137.75266610 0 766.00464427 0 32791
0.17550000 0.17549800 8062.85653348 0 50.38331490 0 1276.36385360 0 196.63250334 0 755.92274625 0 33633
0.17650000 0.17650100 7792.54188146 0 115.66565649 0 1706.44719767 0 -31.12910791 0 1111.81485568 0 33984
0.17750000 0.17750300 7931.20402570 0 186.13690366 0 1241.42658322 0 -163.59182763 0 847.86987807 0 34069
0.17850000 0.17849800 7609.02693675 0 158.76493872 0 2076.61589581 0 -213.48114062 0 564.17591517 0 34536
