### header ###
fiducial parameters:
Omega_m = 0.31
Omega_nu = 0
Omega_de = 0.69
Omega_k = 0
H_0 = 100
w_de = -1
zeff = 0
beta = 0
fgrowth = 0
b_1 = 2
gamma = 0.55
Lx = 3500 Ly = 3500 Lz = 3500
nx = 700 ny = 700 nz = 700
xoffset = 1379.75464 yoffset = 22.6059522 zoffset = 368.141391
bins = 400 dk = 0.001
kx_ny = 0.628318531 ky_ny = 0.628318531 kz_ny = 0.628318531
############################
A(data) = 3.38574937 (not used)
A(ran) = 3.39101514 (used)
Ngal = 190239
weighted Ngal = 0
Nran = 9399747
weighted Nran = 0
SN(data) = 6593.09332
SN(ran) = 134.878926
SN(data+ran) = 6727.97225
############################
13 columns: k_central k_mean P_0(k) sigma^{lin}_{P_0(k)} P^img_1(k) sigma^{lin}_{P_1(k)} P_2(k) sigma^{lin}_{P_2(k)} P^img_3(k) sigma^{lin}_{P_3(k)} P_4(k) sigma^{lin}_{P_4(k)} N_modes
### header ###
0.00050000 0 0 0 0 0 0 0 0 0 0 0 0
0.00150000 0.00179520 21490.63594278 0 -23366.04643476 0 -26090.82078903 0 43822.65008606 0 65704.47254521 0 3
0.00250000 0.00253879 22952.78843647 0 -20488.54629851 0 -5920.54747814 0 -26208.60930062 0 -43327.98270217 0 6
0.00350000 0.00331552 48669.28132850 0 -19814.64517194 0 -32631.07780546 0 9444.38711655 0 -10147.82410059 0 7
0.00450000 0.00420575 63081.29355499 0 -11245.80823368 0 -13339.38256963 0 -27347.23157932 0 -10080.09016083 0 24
0.00550000 0.00557378 63947.29421270 0 7974.89225048 0 813.48384017 0 -38627.20069961 0 14163.90215076 0 45
0.00650000 0.00659388 78804.61799666 0 -8568.26019602 0 2943.37075492 0 10022.85958458 0 -5862.64033888 0 40
0.00750000 0.00754703 73272.21804692 0 -10577.63016473 0 395.56088444 0 19899.82556450 0 -9226.71128524 0 57
0.00850000 0.00846663 98905.08331396 0 -9221.72024661 0 -4672.26653521 0 -16352.30622061 0 -25858.46021296 0 75
0.00950000 0.00948925 97219.22137783 0 -1806.71161808 0 13025.39078402 0 -28059.28642340 0 -22842.43102683 0 112
0.01050000 0.01054430 111924.59576360 0 3151.07560017 0 17155.30887966 0 -20486.21714715 0 -43102.72049215 0 105
0.01150000 0.01145670 99015.55163556 0 4266.55055085 0 38913.90814072 0 -17967.96088006 0 -22225.20591667 0 144
0.01250000 0.01249090 114628.62957958 0 1248.40294610 0 36356.61086037 0 4392.95692246 0 -51684.42321887 0 169
0.01350000 0.01339930 116713.77460584 0 -2536.50128607 0 69854.79844323 0 4207.07955281 0 -1303.20455022 0 180
0.01450000 0.01448870 110878.25224350 0 4580.67543081 0 35604.29497137 0 4773.70662250 0 -9872.15240045 0 267
0.01550000 0.01550050 102214.58557134 0 5729.75670824 0 66277.00013168 0 22870.38084314 0 -2578.15982181 0 238
0.01650000 0.01653350 102060.08519785 0 2355.77023180 0 41194.36914524 0 1722.88435154 0 17127.24815138 0 315
0.01750000 0.01747870 99230.49903242 0 7610.13605645 0 72353.86693961 0 21040.55517063 0 15453.36470796 0 297
0.01850000 0.01844180 88476.36355945 0 9177.33327643 0 66838.21469726 0 4923.34905173 0 35062.04635257 0 388
0.01950000 0.01947590 83933.18746552 0 2456.01246982 0 45325.06362467 0 11657.84620031 0 24008.67038594 0 399
0.02050000 0.02045430 80467.07750723 0 -1763.45594998 0 59222.22248882 0 16647.11023550 0 35327.12595963 0 462
0.02150000 0.02154770 81129.22196504 0 1248.04802780 0 39494.08865308 0 13730.12543811 0 19390.85053655 0 571
0.02250000 0.02255340 79908.30300498 0 4630.38617553 0 40432.62573884 0 5136.58840425 0 32202.29213144 0 510
0.02350000 0.02348930 68501.00694373 0 2831.15002420 0 30252.23788400 0 4794.48043438 0 25611.45925693 0 555
0.02450000 0.02439640 68144.53587382 0 4861.07198086 0 36460.53537577 0 -1858.03058636 0 11241.03901899 0 592
0.02550000 0.02547300 62944.09544874 0 1755.70320331 0 25124.11206302 0 8692.85870253 0 3602.88659905 0 837
0.02650000 0.02652900 58172.88434555 0 1744.73400953 0 25636.41445006 0 4753.80901517 0 -187.76509138 0 723
0.02750000 0.02749970 54857.50375379 0 3060.95962497 0 17115.15874671 0 -7823.61941531 0 -1528.64421939 0 826
0.02850000 0.02848090 53010.04307812 0 -365.44606649 0 16907.19880393 0 6998.17926483 0 -3889.53858418 0 831
0.02950000 0.02946900 52972.00027259 0 -1993.45410109 0 9401.91892343 0 2928.98547248 0 -7476.97514589 0 996
0.03050000 0.03053250 56285.60627284 0 -1257.14280929 0 5397.79718358 0 3084.25113856 0 -9736.09668748 0 1041
0.03150000 0.03150510 59330.02892316 0 -2098.43228021 0 5854.84322742 0 2955.43797720 0 -10849.96341460 0 1036
0.03250000 0.03246190 58760.16322396 0 1782.93209182 0 8261.36677646 0 -10049.76682838 0 -7187.82764145 0 1059
0.03350000 0.03345080 58511.83132429 0 1446.66918274 0 10411.75022317 0 -1219.55474284 0 -14297.32925005 0 1302
0.03450000 0.03451200 56578.63569621 0 1651.00230412 0 19434.10620465 0 -4110.80796330 0 -382.00966001 0 1339
0.03550000 0.03553350 55289.06222704 0 1920.59602834 0 21099.33851445 0 21.07105596 0 -4380.67896744 0 1365
0.03650000 0.03647120 54047.84637657 0 1044.08757064 0 25305.45313313 0 3059.30703662 0 2975.29121974 0 1308
0.03750000 0.03744890 50630.87042076 0 1513.18309084 0 23764.88587702 0 3597.00826467 0 3525.29258520 0 1579
0.03850000 0.03847530 52638.93162823 0 1253.06124882 0 26933.64084512 0 4390.11757605 0 13748.42591308 0 1662
0.03950000 0.03950240 50161.49096591 0 -130.20621569 0 21240.41853963 0 4981.48910613 0 13149.16854197 0 1683
0.04050000 0.04050350 49332.64581797 0 83.17954063 0 19439.87362706 0 7239.14660973 0 17271.43371171 0 1822
0.04150000 0.04152450 48899.64548911 0 252.66855768 0 12905.27312107 0 3995.60370060 0 20619.64424644 0 1887
0.04250000 0.04250150 48267.11452715 0 1138.76646426 0 15735.96840620 0 2266.21990764 0 20884.28020563 0 1920
0.04350000 0.04349210 47896.55763711 0 1039.00891155 0 14070.07062458 0 602.02240651 0 20128.63695754 0 2005
0.04450000 0.04448520 44547.90345451 0 862.46145677 0 13211.83380472 0 -550.95077192 0 13592.48368399 0 2151
0.04550000 0.04548030 43649.62741367 0 2108.90237013 0 15761.25633524 0 -3427.16876580 0 15087.90976851 0 2274
0.04650000 0.04648670 42470.07861823 0 1371.01612836 0 17544.60989255 0 -1334.96973828 0 11820.66497151 0 2311
0.04750000 0.04749250 41051.07088067 0 296.29356263 0 18859.02764288 0 1282.87438621 0 9845.14533588 0 2568
0.04850000 0.04851840 40836.45621972 0 786.99584362 0 19057.00550841 0 191.28987377 0 6240.82797242 0 2493
0.04950000 0.04949480 39530.35686710 0 727.03239643 0 18516.97512900 0 2.85886693 0 3961.55372597 0 2644
0.05050000 0.05050630 39549.98828570 0 589.52040931 0 19902.15471586 0 1341.10317019 0 6670.58967177 0 2829
0.05150000 0.05149060 36195.34485674 0 255.79516610 0 17342.19554824 0 2022.89013780 0 2311.60508555 0 2784
0.05250000 0.05249300 38952.50550610 0 -13.88728770 0 15922.07869099 0 1756.41303992 0 3809.99251967 0 3055
0.05350000 0.05348950 37027.73918770 0 689.26576171 0 14322.17353121 0 78.83766976 0 -671.92356616 0 3009
0.05450000 0.05448610 35283.87029153 0 1993.26555075 0 15147.46949613 0 -1567.79614462 0 -28.36529255 0 3336
0.05550000 0.05550870 34382.59962752 0 1346.97041338 0 16039.53446667 0 -1881.47737671 0 -254.83023196 0 3349
0.05650000 0.05647670 31397.73670481 0 449.10141947 0 17319.90224237 0 2500.04452170 0 -741.02837786 0 3324
0.05750000 0.05747970 32250.09519029 0 -271.88405639 0 14123.08654599 0 1832.50974218 0 251.52838263 0 3639
0.05850000 0.05849280 32503.75086449 0 -847.10125812 0 12758.86932136 0 4312.78975092 0 80.43458030 0 3846
0.05950000 0.05951020 33044.77945163 0 229.50015637 0 12695.53858678 0 1986.04518153 0 3879.14613264 0 3787
0.06050000 0.06049470 32415.24311284 0 1031.04432302 0 10913.38287875 0 20.55187703 0 4760.84083404 0 3930
0.06150000 0.06148310 30980.15313971 0 451.22649280 0 11636.88383808 0 723.61298042 0 6429.61123567 0 4083
0.06250000 0.06249100 31809.22011159 0 -147.22233005 0 11910.83640270 0 1541.41018708 0 6992.54493678 0 4303
0.06350000 0.06350600 30404.85275401 0 612.34941999 0 11983.26191877 0 416.23598467 0 7261.26245644 0 4470
0.06450000 0.06451750 29795.16965777 0 1079.80122481 0 12569.65350142 0 -205.21154418 0 7424.65796988 0 4479
0.06550000 0.06550280 29240.05525051 0 562.76955139 0 11722.39696655 0 -264.14018268 0 9090.27847158 0 4636
0.06650000 0.06648880 28372.05817734 0 205.91916254 0 12861.90654101 0 371.50740562 0 6417.12254791 0 4653
0.06750000 0.06749660 29351.74360378 0 -444.13921795 0 9813.25814465 0 2483.26354072 0 5103.81391727 0 5220
0.06850000 0.06852730 28507.25986814 0 -309.70614710 0 10532.81063786 0 -429.34134299 0 3894.20797810 0 5029
0.06950000 0.06949320 29575.89669410 0 191.48175147 0 9585.43386814 0 -1358.71599095 0 1664.44483482 0 5040
0.07050000 0.07048030 29063.59430706 0 294.07088677 0 9706.86029233 0 -231.39896929 0 1698.84972776 0 5475
0.07150000 0.07148790 29168.18429428 0 -496.72591004 0 8874.39941418 0 757.76832142 0 -1438.06241391 0 5509
0.07250000 0.07249820 29346.41982924 0 352.07230121 0 8861.89963522 0 349.71985833 0 -1082.98328921 0 5916
0.07350000 0.07351270 28912.86494054 0 -156.96040097 0 8307.48397337 0 1352.98184212 0 -2266.96301784 0 5721
0.07450000 0.07449140 29530.31187464 0 -190.89502715 0 8955.09896318 0 435.07438269 0 128.11885243 0 6028
0.07550000 0.07549160 29307.82246386 0 420.58151564 0 6469.93882778 0 235.08568316 0 -1249.96680487 0 6183
0.07650000 0.07648840 28635.47410486 0 667.83867832 0 7711.17686065 0 -58.73143702 0 -1567.95142137 0 6330
0.07750000 0.07749960 27674.31097733 0 708.85725200 0 8167.80143900 0 -1225.23343567 0 -483.36545420 0 6583
0.07850000 0.07848650 26734.33203597 0 790.96649212 0 8577.39934230 0 -818.53144390 0 -1211.30289231 0 6549
0.07950000 0.07947320 26105.68299294 0 832.14034255 0 9617.76470724 0 -696.28427114 0 -2340.35346804 0 6828
0.08050000 0.08048110 25212.95255058 0 556.81025127 0 9741.90847468 0 -211.03885905 0 -3455.69532435 0 7147
0.08150000 0.08149960 24522.85827646 0 259.31329377 0 10406.08262153 0 505.19403891 0 -3439.56872399 0 7386
0.08250000 0.08250610 24139.43559796 0 475.14465902 0 9071.80053747 0 1077.93568548 0 -2488.24348815 0 7227
0.08350000 0.08350160 22768.89639107 0 123.70677428 0 8471.31204349 0 1669.14750233 0 -2522.74820186 0 7798
0.08450000 0.08449610 23379.35587110 0 303.23997928 0 6762.95715995 0 1141.82763462 0 -1647.95222496 0 7371
0.08550000 0.08548940 22441.92790503 0 261.23539820 0 6377.78207233 0 1320.76191499 0 -1267.98999991 0 8256
0.08650000 0.08650700 21775.56879238 0 437.02532423 0 6597.36558951 0 125.50243907 0 819.43870381 0 8037
0.08750000 0.08749060 21591.12218714 0 539.48580164 0 6083.37734054 0 417.54807327 0 1330.23379718 0 8155
0.08850000 0.08849210 20161.91054839 0 328.36043125 0 5454.42883520 0 -175.72337885 0 1447.35683696 0 8718
0.08950000 0.08949900 20626.63170052 0 -31.26896791 0 5950.51589230 0 1577.62294511 0 3039.13214937 0 8571
0.09050000 0.09049190 20337.81693199 0 176.02949588 0 6068.16021833 0 857.59574867 0 3414.13660939 0 8932
0.09150000 0.09150830 19807.76862983 0 192.18382424 0 4346.24080092 0 799.00428255 0 3444.04956756 0 9285
0.09250000 0.09250820 19979.34944662 0 16.74071994 0 5429.60673643 0 77.03701394 0 3758.24099471 0 9204
0.09350000 0.09350330 19377.76292415 0 543.21244381 0 5254.86492851 0 -642.03279038 0 3563.41302912 0 9349
0.09450000 0.09448040 18769.29985957 0 842.49286579 0 6314.49570255 0 -1501.68151961 0 2835.96360368 0 9564
0.09550000 0.09549270 17597.18216608 0 745.30292517 0 6957.67421357 0 -1301.19704357 0 1516.43281155 0 10155
0.09650000 0.09649430 17393.32596617 0 242.46687472 0 7958.73237653 0 -288.12156872 0 1157.21112479 0 9913
0.09750000 0.09749140 17323.00777752 0 -293.32555833 0 7679.92186765 0 234.76847492 0 428.60045103 0 10476
0.09850000 0.09850240 17913.17036714 0 -380.61993303 0 6964.75039723 0 1047.89850591 0 -304.71954496 0 10575
0.09950000 0.09950330 17929.69625059 0 102.10422816 0 6668.42688836 0 465.27571198 0 -858.98325741 0 10882
0.10050000 0.10051200 17855.60705497 0 423.94214831 0 6329.81264553 0 -992.21404251 0 -926.72163365 0 10875
0.10150000 0.10150300 17379.35105802 0 272.23342909 0 7567.12439468 0 -261.70233759 0 -1084.92203044 0 11118
0.10250000 0.10250800 17029.64561824 0 208.27826013 0 6601.51369717 0 40.79231326 0 -987.82081940 0 11575
0.10350000 0.10349800 17053.26986774 0 -33.50118221 0 7431.19068488 0 69.62831620 0 -1869.85380230 0 11364
0.10450000 0.10450100 16814.25457351 0 179.91806953 0 6076.30115689 0 587.56392217 0 -1925.37633423 0 12093
0.10550000 0.10551000 16569.58276883 0 236.94345864 0 6397.39130854 0 563.12668793 0 -1601.28046820 0 12067
0.10650000 0.10649700 16027.88870988 0 181.74146231 0 5445.84424876 0 737.60230713 0 -49.22317570 0 12054
0.10750000 0.10749900 16233.07585342 0 22.84609112 0 5096.12771778 0 1341.00334942 0 -145.94573328 0 12807
0.10850000 0.10850100 16011.14100248 0 10.92623758 0 4528.29170763 0 442.85485735 0 584.03026682 0 12736
0.10950000 0.10950300 15558.95290291 0 275.10937646 0 4488.08611869 0 10.25519798 0 713.20056472 0 12933
0.11050000 0.11050200 15436.50608860 0 383.73434113 0 4723.43022673 0 -74.32188893 0 1350.63050837 0 13428
0.11150000 0.11150900 15175.19748850 0 82.23124329 0 5121.37128204 0 -124.75267415 0 1923.81247546 0 13453
0.11250000 0.11250000 15366.74245979 0 -139.29101511 0 5295.61398610 0 323.47808635 0 1138.78864666 0 13668
0.11350000 0.11349100 15264.70344787 0 5.02717375 0 4884.75168635 0 190.10866129 0 1554.76398820 0 13791
0.11450000 0.11448600 15585.68268755 0 13.31076728 0 5181.50775189 0 -112.79636384 0 1393.97490604 0 14205
0.11550000 0.11549300 15375.83724129 0 251.45961721 0 5507.02329113 0 -298.33101551 0 1876.00941661 0 14776
0.11650000 0.11649800 15057.07624100 0 118.52496707 0 5674.43381786 0 229.35486169 0 1296.09509298 0 14553
0.11750000 0.11747300 15167.65547457 0 88.68465624 0 5486.91495106 0 -182.45684452 0 610.65468510 0 14568
0.11850000 0.11849100 14763.93590566 0 278.72843403 0 5534.49618597 0 -54.35884354 0 706.44491666 0 16015
0.11950000 0.11950300 14490.98154876 0 395.26253124 0 5571.67387814 0 -532.99856054 0 -232.35835783 0 15270
0.12050000 0.12050700 13985.11205595 0 246.55952640 0 5923.12063583 0 -394.81999248 0 -367.60995901 0 15999
0.12150000 0.12150000 14105.34063087 0 -27.02769420 0 5799.81979936 0 164.13307804 0 -1365.51489467 0 15670
0.12250000 0.12250700 14091.14389878 0 -199.79349447 0 5345.42455159 0 213.70074632 0 -1564.11386723 0 16887
0.12350000 0.12352200 14161.68391137 0 25.15028729 0 5082.75173427 0 273.13625253 0 -2091.35609656 0 16407
0.12450000 0.12449800 14024.70762906 0 274.50934271 0 4887.10302010 0 -55.11426496 0 -1959.47067365 0 16306
0.12550000 0.12549900 13684.65153063 0 312.58653095 0 4897.22928291 0 218.55425410 0 -1488.91555192 0 17523
0.12650000 0.12650100 13404.70971965 0 106.49911495 0 4904.40528734 0 486.42662456 0 -956.69115692 0 17154
0.12750000 0.12750600 13150.49948560 0 107.62853154 0 4362.58922522 0 799.63315342 0 -940.80967201 0 18007
0.12850000 0.12850300 13060.66079032 0 108.37951648 0 4175.15908799 0 580.67739798 0 -265.44561656 0 17496
0.12950000 0.12949900 12738.68334291 0 214.61355183 0 4184.85279412 0 -94.01686008 0 56.81077445 0 18405
0.13050000 0.13049000 12713.17358993 0 20.04512024 0 3641.79451795 0 337.25557120 0 453.86619768 0 18100
0.13150000 0.13148800 12265.64379307 0 143.43690453 0 3797.51492310 0 161.83387291 0 722.00364774 0 19059
0.13250000 0.13249300 12473.49282388 0 156.07199610 0 3895.96038721 0 89.41212785 0 748.89758210 0 18957
0.13350000 0.13349100 12400.40183599 0 -108.05110614 0 3635.22852936 0 507.74834157 0 994.55317595 0 19468
0.13450000 0.13450700 12350.38053775 0 12.36047353 0 3310.06790842 0 700.02311363 0 1515.44569502 0 19953
0.13550000 0.13551000 12348.60594624 0 -24.38943118 0 3061.84692072 0 419.61879974 0 2400.47884670 0 19956
0.13650000 0.13649900 12485.80405249 0 -33.55663819 0 3057.52135391 0 239.38241285 0 2174.68425923 0 19723
0.13750000 0.13749600 12217.84073422 0 174.97139570 0 2880.32839147 0 88.45684305 0 2204.75249416 0 20946
0.13850000 0.13851100 12271.96577533 0 346.48455618 0 2833.68990830 0 -496.08483886 0 2468.84498469 0 20955
0.13950000 0.13949800 11733.48816349 0 214.12775740 0 3872.09213138 0 -515.95471819 0 1921.88260719 0 20506
0.14050000 0.14048300 11727.60982911 0 194.22349536 0 3477.38970559 0 -423.97874926 0 1349.27738234 0 21447
0.14150000 0.14148400 11430.36575090 0 159.25073314 0 4011.16464992 0 -372.85942253 0 375.03440625 0 21771
0.14250000 0.14249400 11409.18156473 0 -93.54038226 0 3659.52934187 0 182.44908068 0 -31.98900841 0 22470
0.14350000 0.14350900 11465.08119735 0 -89.79144678 0 3645.27715379 0 238.05590570 0 -723.54421499 0 22519
0.14450000 0.14449900 11479.49975338 0 52.77845889 0 2960.16282710 0 246.05709518 0 -590.89571773 0 22218
0.14550000 0.14550500 11440.23691618 0 -39.08060883 0 2693.36408451 0 186.18792317 0 -753.69452478 0 23559
0.14650000 0.14650700 11302.04060221 0 210.20480104 0 2966.32953261 0 263.37932657 0 -932.56558532 0 23044
0.14750000 0.14750500 11105.94824016 0 204.92760953 0 2576.34086551 0 -219.94730844 0 -602.45163583 0 23649
0.14850000 0.14849900 10782.92822024 0 262.74380099 0 3001.03388786 0 172.10432128 0 -263.02551739 0 23640
0.14950000 0.14949500 10397.19857278 0 302.44141310 0 2790.20132507 0 -35.36039955 0 39.09025817 0 24457
0.15050000 0.15050000 10056.24408739 0 178.44294034 0 3369.09525858 0 218.21929996 0 466.70536726 0 24591
0.15150000 0.15149900 10073.35780428 0 184.81261475 0 3007.53332927 0 80.22151841 0 537.13224965 0 25020
0.15250000 0.15250500 9718.28422518 0 198.02555767 0 3568.49279732 0 -78.10731444 0 810.57683745 0 25297
0.15350000 0.15350100 9351.67580126 0 239.97024629 0 3325.47358099 0 -4.12024657 0 991.70384745 0 25452
0.15450000 0.15450400 9267.87071712 0 79.74260052 0 3380.21972912 0 46.23631637 0 1063.15888379 0 26061
0.15550000 0.15549900 9140.59923214 0 -15.90644010 0 3323.18879441 0 350.39087575 0 828.60114161 0 26128
0.15650000 0.15649500 9228.43042077 0 37.03483755 0 3045.82014113 0 228.48198449 0 955.44117903 0 26331
0.15750000 0.15749700 9144.19277995 0 89.97112417 0 3036.71426844 0 7.43050303 0 664.76752589 0 27345
0.15850000 0.15849900 9152.15625936 0 -53.14247197 0 2580.51115556 0 177.07206840 0 1219.06673017 0 26980
0.15950000 0.15949700 9263.68933587 0 -150.54303442 0 2595.16262673 0 538.32677156 0 639.84227899 0 27777
0.16050000 0.16050000 9211.29452148 0 127.10289879 0 2428.26229506 0 -127.62196680 0 837.28111234 0 28224
0.16150000 0.16150500 9185.49639738 0 199.08143962 0 2498.69139568 0 -231.85592660 0 603.45206180 0 28075
0.16250000 0.16249700 8972.47886879 0 54.19391744 0 2593.26603205 0 -16.61461303 0 773.33814369 0 28590
0.16350000 0.16349900 8911.65474473 0 67.46131814 0 2591.16979583 0 239.26595529 0 1106.14281756 0 29163
0.16450000 0.16449100 8892.28951486 0 137.58740726 0 2861.17389434 0 51.15415309 0 1055.58026891 0 28996
0.16550000 0.16550500 8689.37606669 0 165.72910128 0 2691.20130111 0 -11.22207307 0 1309.01633742 0 30777
0.16650000 0.16650700 8480.12954507 0 171.28468183 0 2985.27329699 0 -103.36307902 0 1327.17262682 0 29211
0.16750000 0.16749900 8210.83528316 0 239.83493369 0 3306.05289513 0 -354.64878626 0 1443.30855007 0 30922
0.16850000 0.16850800 8166.00466510 0 6.50119382 0 3247.94611432 0 257.59748560 0 1306.19917340 0 30867
0.16950000 0.16949900 8144.80938773 0 -142.21021815 0 3152.39545261 0 411.28598347 0 1376.89446274 0 30852
0.17050000 0.17049200 8329.72182325 0 -82.86543794 0 2767.80819843 0 271.25296728 0 924.67419869 0 31257
0.17150000 0.17149500 8430.07497324 0 -16.04352730 0 2331.12559218 0 -0.41291306 0 1058.52941818 0 32608
0.17250000 0.17250900 8432.04920630 0 -23.77708619 0 2265.39915907 0 114.29922103 0 965.56411448 0 32361
0.17350000 0.17350400 8462.91600740 0 84.78244042 0 2134.48976149 0 -108.78689615 0 404.03566803 0 32508
0.17450000 0.17449800 8371.90164525 0 165.51725942 0 2339.38853391 0 -296.13163116 0 57.57262877 0 32791
0.17550000 0.17549800 8073.69263290 0 254.06604849 0 2504.12608218 0 -467.96976372 0 -367.39257155 0 33633
0.17650000 0.17650100 7876.94589023 0 66.88679414 0 2596.81521508 0 174.35361603 0 38.34914439 0 33984
0.17750000 0.17750300 7870.69045515 0 -118.34418056 0 2208.10203563 0 504.95668730 0 -106.84227659 0 34069
