### header ###
fiducial parameters:
Omega_m = 0.31
Omega_nu = 0
Omega_de = 0.69
Omega_k = 0
H_0 = 100
w_de = -1
zeff = 0
beta = 0
fgrowth = 0
b_1 = 2
gamma = 0.55
Lx = 3500 Ly = 3500 Lz = 3500
nx = 700 ny = 700 nz = 700
xoffset = 1379.75464 yoffset = 22.6059522 zoffset = 368.141391
bins = 400 dk = 0.001
kx_ny = 0.628318531 ky_ny = 0.628318531 kz_ny = 0.628318531
############################
A(data) = 3.34773086 (not used)
A(ran) = 3.3438422 (used)
Ngal = 187679
weighted Ngal = 0
Nran = 9399747
weighted Nran = 0
SN(data) = 6599.99798
SN(ran) = 133.002604
SN(data+ran) = 6733.00058
############################
13 columns: k_central k_mean P_0(k) sigma^{lin}_{P_0(k)} P^img_1(k) sigma^{lin}_{P_1(k)} P_2(k) sigma^{lin}_{P_2(k)} P^img_3(k) sigma^{lin}_{P_3(k)} P_4(k) sigma^{lin}_{P_4(k)} N_modes
### header ###
0.00050000 0 0 0 0 0 0 0 0 0 0 0 0
0.00150000 0.00179520 12217.72982225 0 -20150.48661553 0 -28400.22981759 0 25042.70267742 0 53797.51806145 0 3
0.00250000 0.00253879 24273.52816906 0 -24477.71710488 0 -29309.70796734 0 -17735.04574415 0 -27689.61682912 0 6
0.00350000 0.00331552 47839.10523692 0 -30485.04210795 0 -71599.66554713 0 14198.95033311 0 -3221.37160643 0 7
0.00450000 0.00420575 72030.55854857 0 -33049.54866631 0 -84272.02353229 0 -10568.80157196 0 -14444.50943355 0 24
0.00550000 0.00557378 98102.19156688 0 -7482.73147710 0 -96362.09367767 0 -55499.46223315 0 -13483.45721798 0 45
0.00650000 0.00659388 102073.39463419 0 4183.65494485 0 -66110.29944155 0 -80240.92800146 0 -53621.61167785 0 40
0.00750000 0.00754703 78642.02104940 0 15637.92222518 0 -42897.20061270 0 -53898.78068958 0 -1791.68304621 0 57
0.00850000 0.00846663 61512.66557060 0 14503.62551328 0 -21152.57625980 0 -32232.34927517 0 -41004.04420561 0 75
0.00950000 0.00948925 50000.11405031 0 2634.09272802 0 -2649.76458931 0 -9669.66041776 0 -16032.99066047 0 112
0.01050000 0.01054430 50916.69056611 0 986.49653048 0 1370.35065654 0 8010.20662157 0 -19691.75470975 0 105
0.01150000 0.01145670 49658.72700825 0 -1984.19295164 0 1283.95023232 0 13058.10981502 0 3675.28993273 0 144
0.01250000 0.01249090 58785.45115300 0 -6218.46811937 0 -8148.03692604 0 18285.72367263 0 23751.35461674 0 169
0.01350000 0.01339930 55066.12916838 0 -1844.48823488 0 -2293.19369862 0 3689.45339124 0 33013.83501214 0 180
0.01450000 0.01448870 66320.14488781 0 1793.67946166 0 -2653.24722515 0 465.51195447 0 27592.45794385 0 267
0.01550000 0.01550050 60878.24910516 0 2328.03114823 0 9705.24097757 0 -10120.18483780 0 15520.79918540 0 238
0.01650000 0.01653350 58104.22983644 0 5141.16906859 0 25708.06358235 0 -11902.18526908 0 28480.75190743 0 315
0.01750000 0.01747870 64413.23539650 0 -492.89833798 0 43996.22731830 0 -6744.26849309 0 15394.58136413 0 297
0.01850000 0.01844180 60187.04571135 0 -919.06316216 0 45334.49114207 0 2273.34045608 0 11364.15130512 0 388
0.01950000 0.01947590 67706.10085846 0 -333.48012776 0 45424.10801342 0 -5588.80977742 0 -11177.48646048 0 399
0.02050000 0.02045430 68113.70234630 0 1311.93332222 0 55279.63470964 0 434.47878541 0 125.79302843 0 462
0.02150000 0.02154770 68625.45017349 0 1443.28636768 0 56701.52615840 0 -2763.37171965 0 -2799.16301220 0 571
0.02250000 0.02255340 67797.71414525 0 -114.80719785 0 49723.72142236 0 7310.21899977 0 -4866.51775856 0 510
0.02350000 0.02348930 72122.83730718 0 1103.60958818 0 56978.02969832 0 5329.15376567 0 -4259.60746156 0 555
0.02450000 0.02439640 61913.83416422 0 3136.45740259 0 46531.12038082 0 11437.24229301 0 -12267.52929655 0 592
0.02550000 0.02547300 64260.28779058 0 2759.91126620 0 48158.64262100 0 12498.11528110 0 5034.18338283 0 837
0.02650000 0.02652900 58738.09174203 0 -346.18620299 0 42973.72987164 0 4762.46014879 0 12686.33289332 0 723
0.02750000 0.02749970 61340.08654608 0 -1710.26256942 0 36395.54096165 0 18487.80528102 0 17666.61305898 0 826
0.02850000 0.02848090 60308.16158202 0 -754.28679470 0 26739.87763444 0 6310.86888114 0 16270.34227516 0 831
0.02950000 0.02946900 59647.79171572 0 1467.95318969 0 26001.64756557 0 1159.86192086 0 20598.90370815 0 996
0.03050000 0.03053250 59709.90241863 0 3340.62415602 0 27516.92689263 0 -2881.45969356 0 19044.91610373 0 1041
0.03150000 0.03150510 56158.83389172 0 712.00937017 0 27509.16305477 0 -6411.14439275 0 5879.83169415 0 1036
0.03250000 0.03246190 56509.98118710 0 920.57267406 0 34363.19003286 0 3728.28367175 0 13281.81925747 0 1059
0.03350000 0.03345080 55567.00762256 0 -136.37181208 0 29323.23922762 0 -353.57848575 0 -6945.35189376 0 1302
0.03450000 0.03451200 57323.40957129 0 -1180.05899050 0 21641.14348537 0 6725.43564068 0 -1329.20231587 0 1339
0.03550000 0.03553350 55903.73636191 0 -322.14159712 0 24125.90433768 0 100.28693554 0 -8748.96906789 0 1365
0.03650000 0.03647120 56356.81175725 0 1424.97480151 0 19094.82649000 0 -1273.67978394 0 -5757.02996154 0 1308
0.03750000 0.03744890 55792.49165652 0 1157.34421915 0 19457.39771824 0 513.33165012 0 -11713.85674490 0 1579
0.03850000 0.03847530 52240.09218598 0 2515.55001504 0 20997.52132647 0 -2758.15885708 0 -11737.03734652 0 1662
0.03950000 0.03950240 49057.91686956 0 3102.48506634 0 20494.09189699 0 761.78777119 0 -8141.94785892 0 1683
0.04050000 0.04050350 44785.47689314 0 2118.48516429 0 22957.33582722 0 -495.11879561 0 -11753.45231800 0 1822
0.04150000 0.04152450 43413.05218276 0 1982.89528160 0 21474.99735509 0 2240.02250045 0 -8057.81003887 0 1887
0.04250000 0.04250150 41938.58846047 0 587.35429855 0 26475.57441116 0 1674.27163532 0 -7223.88512273 0 1920
0.04350000 0.04349210 39228.89813405 0 730.00594634 0 19864.11191033 0 2094.50599649 0 -4853.25268701 0 2005
0.04450000 0.04448520 40731.08984871 0 296.36787365 0 22458.89743636 0 988.58611199 0 -2548.19140766 0 2151
0.04550000 0.04548030 39245.20219356 0 43.30846220 0 21153.01990768 0 732.04007186 0 -3208.99383064 0 2274
0.04650000 0.04648670 40336.79779720 0 315.87174349 0 21837.34675939 0 3703.69448812 0 -1648.48460241 0 2311
0.04750000 0.04749250 39443.51279499 0 -67.08011370 0 19248.10683182 0 759.67378905 0 -1150.16821473 0 2568
0.04850000 0.04851840 39219.24879270 0 323.80749490 0 16971.97139411 0 3305.35414972 0 -1348.76718728 0 2493
0.04950000 0.04949480 40845.44008925 0 25.28171797 0 17600.73134910 0 1512.14051833 0 3466.94179806 0 2644
0.05050000 0.05050630 37903.38918676 0 -218.49657988 0 13148.17033424 0 2039.62675399 0 501.72914899 0 2829
0.05150000 0.05149060 40039.11007111 0 1460.16716943 0 19834.94206235 0 -702.06833034 0 5523.99282246 0 2784
0.05250000 0.05249300 36758.11218989 0 1607.55808568 0 15653.78263681 0 -3666.67207270 0 -1170.76456746 0 3055
0.05350000 0.05348950 36377.24048669 0 591.26172723 0 19667.35407647 0 2142.80815920 0 1466.79970521 0 3009
0.05450000 0.05448610 34748.38730287 0 -222.20325790 0 18030.18249494 0 579.25550654 0 2019.86224103 0 3336
0.05550000 0.05550870 35832.10815668 0 204.18006286 0 15610.52696871 0 3626.36666299 0 -597.02249493 0 3349
0.05650000 0.05647670 35990.60136107 0 230.40297980 0 15983.52392208 0 522.20571679 0 129.19026205 0 3324
0.05750000 0.05747970 33825.82154072 0 415.79566415 0 13626.53365862 0 1197.31689295 0 2335.72843892 0 3639
0.05850000 0.05849280 34252.05623944 0 899.79442570 0 14537.01001610 0 859.94264594 0 1643.00555112 0 3846
0.05950000 0.05951020 32176.22781861 0 713.43347986 0 14809.07707724 0 -378.31961878 0 3098.20386432 0 3787
0.06050000 0.06049470 32848.79800155 0 346.33815238 0 12171.36861901 0 2063.18445631 0 -276.20629584 0 3930
0.06150000 0.06148310 32022.94747679 0 -260.25715463 0 13358.34851641 0 -454.58157988 0 449.47186545 0 4083
0.06250000 0.06249100 31359.36116337 0 265.00751428 0 11005.97219087 0 -767.71823420 0 -1431.86243482 0 4303
0.06350000 0.06350600 32026.60757178 0 454.85553245 0 12597.38149379 0 816.50951869 0 -1567.75177983 0 4470
0.06450000 0.06451750 31903.71710959 0 -72.18871902 0 11520.31535815 0 -794.83399250 0 -4457.03076723 0 4479
0.06550000 0.06550280 31046.70032140 0 603.39660581 0 11909.83819497 0 655.45979341 0 -3814.51772802 0 4636
0.06650000 0.06648880 30734.48312731 0 656.43803698 0 11868.35711838 0 -555.29963025 0 -3475.71493485 0 4653
0.06750000 0.06749660 29723.52052548 0 73.58399159 0 12290.82081014 0 860.36411143 0 -2179.81948342 0 5220
0.06850000 0.06852730 29865.70967036 0 170.35413041 0 12040.49249502 0 1051.35785024 0 -1044.66098552 0 5029
0.06950000 0.06949320 29780.75110173 0 177.20072628 0 10798.30061921 0 1129.15039651 0 -1589.72344098 0 5040
0.07050000 0.07048030 29711.32020884 0 641.34291793 0 12183.79075959 0 -1035.39318135 0 -1287.98742801 0 5475
0.07150000 0.07148790 28248.61315531 0 1326.06350713 0 13638.40123935 0 -1498.56489327 0 -2371.23136035 0 5509
0.07250000 0.07249820 26535.68869862 0 1311.23457681 0 13673.00577383 0 -1596.57780070 0 -1501.79243158 0 5916
0.07350000 0.07351270 25773.50164434 0 80.74413561 0 14868.85862879 0 1343.05522085 0 -2208.52350112 0 5721
0.07450000 0.07449140 26121.54340458 0 -219.99389147 0 14420.21971223 0 1732.07895381 0 -3082.56527662 0 6028
0.07550000 0.07549160 26036.58483595 0 1.70787796 0 13284.14840883 0 1492.97493000 0 -1929.25825316 0 6183
0.07650000 0.07648840 25445.09130270 0 407.81111147 0 10529.00635731 0 630.64213112 0 -2578.99166158 0 6330
0.07750000 0.07749960 25341.61043518 0 49.48293154 0 10733.88294734 0 262.49203081 0 -711.11985617 0 6583
0.07850000 0.07848650 24805.35106273 0 104.73195454 0 9380.39091016 0 1695.16745037 0 -2906.94726414 0 6549
0.07950000 0.07947320 24942.43825701 0 159.05330984 0 9697.55477809 0 1202.44102594 0 -910.54623202 0 6828
0.08050000 0.08048110 24367.69243115 0 207.55844145 0 6959.37116671 0 910.20240491 0 -1611.73946692 0 7147
0.08150000 0.08149960 23592.08502856 0 378.74884811 0 7407.82153291 0 161.63866784 0 -1927.78312396 0 7386
0.08250000 0.08250610 23244.15418030 0 657.29427738 0 6889.14170763 0 -322.90688971 0 -1681.94674361 0 7227
0.08350000 0.08350160 22791.63334481 0 146.42598211 0 7484.47279502 0 -155.64054854 0 -1495.20426059 0 7798
0.08450000 0.08449610 22197.81066020 0 405.67827430 0 7246.00096944 0 -77.89491802 0 -971.53672404 0 7371
0.08550000 0.08548940 22114.73759506 0 172.86074092 0 7116.78852499 0 -432.07421391 0 -3715.87262237 0 8256
0.08650000 0.08650700 21848.54886830 0 160.58278590 0 7465.71758098 0 754.27348526 0 -2332.48980941 0 8037
0.08750000 0.08749060 21445.16203530 0 236.15709278 0 8337.70748505 0 451.09339844 0 -2604.36832020 0 8155
0.08850000 0.08849210 21506.71817836 0 304.83600252 0 6519.39447497 0 -27.59323433 0 -2142.61960885 0 8718
0.08950000 0.08949900 21105.99323262 0 -114.00863167 0 7375.79015613 0 668.90121499 0 -2471.26286562 0 8571
0.09050000 0.09049190 20696.39532932 0 94.69309036 0 6364.90519268 0 398.72853029 0 -1618.78237699 0 8932
0.09150000 0.09150830 20966.90962289 0 129.08045920 0 5886.68605386 0 599.88735110 0 -2241.57526802 0 9285
0.09250000 0.09250820 20298.22135888 0 109.90455606 0 5383.13462121 0 679.66633075 0 -2779.66468797 0 9204
0.09350000 0.09350330 20286.57560209 0 519.83885536 0 5078.15997873 0 -516.75772085 0 -1609.75414267 0 9349
0.09450000 0.09448040 19532.04147370 0 464.17768348 0 5010.86968684 0 -263.19077622 0 -3407.52625601 0 9564
0.09550000 0.09549270 19059.00192386 0 366.76037332 0 5090.69303128 0 418.57068163 0 -2402.33107659 0 10155
0.09650000 0.09649430 18053.36309656 0 394.26099616 0 4175.84674220 0 -306.62501259 0 -3442.46352640 0 9913
0.09750000 0.09749140 17780.07600376 0 685.21082010 0 5234.00238705 0 25.41381413 0 -2915.64276255 0 10476
0.09850000 0.09850240 17062.91920908 0 277.41634543 0 5018.13442084 0 82.22647408 0 -3320.69327510 0 10575
0.09950000 0.09950330 16571.24644837 0 253.63238269 0 5046.29496990 0 16.07424991 0 -2319.91239207 0 10882
0.10050000 0.10051200 16516.78867135 0 341.02435993 0 4778.08764529 0 351.13065859 0 -2461.84643942 0 10875
0.10150000 0.10150300 15994.50420706 0 188.16104711 0 5489.87630064 0 -205.44778667 0 -1658.52213565 0 11118
0.10250000 0.10250800 15728.42639227 0 267.81802359 0 5382.74642932 0 129.86571595 0 -718.07847314 0 11575
0.10350000 0.10349800 15619.28901430 0 186.87668650 0 6526.27101708 0 -71.16843981 0 -1689.84367583 0 11364
0.10450000 0.10450100 15529.78305493 0 188.68898808 0 6399.05498808 0 280.30892959 0 -334.75672453 0 12093
0.10550000 0.10551000 15084.47149746 0 191.65255591 0 6243.66731884 0 248.83211265 0 -39.04533882 0 12067
0.10650000 0.10649700 15227.76976203 0 -111.91350457 0 5919.53817922 0 1044.41365183 0 1657.00264167 0 12054
0.10750000 0.10749900 15526.23387191 0 -127.70625990 0 5716.51381908 0 1067.59979905 0 1715.26469924 0 12807
0.10850000 0.10850100 15478.09807715 0 -198.52355242 0 4667.53059411 0 1182.38814186 0 2283.85491079 0 12736
0.10950000 0.10950300 15499.94773514 0 136.74447629 0 4259.58527916 0 311.92216825 0 2197.54321614 0 12933
0.11050000 0.11050200 14868.19315697 0 459.67243928 0 3807.41936198 0 -811.66155651 0 1691.46299059 0 13428
0.11150000 0.11150900 14581.48571586 0 567.34356101 0 5109.89189320 0 -368.84551835 0 2580.42242599 0 13453
0.11250000 0.11250000 13873.42370268 0 272.36319610 0 5228.63424772 0 -680.03234025 0 1172.49479418 0 13668
0.11350000 0.11349100 13529.48568532 0 125.61556928 0 5357.33649711 0 190.52790854 0 846.19067085 0 13791
0.11450000 0.11448600 13795.67441208 0 -6.84441091 0 5243.97337310 0 381.08021770 0 633.96283548 0 14205
0.11550000 0.11549300 13556.21546997 0 -33.80508100 0 4801.81171557 0 82.91723383 0 727.96405698 0 14776
0.11650000 0.11649800 13770.60830697 0 101.14184500 0 5559.73975022 0 93.55136255 0 259.26671074 0 14553
0.11750000 0.11747300 13684.54061866 0 30.79093732 0 4566.54524590 0 426.14818738 0 518.66984321 0 14568
0.11850000 0.11849100 13653.37435523 0 -74.35593890 0 5060.43624601 0 254.66940961 0 1267.26907211 0 16015
0.11950000 0.11950300 13933.31616620 0 -216.43139901 0 3710.74848938 0 764.77130317 0 1268.02327350 0 15270
0.12050000 0.12050700 14114.87906025 0 -253.30297414 0 3692.64765596 0 1027.18680473 0 1628.09898242 0 15999
0.12150000 0.12150000 14436.74559568 0 -4.22925086 0 3202.01746775 0 -18.73990819 0 1506.98311175 0 15670
0.12250000 0.12250700 14384.72788200 0 203.73974234 0 3570.54466875 0 -296.07728429 0 1507.40457723 0 16887
0.12350000 0.12352200 13803.88189782 0 628.67011630 0 3834.42642655 0 -1132.52212038 0 1052.24070951 0 16407
0.12450000 0.12449800 13017.95968207 0 592.91098822 0 4832.53433111 0 -932.54783941 0 897.10148308 0 16306
0.12550000 0.12549900 12760.64391287 0 181.31666947 0 5102.66043279 0 396.19197355 0 637.30572224 0 17523
0.12650000 0.12650100 12485.80405249 0 -103.91852616 0 5011.98989774 0 849.19638522 0 1153.90594810 0 17154
0.12750000 0.12750600 12671.47068941 0 -207.28337977 0 4229.01794037 0 1187.88937555 0 1492.60892050 0 18007
0.12850000 0.12850300 12947.30875751 0 -158.69506417 0 3607.97745845 0 1029.56142999 0 1574.17358286 0 17496
0.12950000 0.12949900 12744.00711745 0 110.32779614 0 2645.08410420 0 21.23454021 0 1551.41444672 0 18405
0.13050000 0.13049000 12551.90758630 0 321.87208104 0 3050.75572378 0 -563.78661415 0 1864.98476684 0 18100
0.13150000 0.13148800 12155.39729540 0 272.01271427 0 3211.89972424 0 -341.17520020 0 1468.21937841 0 19059
0.13250000 0.13249300 11879.33740336 0 214.09226557 0 3683.08704419 0 -135.57879150 0 993.19783168 0 18957
0.13350000 0.13349100 11901.51979726 0 -46.74728781 0 3238.75151205 0 200.52884082 0 933.16672820 0 19468
0.13450000 0.13450700 11876.56460413 0 -44.69752370 0 3333.22632765 0 433.70683810 0 841.01219099 0 19953
0.13550000 0.13551000 11967.62333107 0 159.41599198 0 3043.79045209 0 -287.42171420 0 777.52396142 0 19956
0.13650000 0.13649900 11668.16101347 0 71.51437424 0 3244.35256651 0 83.22734369 0 882.97462553 0 19723
0.13750000 0.13749600 11799.92443321 0 117.29051685 0 3560.65132108 0 29.64887677 0 1096.09641137 0 20946
0.13850000 0.13851100 11636.77292611 0 23.42072604 0 3117.55800299 0 -63.32607627 0 928.08030528 0 20955
0.13950000 0.13949800 11517.32073497 0 156.11857912 0 3744.39918092 0 155.89564606 0 951.72784629 0 20506
0.14050000 0.14048300 11401.08499096 0 337.68480052 0 3604.32845466 0 -547.08105331 0 996.48526245 0 21447
0.14150000 0.14148400 11033.33417374 0 140.09845425 0 4019.87123952 0 13.82650794 0 941.43521552 0 21771
0.14250000 0.14249400 11018.11705153 0 -59.84898603 0 3799.87734805 0 282.14341357 0 887.39003103 0 22470
0.14350000 0.14350900 11103.61908880 0 -45.53036168 0 3418.42890261 0 410.38537828 0 507.77274220 0 22519
0.14450000 0.14449900 11043.42716297 0 257.37787990 0 3529.95088792 0 -67.88622190 0 366.43983773 0 22218
0.14550000 0.14550500 10586.08165681 0 259.79797908 0 3577.27702530 0 -51.67610482 0 964.28086300 0 23559
0.14650000 0.14650700 10127.34975103 0 207.34105399 0 3567.37258643 0 292.91296580 0 881.62149950 0 23044
0.14750000 0.14750500 10093.06686126 0 90.77612325 0 3058.27555531 0 473.23808227 0 1253.27198156 0 23649
0.14850000 0.14849900 10018.19019066 0 69.70894920 0 3179.54670274 0 356.14498873 0 1301.51868828 0 23640
0.14950000 0.14949500 9777.06756901 0 20.72312511 0 2689.49325678 0 283.13607569 0 1434.62414286 0 24457
0.15050000 0.15050000 9864.48838336 0 -3.64455623 0 2855.07373602 0 94.83716501 0 1807.02217159 0 24591
0.15150000 0.15149900 9773.84003070 0 14.92453644 0 2292.36185885 0 -159.93284175 0 779.36510012 0 25020
0.15250000 0.15250500 9954.13852829 0 21.29232534 0 2612.48707637 0 -154.24527596 0 1060.29402762 0 25297
0.15350000 0.15350100 9950.54498048 0 -14.55375772 0 2492.46923419 0 55.88643409 0 318.24636875 0 25452
0.15450000 0.15450400 9901.03387730 0 19.63696420 0 2376.16694299 0 33.85998243 0 450.62313169 0 26061
0.15550000 0.15549900 9902.71973924 0 56.68333660 0 2347.27437494 0 101.38407674 0 -122.13847903 0 26128
0.15650000 0.15649500 9718.86096743 0 184.27912818 0 2465.26252808 0 -131.71461848 0 50.00055770 0 26331
0.15750000 0.15749700 9544.58498978 0 208.33926171 0 2470.68612338 0 -41.30583567 0 -232.78647803 0 27345
0.15850000 0.15849900 9325.56712364 0 113.63153097 0 2607.41839936 0 20.10301629 0 473.73607701 0 26980
0.15950000 0.15949700 9036.76344631 0 190.58447364 0 2295.48957639 0 101.09382012 0 4.49028218 0 27777
0.16050000 0.16050000 9099.63944181 0 18.63842374 0 2576.85106057 0 48.73050474 0 263.27839668 0 28224
0.16150000 0.16150500 8835.28076254 0 34.94614334 0 2189.24700082 0 80.05126853 0 -402.10579976 0 28075
0.16250000 0.16249700 9033.94628228 0 177.09535991 0 2727.01477605 0 -315.17632544 0 -120.92177473 0 28590
0.16350000 0.16349900 8735.22707488 0 8.98409135 0 2231.88156189 0 -71.47178405 0 -380.78519187 0 29163
0.16450000 0.16449100 8865.81482774 0 10.63323034 0 2425.81114053 0 278.99018627 0 -108.99552156 0 28996
0.16550000 0.16550500 8862.88675175 0 -35.55671374 0 2092.88668174 0 120.91955649 0 -432.37478535 0 30777
0.16650000 0.16650700 8801.45261185 0 160.03377165 0 2268.03886394 0 188.60691322 0 -467.43960450 0 29211
0.16750000 0.16749900 8528.45389017 0 244.38343356 0 2338.14631985 0 -250.70985230 0 86.80924575 0 30922
0.16850000 0.16850800 8287.34235971 0 171.61630862 0 2362.03675808 0 -100.11746205 0 81.72925572 0 30867
0.16950000 0.16949900 8174.32306281 0 197.67285761 0 2916.30823437 0 -75.56565575 0 195.44463614 0 30852
0.17050000 0.17049200 7980.03856587 0 102.59124262 0 2977.23217921 0 9.05000634 0 -119.27251374 0 31257
0.17150000 0.17149500 7792.46424308 0 112.62445029 0 2972.69587965 0 -113.21117461 0 22.63624568 0 32608
0.17250000 0.17250900 7863.31480918 0 60.76023877 0 3235.43524416 0 -57.69829203 0 138.19853221 0 32361
0.17350000 0.17350400 7634.79178726 0 100.51818700 0 3142.41337536 0 -33.67986139 0 -254.50858725 0 32508
0.17450000 0.17449800 7894.24815747 0 -103.60786173 0 3025.80053064 0 394.31756126 0 313.82652677 0 32791
0.17550000 0.17549800 7876.54660714 0 -218.90029945 0 2679.84391543 0 537.66684534 0 108.81883879 0 33633
0.17650000 0.17650100 8102.99557524 0 -37.02274815 0 2155.41885013 0 418.23240012 0 560.02448015 0 33984
0.17750000 0.17750300 8248.92245348 0 -38.94973271 0 1938.95195929 0 294.71528531 0 448.38936462 0 34069
