### header ###
fiducial parameters:
Omega_m = 0.31
Omega_nu = 0
Omega_de = 0.69
Omega_k = 0
H_0 = 100
w_de = -1
zeff = 0
beta = 0
fgrowth = 0
b_1 = 2
gamma = 0.55
Lx = 3500 Ly = 3500 Lz = 3500
nx = 700 ny = 700 nz = 700
xoffset = 1379.75464 yoffset = 22.6059522 zoffset = 368.141391
bins = 400 dk = 0.001
kx_ny = 0.628318531 ky_ny = 0.628318531 kz_ny = 0.628318531
############################
A(data) = 3.29892893 (not used)
A(ran) = 3.30547017 (used)
Ngal = 185628
weighted Ngal = 0
Nran = 9399747
weighted Nran = 0
SN(data) = 6677.93916
SN(ran) = 131.476342
SN(data+ran) = 6809.4155
############################
13 columns: k_central k_mean P_0(k) sigma^{lin}_{P_0(k)} P^img_1(k) sigma^{lin}_{P_1(k)} P_2(k) sigma^{lin}_{P_2(k)} P^img_3(k) sigma^{lin}_{P_3(k)} P_4(k) sigma^{lin}_{P_4(k)} N_modes
### header ###
0.00050000 0 0 0 0 0 0 0 0 0 0 0 0
0.00150000 0.00179520 23721.18656104 0 -30453.09946073 0 -52608.31992466 0 52325.16166657 0 28358.85965297 0 3
0.00250000 0.00253879 38573.63021835 0 -27560.29347270 0 -18471.39030954 0 -50296.69265671 0 -21789.43278857 0 6
0.00350000 0.00331552 55483.15817364 0 -13843.69929486 0 -40036.11544794 0 -28949.13315456 0 -11288.17660602 0 7
0.00450000 0.00420575 72993.93991549 0 -12825.74923896 0 -44231.91525345 0 -28799.95655560 0 -10021.46209376 0 24
0.00550000 0.00557378 89565.29727583 0 -5943.68371498 0 -25943.97334143 0 -35551.94452177 0 -1224.49032548 0 45
0.00650000 0.00659388 97886.68961017 0 313.25754837 0 -17201.55917094 0 -19375.65559673 0 -51584.38062240 0 40
0.00750000 0.00754703 94072.20515574 0 9920.04418887 0 22848.86392106 0 -27441.17401748 0 -534.39716048 0 57
0.00850000 0.00846663 78036.33078406 0 9479.46857249 0 33474.45242140 0 -22889.45770189 0 -27548.75862787 0 75
0.00950000 0.00948925 81630.76589104 0 2378.64027991 0 65770.79790296 0 -949.28112824 0 -9544.19679788 0 112
0.01050000 0.01054430 83208.82139283 0 2611.18940632 0 61248.58417126 0 10258.38115177 0 -22664.30640385 0 105
0.01150000 0.01145670 85259.14006068 0 -4671.16850671 0 56553.12594323 0 14673.09900265 0 11629.23091218 0 144
0.01250000 0.01249090 87424.03079301 0 -870.25413175 0 63360.23715823 0 27148.36641804 0 9570.38311388 0 169
0.01350000 0.01339930 91033.54992784 0 -4868.71381556 0 29692.02152615 0 23273.21311630 0 26292.23692561 0 180
0.01450000 0.01448870 102083.93127129 0 1057.55339285 0 45350.57337765 0 8804.53596460 0 27248.40901452 0 267
0.01550000 0.01550050 93938.33440857 0 3233.01736323 0 40529.34097623 0 -513.41261585 0 13180.55662933 0 238
0.01650000 0.01653350 91690.70334702 0 9623.47667367 0 48604.95238620 0 -7744.38390431 0 28263.25353528 0 315
0.01750000 0.01747870 77057.53265338 0 5011.70152661 0 59991.84064506 0 -476.61535174 0 32404.15191590 0 297
0.01850000 0.01844180 85416.19140947 0 -2953.69665928 0 55319.56301865 0 16359.40458666 0 3256.31996801 0 388
0.01950000 0.01947590 83933.29837749 0 1733.73154216 0 55905.17821752 0 9885.30656003 0 1190.70653957 0 399
0.02050000 0.02045430 79999.69446783 0 5719.89663415 0 62405.50692493 0 -13447.29991593 0 4691.74267705 0 462
0.02150000 0.02154770 74990.57719011 0 6579.22039131 0 67238.27417118 0 -2813.45956507 0 5355.57299680 0 571
0.02250000 0.02255340 68278.29570901 0 3198.10227523 0 60738.72184755 0 13145.39753500 0 2462.19026652 0 510
0.02350000 0.02348930 70113.11242016 0 598.03290297 0 65104.43879031 0 9378.98232814 0 1199.39094678 0 555
0.02450000 0.02439640 68715.62160468 0 -551.23137921 0 45054.54933110 0 17504.34884762 0 -8360.54425957 0 592
0.02550000 0.02547300 69381.98071733 0 -1490.94524096 0 47160.76763157 0 11228.50596644 0 11098.51713821 0 837
0.02650000 0.02652900 67885.44551311 0 2270.65638642 0 31536.82031455 0 5008.27434676 0 -388.08430858 0 723
0.02750000 0.02749970 67157.53025740 0 3180.54491046 0 37731.80836998 0 4917.13798143 0 14848.33991443 0 826
0.02850000 0.02848090 60057.83326690 0 2655.49873813 0 33917.87847539 0 -5400.65871239 0 -2004.60075403 0 831
0.02950000 0.02946900 58444.61867078 0 1651.70104953 0 36932.79854183 0 6120.56612391 0 5876.63742942 0 996
0.03050000 0.03053250 57574.62518216 0 310.37272804 0 31796.90888298 0 3481.16071255 0 5199.64185890 0 1041
0.03150000 0.03150510 57095.92912188 0 -958.98814381 0 28909.53758145 0 3601.28946669 0 -1527.28000216 0 1036
0.03250000 0.03246190 57429.77415002 0 2034.65789776 0 28780.87969685 0 5195.58248082 0 4206.04807149 0 1059
0.03350000 0.03345080 56651.61577213 0 1208.01989801 0 24929.68338052 0 -790.23890960 0 1168.45759850 0 1302
0.03450000 0.03451200 51933.08785445 0 1857.19874659 0 29009.58017792 0 3113.47644252 0 9238.40140683 0 1339
0.03550000 0.03553350 52236.65391492 0 1791.54995185 0 28565.48865212 0 1707.50086138 0 7932.93425243 0 1365
0.03650000 0.03647120 49031.85255673 0 -698.07660856 0 23242.37958879 0 7957.16851776 0 7261.26245644 0 1308
0.03750000 0.03744890 49462.08008635 0 -113.09028056 0 20688.74240343 0 3492.24081830 0 7851.36959007 0 1579
0.03850000 0.03847530 51216.04197175 0 689.47427621 0 22632.36375663 0 -1049.43463668 0 4555.77569366 0 1662
0.03950000 0.03950240 47390.02267249 0 1504.66505159 0 18609.58662351 0 -3455.29604126 0 77.50561701 0 1683
0.04050000 0.04050350 45506.84834265 0 1798.20467002 0 19139.96766158 0 -122.17397086 0 -784.98168225 0 1822
0.04150000 0.04152450 44799.34088932 0 2193.37292609 0 23673.82715007 0 401.15084770 0 -390.11399762 0 1887
0.04250000 0.04250150 42385.78552142 0 690.88174910 0 20904.57709604 0 3503.04364413 0 12.45574691 0 1920
0.04350000 0.04349210 41153.99718835 0 196.63804893 0 18015.43120300 0 3569.40227547 0 2270.36801530 0 2005
0.04450000 0.04448520 40653.56238205 0 91.23951346 0 20119.87491195 0 1761.03806904 0 6609.58808855 0 2151
0.04550000 0.04548030 42132.57349509 0 -760.36255238 0 14293.89097899 0 4321.00832786 0 7976.18992053 0 2274
0.04650000 0.04648670 42444.12521737 0 -561.73252448 0 16432.27375061 0 1855.74579979 0 7009.38137375 0 2311
0.04750000 0.04749250 42624.91172762 0 712.09033591 0 14051.54832567 0 -131.81222101 0 8140.52818571 0 2568
0.04850000 0.04851840 41510.35734630 0 1584.69912877 0 18317.33358393 0 174.46896447 0 7153.35620133 0 2493
0.04950000 0.04949480 40720.55321161 0 788.12603658 0 15711.34594897 0 772.93664236 0 8941.45679093 0 2644
0.05050000 0.05050630 39503.29434655 0 195.26384963 0 18153.84934091 0 1278.62645778 0 10937.66150887 0 2829
0.05150000 0.05149060 37573.53698952 0 823.76759798 0 15497.84040772 0 2914.83310517 0 9454.39137619 0 2784
0.05250000 0.05249300 39387.83498631 0 -366.65833431 0 15477.65442928 0 2967.87120898 0 8525.31508143 0 3055
0.05350000 0.05348950 36870.90966285 0 641.85311299 0 15530.22670281 0 754.21248368 0 11446.22616254 0 3009
0.05450000 0.05448610 36272.98323538 0 2137.91694135 0 13640.39765480 0 -751.15685892 0 10085.71339768 0 3336
0.05550000 0.05550870 35413.41547189 0 -36.32422457 0 14066.41052958 0 352.57584155 0 9467.74517732 0 3349
0.05650000 0.05647670 34533.99446586 0 -79.54850458 0 12898.95113881 0 2576.04140319 0 6803.06292812 0 3324
0.05750000 0.05747970 35187.26596611 0 1050.34633307 0 14217.25080808 0 304.61306946 0 9257.18989446 0 3639
0.05850000 0.05849280 33131.29078782 0 424.96142931 0 12916.69705393 0 -825.19614414 0 5248.26566632 0 3846
0.05950000 0.05951020 33262.61055969 0 820.24503383 0 15233.53718444 0 -2092.75358737 0 5173.11171580 0 3787
0.06050000 0.06049470 32579.50373965 0 499.12382682 0 15649.90071788 0 -1053.13355087 0 83.07794527 0 3930
0.06150000 0.06148310 32006.86524121 0 214.20428666 0 15420.09111711 0 -1534.68892173 0 452.16924454 0 4083
0.06250000 0.06249100 32207.72681794 0 -161.93591192 0 14951.70986999 0 -685.62341263 0 -4259.15272248 0 4303
0.06350000 0.06350600 32054.22465218 0 634.37653713 0 16260.47110988 0 -926.23029362 0 -6538.48242492 0 4470
0.06450000 0.06451750 30487.26034734 0 1141.25089238 0 15205.14372026 0 712.36872495 0 -9265.74120730 0 4479
0.06550000 0.06550280 29869.48067732 0 640.13508658 0 15480.42722851 0 1017.34336743 0 -6345.70633076 0 4636
0.06650000 0.06648880 28354.53408616 0 88.49300035 0 11344.63079849 0 3155.25698142 0 -6096.57586491 0 4653
0.06750000 0.06749660 28772.56129914 0 2.68664282 0 12710.06805479 0 2036.58776603 0 -4979.20431956 0 5220
0.06850000 0.06852730 27864.63591696 0 514.17569020 0 8604.65041320 0 1511.08685462 0 -3408.83501725 0 5029
0.06950000 0.06949320 27846.77908987 0 55.40840351 0 8140.72782725 0 2185.29853471 0 -1489.51447656 0 5040
0.07050000 0.07048030 27072.05898304 0 -278.71068811 0 8276.25116276 0 112.70652515 0 -1089.39954665 0 5475
0.07150000 0.07148790 27615.41672153 0 323.95722606 0 6816.02853735 0 820.15741337 0 -917.60688800 0 5509
0.07250000 0.07249820 27304.41955910 0 126.89992988 0 7683.72614820 0 26.86665002 0 -25.23524586 0 5916
0.07350000 0.07351270 26820.84337216 0 155.79582529 0 8145.92959862 0 -316.18895172 0 -213.84382276 0 5721
0.07450000 0.07449140 27566.28271905 0 25.71372009 0 7816.25486053 0 352.77326485 0 277.07806392 0 6028
0.07550000 0.07549160 26794.77905933 0 265.82049902 0 8132.08778483 0 287.43391451 0 1596.69980386 0 6183
0.07650000 0.07648840 27187.29651933 0 -81.66681228 0 7393.13678816 0 1652.15578860 0 358.52405047 0 6330
0.07750000 0.07749960 26554.43282147 0 325.57210434 0 8489.43505931 0 304.71843584 0 1500.53912632 0 6583
0.07850000 0.07848650 25986.56353772 0 690.20185873 0 6018.21655847 0 -284.51027500 0 1811.52519755 0 6549
0.07950000 0.07947320 25640.40728096 0 344.88409646 0 7531.26655495 0 1380.96493202 0 2485.44850652 0 6828
0.08050000 0.08048110 24730.37457136 0 20.63339733 0 5721.68231686 0 411.94258233 0 2168.89465442 0 7147
0.08150000 0.08149960 24346.39733301 0 706.04896093 0 5705.01224785 0 81.33019445 0 -4.28993079 0 7386
0.08250000 0.08250610 23474.40742894 0 1129.71604756 0 6577.72307972 0 -2018.70875655 0 -658.93466541 0 7227
0.08350000 0.08350160 21938.49847555 0 658.35570493 0 6650.37041973 0 -776.46586123 0 -888.33721925 0 7798
0.08450000 0.08449610 21494.85059762 0 276.54014087 0 7300.30346970 0 261.24538028 0 -1215.07389927 0 7371
0.08550000 0.08548940 21365.97088909 0 -221.26494264 0 6386.84358024 0 1372.28052481 0 -2251.85680759 0 8256
0.08650000 0.08650700 21300.08917921 0 147.87671067 0 5284.82225146 0 1067.20273420 0 -1245.87415319 0 8037
0.08750000 0.08749060 21078.48706419 0 303.92097878 0 5392.78396256 0 460.52313409 0 -1416.39021508 0 8155
0.08850000 0.08849210 20801.76170033 0 421.86698536 0 5310.45400761 0 -751.81567602 0 -585.14271388 0 8718
0.08950000 0.08949900 19978.79488677 0 367.25614983 0 5695.01907940 0 -457.46418197 0 -253.70336635 0 8571
0.09050000 0.09049190 19737.45044118 0 522.62385492 0 6904.71374815 0 179.87259563 0 -146.19306697 0 8932
0.09150000 0.09150830 19326.85433016 0 -10.45316475 0 5892.22056114 0 95.59558106 0 -594.04783591 0 9285
0.09250000 0.09250820 19562.98591318 0 -125.65106111 0 7322.88514669 0 1210.33795817 0 344.13654979 0 9204
0.09350000 0.09350330 19480.57831986 0 -24.30413987 0 5236.96373663 0 629.23243998 0 617.22511017 0 9349
0.09450000 0.09448040 19437.76629964 0 297.74207296 0 5876.03850479 0 463.92924067 0 960.25364938 0 9564
0.09550000 0.09549270 19074.75142352 0 310.36274596 0 4946.00836709 0 -322.52091606 0 742.08758717 0 10155
0.09650000 0.09649430 18415.15794101 0 469.12435732 0 6238.69846260 0 -93.63354832 0 1043.72599762 0 9913
0.09750000 0.09749140 18223.05840987 0 283.09392915 0 5581.00157477 0 -92.32101607 0 1607.41390012 0 10476
0.09850000 0.09850240 17505.56887929 0 216.30939584 0 5295.61398610 0 606.00303710 0 96.23155029 0 10575
0.09950000 0.09950330 17557.14294510 0 32.33827021 0 5484.17542541 0 453.99707380 0 1553.54395654 0 10882
0.10050000 0.10051200 17206.66112153 0 191.25327282 0 4296.16404670 0 872.80399793 0 951.60695224 0 10875
0.10150000 0.10150300 17305.15095043 0 -29.19713232 0 4638.63802606 0 -206.49590478 0 1540.48961773 0 11118
0.10250000 0.10250800 17052.82621986 0 156.13632504 0 4502.89286661 0 -256.49169327 0 721.69863982 0 11575
0.10350000 0.10349800 17026.65099506 0 221.09857468 0 3943.39743656 0 -193.46374837 0 102.40812696 0 11364
0.10450000 0.10450100 16574.01924761 0 215.73598096 0 5132.17410787 0 -172.29398075 0 532.94421368 0 12093
0.10550000 0.10551000 16349.75524531 0 485.12008156 0 5779.53400014 0 -213.81054917 0 -480.82889746 0 12067
0.10650000 0.10649700 15965.55618303 0 325.04859984 0 5338.99165736 0 -132.95128694 0 768.24062958 0 12054
0.10750000 0.10749900 15469.55785550 0 68.18834610 0 5837.59641617 0 191.07581366 0 354.05984370 0 12807
0.10850000 0.10850100 15503.94056604 0 175.41282533 0 5041.91394710 0 639.11025999 0 712.81791843 0 12736
0.10950000 0.10950300 15462.34857749 0 -109.72754056 0 5359.49928052 0 521.76539627 0 519.61703143 0 12933
0.11050000 0.11050200 15294.20603175 0 159.36719071 0 4941.84916823 0 -191.20558067 0 397.43196937 0 13428
0.11150000 0.11150900 15209.80202298 0 189.86465496 0 5290.58967388 0 -214.23090553 0 722.85877902 0 13453
0.11250000 0.11250000 14758.39030718 0 196.51826401 0 5439.16734820 0 -527.25997524 0 -240.78101279 0 13668
0.11350000 0.11349100 14756.94845158 0 196.85987287 0 6287.59954995 0 -172.74095599 0 -253.19649865 0 13791
0.11450000 0.11448600 14661.12050995 0 217.66917659 0 5817.43262012 0 -109.81737926 0 -227.31851793 0 14205
0.11550000 0.11549300 14553.31407561 0 -133.97500442 0 5302.02469793 0 653.97579126 0 97.58634000 0 14776
0.11650000 0.11649800 14913.00159264 0 -270.28581491 0 5433.30010501 0 870.50368368 0 -6.21461947 0 14553
0.11750000 0.11747300 15043.98862860 0 137.53084216 0 5194.67300267 0 12.01121174 0 224.43702497 0 14568
0.11850000 0.11849100 14633.61434152 0 361.39556136 0 5082.48554554 0 -286.22608316 0 -51.65403334 0 16015
0.11950000 0.11950300 14179.98438633 0 279.10997120 0 5313.80354909 0 -342.94979172 0 75.25133123 0 15270
0.12050000 0.12050700 14055.31933264 0 121.49518961 0 5656.23316367 0 215.52968470 0 -331.96950674 0 15999
0.12150000 0.12150000 13882.85122009 0 178.75571209 0 4862.54711006 0 334.97078463 0 -553.82006457 0 15670
0.12250000 0.12250700 13482.45901026 0 143.30935577 0 4946.80693327 0 367.62659581 0 -384.20128053 0 16887
0.12350000 0.12352200 13482.12627435 0 114.54655472 0 4349.98962549 0 348.71610501 0 -471.40359829 0 16407
0.12450000 0.12449800 13323.74398193 0 -149.05126843 0 3776.20873376 0 856.70290732 0 -138.37155489 0 16306
0.12550000 0.12549900 13343.37540053 0 -53.66342549 0 3382.19396218 0 152.59490585 0 -983.88344448 0 17523
0.12650000 0.12650100 13379.75452652 0 236.17483870 0 3413.89260306 0 -114.12730748 0 -480.19004451 0 17154
0.12750000 0.12750600 12994.22452060 0 247.31372779 0 3201.62927586 0 -450.34807001 0 -945.51012128 0 18007
0.12850000 0.12850300 12934.11023314 0 -43.18180073 0 3213.74086293 0 106.69154722 0 -803.37088679 0 17496
0.12950000 0.12949900 13031.71276628 0 5.63721176 0 3691.88236337 0 198.48362411 0 -681.26124487 0 18405
0.13050000 0.13049000 12757.09472985 0 232.49588867 0 3155.19043424 0 70.69218381 0 -1224.37941351 0 18100
0.13150000 0.13148800 12861.24106919 0 83.37274928 0 3741.55983450 0 -42.66239997 0 -52.25517621 0 19059
0.13250000 0.13249300 12382.65592087 0 190.64880258 0 4081.58265934 0 123.93081646 0 -101.30987664 0 18957
0.13350000 0.13349100 12494.89883399 0 113.16459158 0 3808.05156020 0 390.99352954 0 355.92094655 0 19468
0.13450000 0.13450700 12212.73878363 0 24.86757268 0 3985.79908249 0 -40.57991683 0 100.51131046 0 19953
0.13550000 0.13551000 12365.35365363 0 208.97145994 0 4169.12547685 0 -255.22064210 0 871.59062098 0 19956
0.13650000 0.13649900 11994.79676359 0 143.89497097 0 4311.81372559 0 -297.33613515 0 150.91458952 0 19723
0.13750000 0.13749600 11918.82206450 0 67.05992772 0 4260.32838936 0 96.47333838 0 -79.91495772 0 20946
0.13850000 0.13851100 11898.74699802 0 17.45743308 0 4163.84606710 0 193.13433982 0 -76.81019896 0 20955
0.13950000 0.13949800 11867.02617475 0 109.54886138 0 3542.23993414 0 365.00352773 0 -66.72264443 0 20506
0.14050000 0.14048300 11841.18368586 0 17.19202074 0 3939.12732574 0 361.35896041 0 -16.38291792 0 21447
0.14150000 0.14148400 11448.11166602 0 156.11192441 0 3224.10004088 0 -4.22368307 0 -251.26884862 0 21771
0.14250000 0.14249400 11258.11946229 0 284.06219064 0 3220.68395222 0 -50.26230995 0 -370.12655160 0 22470
0.14350000 0.14350900 10891.81050068 0 259.13361638 0 3139.89567365 0 39.46636066 0 -494.93579086 0 22519
0.14450000 0.14449900 10543.87965242 0 235.73119082 0 3457.15936235 0 -208.81063759 0 -451.58362935 0 22218
0.14550000 0.14550500 10369.89204589 0 143.73525773 0 3315.59132450 0 139.11355596 0 -192.39012050 0 23559
0.14650000 0.14650700 10184.66905686 0 125.25954185 0 3469.27094942 0 302.90835249 0 -637.48207227 0 23044
0.14750000 0.14750500 10048.30279038 0 -2.15622851 0 3159.16108275 0 142.49748015 0 -219.83195999 0 23649
0.14850000 0.14849900 9983.96275688 0 110.60596336 0 2971.24293285 0 117.54228702 0 -588.37357955 0 23640
0.14950000 0.14949500 9788.42495468 0 142.27787445 0 3080.19176048 0 -245.29402083 0 -273.39911389 0 24457
0.15050000 0.15050000 9871.85293813 0 28.79407822 0 2832.25914390 0 139.15348427 0 -684.38008945 0 24591
0.15150000 0.15149900 9893.93551125 0 -144.57042486 0 2811.19696089 0 270.57196779 0 -456.35062579 0 25020
0.15250000 0.15250500 9976.04364226 0 -68.07776687 0 2396.94075487 0 422.48476503 0 -949.76248619 0 25297
0.15350000 0.15350100 9926.97618696 0 85.42894629 0 2003.66909348 0 249.65397035 0 -521.57130033 0 25452
0.15450000 0.15450400 9974.40214511 0 17.07001758 0 1868.73359141 0 329.82225101 0 -493.95643817 0 26061
0.15550000 0.15549900 9748.80719919 0 134.17575508 0 1534.14545308 0 82.71847958 0 -222.55041236 0 26128
0.15650000 0.15649500 9656.01824552 0 194.58285014 0 1712.39207923 0 20.50163391 0 132.95461430 0 26331
0.15750000 0.15749700 9436.40145474 0 73.92016577 0 1514.84677039 0 192.94689859 0 -49.89297309 0 27345
0.15850000 0.15849900 9270.11113890 0 129.26457307 0 1776.95393667 0 -223.96897645 0 59.36496619 0 26980
0.15950000 0.15949700 9176.30179511 0 218.99568374 0 1898.11417213 0 -310.16088618 0 -292.90852933 0 27777
0.16050000 0.16050000 9035.76523858 0 21.75893200 0 1982.65127527 0 -96.67098351 0 -222.64468754 0 28224
0.16150000 0.16150500 8904.40110193 0 119.49766504 0 2109.01328210 0 -112.17082034 0 -551.23914304 0 28075
0.16250000 0.16249700 8888.88451740 0 99.77052941 0 2367.32725902 0 55.17382469 0 -696.69131806 0 28590
0.16350000 0.16349900 8893.56500251 0 23.90751867 0 2099.90740940 0 46.75083699 0 -385.96810820 0 29163
0.16450000 0.16449100 8776.63051308 0 28.60175687 0 2132.08297175 0 436.77688142 0 -455.58311496 0 28996
0.16550000 0.16550500 8693.43544477 0 158.17155968 0 1914.95060910 0 -158.90690604 0 -686.91110059 0 30777
0.16650000 0.16650700 8431.60555842 0 213.86933251 0 2243.67150425 0 -271.62008590 0 -362.26067472 0 29211
0.16750000 0.16749900 8261.75496835 0 206.76763911 0 2233.93343333 0 4.37556593 0 -229.02101666 0 30922
0.16850000 0.16850800 8090.92835296 0 19.87464855 0 2398.20515133 0 334.22989268 0 -394.67691604 0 30867
0.16950000 0.16949900 8043.83513071 0 5.03774366 0 2100.65051960 0 203.96600276 0 -15.78221870 0 30852
0.17050000 0.17049200 8110.02739410 0 -25.67601002 0 1985.46843929 0 183.30532108 0 -243.99080519 0 31257
0.17150000 0.17149500 8132.03232885 0 -51.18265747 0 1713.46792533 0 287.85316176 0 175.06788911 0 32608
0.17250000 0.17250900 8190.23893043 0 -31.88730214 0 1507.91477229 0 117.28386213 0 194.94442316 0 32361
0.17350000 0.17350400 8155.85621989 0 74.95708178 0 1450.54001048 0 128.24196471 0 100.30789790 0 32508
0.17450000 0.17449800 8035.74964814 0 124.66838106 0 1418.28680975 0 -0.96498404 0 365.39282874 0 32791
0.17550000 0.17549800 7960.72879198 0 109.27235784 0 1223.52539134 0 33.26926528 0 109.24141340 0 33633
0.17650000 0.17650100 7755.20891253 0 159.79752915 0 1584.27766328 0 -138.78192917 0 197.98673848 0 33984
0.17750000 0.17750300 7687.79661748 0 105.37590944 0 1546.67850563 0 -65.44748951 0 160.05817228 0 34069
0.17850000 0.17849800 7623.39003680 0 11.81877947 0 1696.86440350 0 -126.43188137 0 156.79181478 0 34536
