### header ###
fiducial parameters:
Omega_m = 0.31
Omega_nu = 0
Omega_de = 0.69
Omega_k = 0
H_0 = 100
w_de = -1
zeff = 0
beta = 0
fgrowth = 0
b_1 = 2
gamma = 0.55
Lx = 3500 Ly = 3500 Lz = 3500
nx = 700 ny = 700 nz = 700
xoffset = 1379.75464 yoffset = 22.6059522 zoffset = 368.141391
bins = 400 dk = 0.001
kx_ny = 0.628318531 ky_ny = 0.628318531 kz_ny = 0.628318531
############################
A(data) = 3.37221716 (not used)
A(ran) = 3.37372622 (used)
Ngal = 189380
weighted Ngal = 0
Nran = 9399747
weighted Nran = 0
SN(data) = 6630.16412
SN(ran) = 134.191252
SN(data+ran) = 6764.35538
############################
13 columns: k_central k_mean P_0(k) sigma^{lin}_{P_0(k)} P^img_1(k) sigma^{lin}_{P_1(k)} P_2(k) sigma^{lin}_{P_2(k)} P^img_3(k) sigma^{lin}_{P_3(k)} P_4(k) sigma^{lin}_{P_4(k)} N_modes
### header ###
0.00050000 0 0 0 0 0 0 0 0 0 0 0 0
0.00150000 0.00179520 79170.96023186 0 -52966.12193821 0 -24890.97510317 0 -67404.42030146 0 4514.36116426 0 3
0.00250000 0.00253879 127872.62785545 0 -39816.28792442 0 -67433.81197338 0 -4079.00950165 0 81531.83241426 0 6
0.00350000 0.00331552 159645.57975302 0 -43877.88424686 0 -64692.40082368 0 -57122.21525864 0 54897.76479871 0 7
0.00450000 0.00420575 160003.82541445 0 -24796.81084108 0 -92176.38686138 0 -30604.16156317 0 -5969.47074788 0 24
0.00550000 0.00557378 226710.72033984 0 -37242.79749653 0 -137130.44994813 0 -32292.68538657 0 -46482.98458606 0 45
0.00650000 0.00659388 205496.58793697 0 -14208.15602658 0 -82680.88041810 0 -106359.92043074 0 -91205.13074462 0 40
0.00750000 0.00754703 238172.36326613 0 33532.68120538 0 -72529.21876336 0 -132195.97642587 0 -30191.67994867 0 57
0.00850000 0.00846663 174361.37986392 0 37962.83800241 0 -24225.17055037 0 -99607.04516881 0 -91458.78641883 0 75
0.00950000 0.00948925 131285.38915642 0 40781.22205892 0 29707.54920188 0 -70955.15609247 0 -87259.43743029 0 112
0.01050000 0.01054430 91845.31463248 0 23807.47607330 0 77824.48892235 0 10735.84608920 0 -72311.49856727 0 105
0.01150000 0.01145670 69727.69332621 0 12588.28671229 0 81145.30420062 0 18591.17523658 0 -65552.30132308 0 144
0.01250000 0.01249090 65474.88476838 0 -2062.08642781 0 57426.33587896 0 25398.61918749 0 -55616.58527292 0 169
0.01350000 0.01339930 68860.02898895 0 -5037.13364122 0 48490.04758581 0 18252.67190572 0 -53828.90614881 0 180
0.01450000 0.01448870 69534.59558734 0 2211.96177217 0 38211.05899011 0 -1742.08321346 0 -25983.01435469 0 267
0.01550000 0.01550050 63281.60057187 0 3553.94114692 0 48523.09935272 0 -10504.46153846 0 -23746.03084221 0 238
0.01650000 0.01653350 71057.86057621 0 -1452.54751713 0 42995.13588175 0 12983.68788350 0 -4043.60640099 0 315
0.01750000 0.01747870 77924.64243079 0 -5300.28338001 0 53397.45858752 0 15504.93877377 0 -7211.56280292 0 297
0.01850000 0.01844180 83407.24290624 0 -913.59520206 0 57026.60914095 0 5282.69274165 0 13979.45554551 0 388
0.01950000 0.01947590 87231.70943792 0 3473.69633700 0 58031.02793658 0 187.75510930 0 13821.62781294 0 399
0.02050000 0.02045430 80742.02827958 0 5966.73122224 0 63997.87007079 0 -6028.34282128 0 20166.90158701 0 462
0.02150000 0.02154770 78957.23286667 0 3125.82094472 0 80490.36902082 0 7682.98303800 0 30836.52213923 0 571
0.02250000 0.02255340 77546.98717470 0 2674.38704653 0 79230.29813554 0 19287.36966902 0 28830.34643524 0 510
0.02350000 0.02348930 77448.27552187 0 -770.68734762 0 76720.13844221 0 8792.69056626 0 36326.77554057 0 555
0.02450000 0.02439640 76442.96943048 0 -190.33381259 0 60528.21092947 0 18382.10617411 0 21144.14695012 0 592
0.02550000 0.02547300 78375.72141068 0 -2913.73507668 0 55418.71831937 0 23666.28513615 0 47116.95740362 0 837
0.02650000 0.02652900 78051.96937176 0 -81.76008925 0 28468.88432670 0 14163.01485500 0 25815.64819274 0 723
0.02750000 0.02749970 82927.88137413 0 -2893.49364225 0 25429.23089107 0 14299.99113731 0 44670.68300472 0 826
0.02850000 0.02848090 76134.96689123 0 3992.79762777 0 18998.77672443 0 -2777.52408696 0 19690.53467809 0 831
0.02950000 0.02946900 73527.87013658 0 4660.25476892 0 20959.81125684 0 -2457.38777824 0 31359.69389928 0 996
0.03050000 0.03053250 65776.12167750 0 2160.52080073 0 18139.98534473 0 -195.21172101 0 18625.11429924 0 1041
0.03150000 0.03150510 64756.84067795 0 3221.59343037 0 25729.80232836 0 -3505.88299055 0 6597.70941662 0 1036
0.03250000 0.03246190 58694.50333802 0 3704.60396627 0 21578.58913458 0 177.38594927 0 12547.13837162 0 1059
0.03350000 0.03345080 54387.79156303 0 4096.45595445 0 25912.80707801 0 -3657.28892009 0 -1503.55593189 0 1302
0.03450000 0.03451200 51736.21910862 0 2156.68324658 0 27849.55188911 0 292.62348556 0 9871.45365504 0 1339
0.03550000 0.03553350 48659.52107518 0 1145.26590568 0 26729.67373325 0 6436.05522110 0 5362.80445721 0 1365
0.03650000 0.03647120 47045.30827134 0 1224.25741034 0 24228.71973339 0 4639.56968661 0 6996.48231170 0 1308
0.03750000 0.03744890 46362.20145130 0 463.68634346 0 26976.45286534 0 2777.91227885 0 11222.07307221 0 1579
0.03850000 0.03847530 44703.62385966 0 -1.78818932 0 21824.14823502 0 6270.44146827 0 15128.61446131 0 1662
0.03950000 0.03950240 45396.04728514 0 12.40339646 0 20501.19026303 0 3907.02940177 0 16527.99078027 0 1683
0.04050000 0.04050350 44847.58759605 0 -689.45653029 0 18587.29331765 0 2044.97271092 0 13109.57296886 0 1822
0.04150000 0.04152450 46578.25796785 0 913.84142663 0 20325.94935125 0 -800.17329471 0 13533.47851622 0 1887
0.04250000 0.04250150 44980.46013549 0 1774.90206523 0 19097.48837727 0 -1115.51931546 0 10099.71048823 0 1920
0.04350000 0.04349210 42983.04647708 0 1297.70331653 0 24833.18996707 0 -3088.43251981 0 13595.36739519 0 2005
0.04450000 0.04448520 41877.36505331 0 380.44912860 0 21465.68074965 0 2913.22488162 0 7005.28872207 0 2151
0.04550000 0.04548030 44034.27012383 0 -1644.40304194 0 25101.70784519 0 2212.73815596 0 6283.19634476 0 2274
0.04650000 0.04648670 43655.61666002 0 490.26085134 0 18145.53094320 0 388.35493378 0 573.84522066 0 2311
0.04750000 0.04749250 42874.57457093 0 2459.91657115 0 21106.21505656 0 -1570.93495335 0 48.37092813 0 2568
0.04850000 0.04851840 40264.26136916 0 1527.61273807 0 20530.80375889 0 -3284.50269946 0 2073.94291735 0 2493
0.04950000 0.04949480 38826.50950876 0 722.17112481 0 22763.68352850 0 2592.92220495 0 -4221.88630073 0 2644
0.05050000 0.05050630 38076.07912325 0 656.93603172 0 23122.48374978 0 1002.44567169 0 -2154.44282480 0 2829
0.05150000 0.05149060 35239.83823965 0 924.80396570 0 16387.90896282 0 726.21275698 0 -6835.99269186 0 2784
0.05250000 0.05249300 36475.61940362 0 -187.99689739 0 19270.28922572 0 3412.28437950 0 -1541.18836314 0 3055
0.05350000 0.05348950 35154.65784709 0 -264.31875095 0 14841.57428429 0 1887.58862622 0 -4123.32992465 0 3009
0.05450000 0.05448610 35629.80472435 0 39.25241147 0 10969.34905855 0 5047.00480650 0 -1611.97238206 0 3336
0.05550000 0.05550870 35336.33165310 0 160.69813434 0 9825.96865635 0 938.20102249 0 -368.37414248 0 3349
0.05650000 0.05647670 34146.46804449 0 452.99110224 0 6999.29947572 0 2292.14003491 0 -1041.88596804 0 3324
0.05750000 0.05747970 32609.56088338 0 773.10190120 0 8348.19975737 0 545.83883925 0 1501.64824602 0 3639
0.05850000 0.05849280 32424.78154222 0 707.61947442 0 6025.47020127 0 -454.04365683 0 -1192.03748321 0 3846
0.05950000 0.05951020 31718.60503253 0 412.64687334 0 8770.91854665 0 -188.47381886 0 1728.04175812 0 3787
0.06050000 0.06049470 30485.70757976 0 826.24204402 0 7115.79031727 0 -1985.66808084 0 -2597.01485662 0 3930
0.06150000 0.06148310 30337.97283641 0 787.14668389 0 10583.09812483 0 -1051.67062199 0 237.24181184 0 4083
0.06250000 0.06249100 29210.33084269 0 470.60835947 0 10944.58241576 0 -1910.36994476 0 -3848.60097625 0 4303
0.06350000 0.06350600 30043.72338138 0 313.11558105 0 11862.58969597 0 -164.70094732 0 -1931.16593903 0 4470
0.06450000 0.06451750 28398.23340214 0 777.99422817 0 12752.43642713 0 1181.85576441 0 -3023.53792646 0 4479
0.06550000 0.06550280 27885.26554328 0 613.80569415 0 12034.50324867 0 1257.35354204 0 151.09870338 0 4636
0.06650000 0.06648880 27594.12162339 0 394.80113745 0 11472.17956339 0 2148.86395273 0 777.41970417 0 4653
0.06750000 0.06749660 26877.18665266 0 25.31665524 0 12868.67217114 0 1902.92775160 0 2984.25290687 0 5220
0.06850000 0.06852730 26500.30778036 0 216.19737475 0 9118.25047028 0 733.47527274 0 2671.19278181 0 5029
0.06950000 0.06949320 26444.85179562 0 -20.31385995 0 10094.76381439 0 1100.25228286 0 3023.82629758 0 5040
0.07050000 0.07048030 25757.97396861 0 592.16676890 0 8533.35619922 0 -855.55385931 0 1518.05212630 0 5475
0.07150000 0.07148790 25263.75023260 0 488.90328884 0 9646.02507707 0 -1215.68391510 0 478.39659797 0 5509
0.07250000 0.07249820 25045.36456469 0 179.12061247 0 8784.62726608 0 122.23497245 0 286.55770995 0 5916
0.07350000 0.07351270 24567.88853607 0 178.43295826 0 9043.48471166 0 585.52979665 0 -696.26319786 0 5721
0.07450000 0.07449140 24568.77583182 0 -329.94314506 0 7377.81984517 0 1888.75320190 0 -1335.73503087 0 6028
0.07550000 0.07549160 25214.61623012 0 -139.36532613 0 7963.66795917 0 1378.16995039 0 447.48543207 0 6183
0.07650000 0.07648840 24939.11089793 0 111.18814029 0 6219.38868872 0 736.19483423 0 1036.45239066 0 6330
0.07750000 0.07749960 24695.88094885 0 445.88275411 0 7627.20540855 0 -168.80469019 0 2276.03561694 0 6583
0.07850000 0.07848650 24929.90520446 0 56.78981209 0 6923.21386466 0 -351.95029804 0 2713.67206612 0 6549
0.07950000 0.07947320 23838.30960081 0 361.84586396 0 8943.10937928 0 21.01948190 0 2867.01895513 0 6828
0.08050000 0.08048110 24292.16137994 0 157.38075734 0 7404.42762665 0 -94.63719073 0 2306.29240222 0 7147
0.08150000 0.08149960 24010.66680139 0 107.16015029 0 9034.03501186 0 348.20369171 0 2728.07953096 0 7386
0.08250000 0.08250610 23869.25404030 0 556.67161131 0 9567.11121078 0 5.94510339 0 2030.32123975 0 7227
0.08350000 0.08350160 22894.11600461 0 954.87774622 0 9739.01367228 0 -808.55602136 0 2327.66513874 0 7798
0.08450000 0.08449610 21889.47538504 0 654.06008435 0 10793.09884785 0 -1415.41418974 0 2336.50482270 0 7371
0.08550000 0.08548940 20956.26207382 0 742.49574322 0 11473.17777112 0 -266.72443157 0 1118.19229393 0 8256
0.08650000 0.08650700 20496.75378425 0 244.60525750 0 11498.24387622 0 510.66865373 0 1505.47470896 0 8037
0.08750000 0.08749060 20583.70876833 0 -261.59918946 0 11002.23445750 0 878.50043668 0 447.35011947 0 8155
0.08850000 0.08849210 20303.87786932 0 -134.57947465 0 9976.50947253 0 1127.98582083 0 421.93131430 0 8718
0.08950000 0.08949900 20737.76549394 0 176.05500564 0 9104.18683255 0 283.60856068 0 395.65515961 0 8571
0.09050000 0.09049190 20418.22810986 0 108.10866945 0 8516.85249816 0 618.66807489 0 -308.31974748 0 8932
0.09150000 0.09150830 20031.92172015 0 336.17639774 0 7953.12023087 0 764.80568588 0 24.99989066 0 9285
0.09250000 0.09250820 19444.75375372 0 142.69490346 0 7675.27465612 0 535.44638771 0 32.52704238 0 9204
0.09350000 0.09350330 19430.00246177 0 -9.71313791 0 6321.40551825 0 1089.73450080 0 241.31117200 0 9349
0.09450000 0.09448040 19262.52538786 0 44.55233993 0 6491.69975619 0 734.21283734 0 -472.86874541 0 9564
0.09550000 0.09549270 18778.61646501 0 200.50665843 0 4917.87000043 0 705.82380963 0 959.51719391 0 10155
0.09650000 0.09649430 18455.08625003 0 414.61001520 0 5033.78409974 0 671.76718028 0 471.69862413 0 9913
0.09750000 0.09749140 18115.91744735 0 133.10323634 0 3932.02895969 0 546.43887301 0 1105.25108533 0 10476
0.09850000 0.09850240 17697.00293861 0 280.72041300 0 3561.36115768 0 318.56579523 0 1556.68276527 0 10575
0.09950000 0.09950330 17089.20534585 0 613.05260188 0 4594.17341750 0 -113.20341077 0 523.81504947 0 10882
0.10050000 0.10051200 16569.25003292 0 219.33063789 0 3702.85155715 0 -488.76797623 0 926.48206380 0 10875
0.10150000 0.10150300 16359.07185075 0 20.16057960 0 4365.77239874 0 387.43991003 0 1339.76113536 0 11118
0.10250000 0.10250800 16336.55672095 0 63.66258319 0 4434.54891102 0 -390.47224328 0 270.15493879 0 11575
0.10350000 0.10349800 16628.80976053 0 270.57418603 0 4237.03687577 0 -81.39374701 0 -78.30207586 0 11364
0.10450000 0.10450100 15718.44431502 0 259.20903652 0 4865.45300366 0 -327.03392410 0 172.87515947 0 12093
0.10550000 0.10551000 15713.34236442 0 224.66439450 0 4963.49918468 0 -309.18486085 0 66.79030073 0 12067
0.10650000 0.10649700 15563.50029365 0 185.88956997 0 5430.51621458 0 385.27712663 0 141.10220758 0 12054
0.10750000 0.10749900 15529.00667115 0 -64.19185511 0 4931.30143994 0 517.93671509 0 140.87705628 0 12807
0.10850000 0.10850100 15649.67889394 0 16.76922431 0 4363.02178190 0 270.80931941 0 728.13153405 0 12736
0.10950000 0.10950300 15377.83365674 0 64.75218238 0 4303.82806379 0 243.75234445 0 192.62858124 0 12933
0.11050000 0.11050200 15150.13138339 0 378.38283861 0 4478.79169565 0 -346.13074700 0 -21.08824732 0 13428
0.11150000 0.11150900 14937.06949002 0 -67.94056876 0 4308.84128481 0 426.45874090 0 71.57781589 0 13453
0.11250000 0.11250000 14899.69215630 0 83.43563637 0 3692.59219997 0 556.99658338 0 -297.81638397 0 13668
0.11350000 0.11349100 14724.34033255 0 262.91904190 0 3662.42414427 0 120.95948480 0 186.49625844 0 13791
0.11450000 0.11448600 14439.51839492 0 221.26605176 0 3911.46588055 0 -323.41375741 0 163.05723193 0 14205
0.11550000 0.11549300 13899.04436763 0 440.19851568 0 3658.02093908 0 72.64057438 0 621.16470332 0 14776
0.11650000 0.11649800 13594.70192338 0 168.14698221 0 4369.07757543 0 -480.85884369 0 -228.16699450 0 14553
0.11750000 0.11747300 13469.70413377 0 33.45160456 0 3849.80991671 0 289.50796834 0 -149.20987254 0 14568
0.11850000 0.11849100 13521.05637564 0 -161.22385708 0 4013.94854035 0 587.49182939 0 -163.39773168 0 16015
0.11950000 0.11950300 13841.70287941 0 -136.38512151 0 2729.51029537 0 296.05510190 0 -387.15597539 0 15270
0.12050000 0.12050700 13738.88748370 0 74.76298583 0 2637.35353992 0 456.19978552 0 -417.06782444 0 15999
0.12150000 0.12150000 13688.08980168 0 81.91558783 0 2499.27922912 0 158.11055810 0 -302.49132349 0 15670
0.12250000 0.12250700 13419.68283553 0 139.91655862 0 2424.36928493 0 257.01852512 0 319.49412841 0 16887
0.12350000 0.12352200 13273.16812385 0 232.36612166 0 2114.38142142 0 211.11649743 0 -306.85460037 0 16407
0.12450000 0.12449800 12968.16020777 0 47.48740338 0 1986.18936709 0 -73.78806962 0 193.97283431 0 16306
0.12550000 0.12549900 12835.62040424 0 77.79254628 0 2148.45357845 0 39.97411566 0 43.88365167 0 17523
0.12650000 0.12650100 12955.29441931 0 85.31792340 0 2193.81657396 0 -122.52334357 0 -455.69069958 0 17154
0.12750000 0.12750600 12648.29008778 0 276.05656468 0 2601.19623787 0 -597.28424718 0 -107.70029158 0 18007
0.12850000 0.12850300 12419.25687080 0 292.05450716 0 2584.11579457 0 -509.09703112 0 -1090.52973962 0 17496
0.12950000 0.12949900 12244.01595902 0 102.04045378 0 3456.51607293 0 -122.97808264 0 -285.23785752 0 18405
0.13050000 0.13049000 12013.20815053 0 143.21840795 0 3580.40474284 0 -75.30756360 0 -930.89081458 0 18100
0.13150000 0.13148800 12083.74816312 0 48.91073669 0 3387.41791594 0 321.30753911 0 -125.79081019 0 19059
0.13250000 0.13249300 12014.65000613 0 -33.72378253 0 3724.51266479 0 429.35465242 0 129.37104856 0 18957
0.13350000 0.13349100 12090.62470523 0 69.84459454 0 3282.98320548 0 130.97816300 0 198.14312436 0 19468
0.13450000 0.13450700 12005.11157676 0 61.72606020 0 3546.05530589 0 219.32620141 0 654.86530525 0 19953
0.13550000 0.13551000 11923.03671934 0 79.11716793 0 3205.36700923 0 -257.18822043 0 83.28047053 0 19956
0.13650000 0.13649900 11761.32706783 0 187.50001177 0 3362.93964428 0 -191.20225331 0 537.50935034 0 19723
0.13750000 0.13749600 11502.79126697 0 223.00958792 0 3586.59363074 0 -116.78032179 0 -566.91765905 0 20946
0.13850000 0.13851100 11523.19906936 0 84.26714341 0 3605.17138563 0 -139.00264399 0 36.88333180 0 20955
0.13950000 0.13949800 11508.00412954 0 -63.92655367 0 3672.42840392 0 161.09519919 0 -579.80230255 0 20506
0.14050000 0.14048300 11433.02763817 0 -30.23016640 0 3070.59787512 0 558.89539630 0 -211.50136196 0 21447
0.14150000 0.14148400 11397.09216005 0 -12.83395672 0 2919.72432303 0 73.29240403 0 -521.33505783 0 21771
0.14250000 0.14249400 11544.49416750 0 99.43413341 0 2645.25047215 0 135.13625274 0 -142.16807160 0 22470
0.14350000 0.14350900 11270.76342681 0 160.13913802 0 2789.76876839 0 296.82372185 0 -581.03120717 0 22519
0.14450000 0.14449900 11000.34895402 0 233.04046644 0 2581.94191997 0 45.56540986 0 328.88282663 0 22218
0.14550000 0.14550500 10595.91954850 0 160.55616702 0 2786.99596915 0 157.46283219 0 182.17956459 0 23559
0.14650000 0.14650700 10596.37428757 0 202.99441391 0 2742.50917819 0 182.69752349 0 497.83170238 0 23044
0.14750000 0.14750500 10316.19956147 0 130.24947136 0 3076.59821266 0 127.77058884 0 642.30563383 0 23649
0.14850000 0.14849900 10044.59833060 0 194.73147218 0 2535.56962553 0 165.68584561 0 1207.92007724 0 23640
0.14950000 0.14949500 10017.30289491 0 52.48454217 0 2791.56554229 0 171.43774035 0 1334.01589534 0 24457
0.15050000 0.15050000 9903.39630225 0 50.30634200 0 2460.68186374 0 103.38991971 0 1446.65809155 0 24591
0.15150000 0.15149900 9818.22700088 0 192.46221328 0 2875.28189686 0 191.75348580 0 1663.50208308 0 25020
0.15250000 0.15250500 9528.55821019 0 80.03507539 0 2803.62167337 0 -219.07110388 0 1413.88360457 0 25297
0.15350000 0.15350100 9395.87422110 0 226.34914732 0 2767.53091851 0 -43.46495898 0 1414.19415808 0 25452
0.15450000 0.15450400 9338.99856315 0 44.15649511 0 2570.09652163 0 149.03463163 0 1525.72723459 0 26061
0.15550000 0.15549900 9270.90970508 0 -98.30016943 0 2480.77911261 0 381.57821245 0 1480.81897815 0 26128
0.15650000 0.15649500 9442.08014758 0 -135.54329966 0 2164.89073232 0 568.43937127 0 1360.43512647 0 26331
0.15750000 0.15749700 9465.11656364 0 34.64424096 0 1707.29012863 0 187.99800651 0 1335.20265341 0 27345
0.15850000 0.15849900 9443.00071693 0 130.71751987 0 1526.10433529 0 116.94336238 0 1511.24213138 0 26980
0.15950000 0.15949700 9073.63058496 0 190.43806984 0 1735.82777838 0 -368.82999068 0 1259.40541347 0 27777
0.16050000 0.16050000 8937.51941601 0 195.72302519 0 1941.78021451 0 -33.97111622 0 1502.62427135 0 28224
0.16150000 0.16150500 8965.66887387 0 -16.80604709 0 1732.53369289 0 -49.58441599 0 880.26615523 0 28075
0.16250000 0.16249700 8784.22798299 0 84.20625273 0 2082.16149429 0 -117.31824484 0 475.45853990 0 28590
0.16350000 0.16349900 8848.05782143 0 186.77021101 0 2269.62490511 0 -304.30140683 0 762.10387030 0 29163
0.16450000 0.16449100 8521.53298327 0 101.06387389 0 2164.87964113 0 -138.54014108 0 274.37513922 0 28996
0.16550000 0.16550500 8584.67516750 0 28.17884953 0 2416.73854143 0 72.48163753 0 498.45946413 0 30777
0.16650000 0.16650700 8485.83042030 0 110.99293522 0 2293.65952889 0 -88.52727215 0 -312.92148510 0 29211
0.16750000 0.16749900 8336.77582451 0 81.94675409 0 2411.00439260 0 186.82677611 0 700.12958912 0 30922
0.16850000 0.16850800 8298.91047813 0 -22.03654466 0 2124.08621875 0 132.48767491 0 208.29711517 0 30867
0.16950000 0.16949900 8440.42305999 0 -40.03389721 0 2038.57309028 0 353.14260171 0 850.50403734 0 30852
0.17050000 0.17049200 8323.95440084 0 96.59401061 0 1970.39550264 0 281.17293383 0 240.34956523 0 31257
0.17150000 0.17149500 8309.05892334 0 71.00717381 0 1823.17095435 0 -200.96472486 0 612.95056286 0 32608
0.17250000 0.17250900 8086.38096221 0 129.46088726 0 1850.68821398 0 -187.10849252 0 322.98341897 0 32361
0.17350000 0.17350400 8085.22747772 0 130.75079346 0 2094.53927008 0 -226.00088374 0 -163.29125619 0 32508
0.17450000 0.17449800 7964.56634612 0 69.77804736 0 1882.27594289 0 -159.08658343 0 -404.03899539 0 32791
0.17550000 0.17549800 7826.56967369 0 110.72286457 0 2374.12616275 0 -150.57298065 0 -542.09777852 0 33633
0.17650000 0.17650100 7749.96277637 0 148.66973125 0 2168.52864492 0 -135.16287161 0 -654.13328625 0 33984
0.17750000 0.17750300 7613.34141237 0 34.63470253 0 2230.12915277 0 125.90837688 0 -944.07935687 0 34069
0.17850000 0.17849800 7595.41803810 0 6.65881082 0 2068.10894775 0 192.01301981 0 -646.44375941 0 34536
