### header ###
fiducial parameters:
Omega_m = 0.31
Omega_nu = 0
Omega_de = 0.69
Omega_k = 0
H_0 = 100
w_de = -1
zeff = 0
beta = 0
fgrowth = 0
b_1 = 2
gamma = 0.55
Lx = 3500 Ly = 3500 Lz = 3500
nx = 700 ny = 700 nz = 700
xoffset = 1379.75464 yoffset = 22.6059522 zoffset = 368.141391
bins = 400 dk = 0.001
kx_ny = 0.628318531 ky_ny = 0.628318531 kz_ny = 0.628318531
############################
A(data) = 3.36528037 (not used)
A(ran) = 3.36167873 (used)
Ngal = 189120
weighted Ngal = 0
Nran = 9399747
weighted Nran = 0
SN(data) = 6697.15231
SN(ran) = 133.712059
SN(data+ran) = 6830.86437
############################
13 columns: k_central k_mean P_0(k) sigma^{lin}_{P_0(k)} P^img_1(k) sigma^{lin}_{P_1(k)} P_2(k) sigma^{lin}_{P_2(k)} P^img_3(k) sigma^{lin}_{P_3(k)} P_4(k) sigma^{lin}_{P_4(k)} N_modes
### header ###
0.00050000 0 0 0 0 0 0 0 0 0 0 0 0
0.00150000 0.00179520 11711.97124141 0 -12334.07647824 0 -21394.80800115 0 4819.99018736 0 -59359.42059507 0 3
0.00250000 0.00253879 32525.26778657 0 -25011.98006188 0 -25530.16078330 0 8463.24874331 0 39326.50066719 0 6
0.00350000 0.00331552 47373.27496510 0 -23681.92372384 0 -18704.86000530 0 -49651.96137811 0 -54858.50196151 0 7
0.00450000 0.00420575 73515.55890796 0 -13947.51289830 0 -32447.29667203 0 -26371.20624788 0 -3205.83283951 0 24
0.00550000 0.00557378 86508.23066099 0 -10612.05724006 0 -28071.37582807 0 -24645.19417880 0 -5582.67634551 0 45
0.00650000 0.00659388 98533.08456831 0 4105.60619193 0 8073.08261707 0 -32785.02361910 0 -15296.64609508 0 40
0.00750000 0.00754703 92086.21543019 0 9749.97177486 0 -4575.29620029 0 -20936.51974325 0 -39877.73315552 0 57
0.00850000 0.00846663 85046.07816731 0 3892.28920102 0 32607.56446793 0 -8569.15858297 0 -18452.31345079 0 75
0.00950000 0.00948925 74900.29484695 0 -2640.18179515 0 7890.87643360 0 5503.21901057 0 -26453.39201727 0 112
0.01050000 0.01054430 81856.02810106 0 -875.48917671 0 15706.90947019 0 -6461.58715647 0 -52670.98518741 0 105
0.01150000 0.01145670 84217.12210740 0 2936.69385436 0 18171.26252012 0 -21592.45313077 0 -46365.30698644 0 144
0.01250000 0.01249090 72566.37427314 0 11089.74400142 0 18309.45883410 0 -26790.89714040 0 -59782.77158258 0 169
0.01350000 0.01339930 66336.33803535 0 6618.16158379 0 29381.46801160 0 -17230.39628300 0 -49285.28640700 0 180
0.01450000 0.01448870 60788.74314579 0 -2728.54536123 0 21613.85914088 0 17522.53841062 0 -41760.90748536 0 267
0.01550000 0.01550050 68336.96814087 0 -3476.32495068 0 14420.99609602 0 16459.66900707 0 -42579.65964407 0 238
0.01650000 0.01653350 73283.75289175 0 -5805.76468093 0 -3611.42682070 0 11300.59874661 0 -23237.94311001 0 315
0.01750000 0.01747870 71970.66608505 0 2506.23340960 0 676.98337021 0 -1928.23786304 0 -24643.08685138 0 297
0.01850000 0.01844180 67260.78930098 0 6566.48769721 0 -6040.26585800 0 -12584.07205745 0 -7368.81379325 0 388
0.01950000 0.01947590 61842.07411996 0 5478.03090230 0 14463.14264442 0 -7781.70578204 0 -13921.33767350 0 399
0.02050000 0.02045430 56731.47239016 0 4611.46459354 0 28257.37520090 0 -6214.87457156 0 -4338.48805425 0 462
0.02150000 0.02154770 53639.91215281 0 -800.00249028 0 22156.99505543 0 4310.66024111 0 -7280.70532469 0 571
0.02250000 0.02255340 61999.01455678 0 -4079.17586960 0 20648.03771063 0 10179.47837668 0 -2204.48630543 0 510
0.02350000 0.02348930 62736.02459399 0 -4454.75707186 0 18738.02268417 0 6405.23278478 0 2231.91483548 0 555
0.02450000 0.02439640 63773.71698046 0 687.30927456 0 5816.09058528 0 1023.98144881 0 -6526.24883468 0 592
0.02550000 0.02547300 67476.06943375 0 -1205.42455792 0 8582.91166719 0 1552.91175831 0 -6552.56824504 0 837
0.02650000 0.02652900 66146.01309572 0 -662.81547522 0 7816.28813412 0 -4256.19137290 0 -12233.03567404 0 723
0.02750000 0.02749970 69431.11471981 0 1169.68872136 0 12731.47406490 0 -1196.95088346 0 -4579.23357521 0 826
0.02850000 0.02848090 65197.93758058 0 1439.21589840 0 4677.06902349 0 186.33987257 0 -13844.69750259 0 831
0.02950000 0.02946900 63163.36841240 0 1272.85903537 0 5549.83531135 0 -283.94240571 0 -13549.78257574 0 996
0.03050000 0.03053250 61208.10130240 0 2432.02221082 0 12057.35111438 0 158.68951858 0 -8708.94093811 0 1041
0.03150000 0.03150510 55396.97957335 0 3902.68165256 0 13345.14999204 0 -6378.34772338 0 -13833.27356973 0 1036
0.03250000 0.03246190 54064.59408396 0 3576.44518553 0 12361.13899879 0 -5883.61379231 0 -12921.02262074 0 1059
0.03350000 0.03345080 51682.31589145 0 -99.65551370 0 18680.68119595 0 -147.38093417 0 -13278.15916247 0 1302
0.03450000 0.03451200 48140.00941013 0 2257.57986522 0 21279.79228880 0 -3133.00804034 0 -12363.24632621 0 1339
0.03550000 0.03553350 50892.17902086 0 984.08641339 0 25579.73843366 0 783.47106123 0 -11184.58482653 0 1365
0.03650000 0.03647120 47440.82035451 0 -122.66531089 0 20574.61398683 0 -218.23704587 0 -13615.44246167 0 1308
0.03750000 0.03744890 48116.71789654 0 2223.76280572 0 27297.65392897 0 -1626.21347894 0 -9867.69373927 0 1579
0.03850000 0.03847530 46128.17719569 0 366.16255781 0 26880.62492371 0 1249.10169151 0 -7405.63656712 0 1662
0.03950000 0.03950240 45570.40090116 0 -105.85848742 0 28166.87103380 0 5404.44081055 0 -3219.61919731 0 1683
0.04050000 0.04050350 47647.44935366 0 -841.91612354 0 24896.52070164 0 4050.47185190 0 -2280.66064607 0 1822
0.04150000 0.04152450 47243.95160868 0 23.25957094 0 20660.68167515 0 6057.60139883 0 2555.93306313 0 1887
0.04250000 0.04250150 47047.97015860 0 471.02427936 0 20987.87198512 0 2323.20647756 0 2393.02556235 0 1920
0.04350000 0.04349210 45001.42249772 0 2460.99241725 0 17925.48159575 0 894.79673235 0 9469.50867764 0 2005
0.04450000 0.04448520 42790.72512200 0 1827.13051166 0 21610.42086983 0 1079.77127858 0 7924.08347726 0 2151
0.04550000 0.04548030 40763.80887971 0 959.60703260 0 19929.21723641 0 1598.79604009 0 12094.17388825 0 2274
0.04650000 0.04648670 38723.69411305 0 1024.71346781 0 20808.41641850 0 1736.40452062 0 6433.60406657 0 2311
0.04750000 0.04749250 37847.93320202 0 1186.93553261 0 19028.27930831 0 254.77699422 0 8225.98585819 0 2568
0.04850000 0.04851840 36462.97543910 0 573.38382687 0 19680.44168887 0 672.92731948 0 8332.00660982 0 2493
0.04950000 0.04949480 35152.10687179 0 377.60312746 0 18975.15247493 0 987.68107032 0 5606.65551331 0 2644
0.05050000 0.05050630 36313.57701621 0 -633.94508957 0 16226.42113525 0 2588.89610046 0 6047.99642227 0 2829
0.05150000 0.05149060 36806.24798465 0 -416.96467631 0 10744.34194606 0 3632.82173962 0 -1236.56863895 0 2784
0.05250000 0.05249300 36579.21118312 0 -314.66058478 0 11595.73549740 0 -66.82191064 0 1689.55530471 0 3055
0.05350000 0.05348950 35997.81063909 0 1395.45003524 0 11876.12095625 0 -1121.86348012 0 -3224.31077362 0 3009
0.05450000 0.05448610 34328.80732232 0 1014.45854711 0 10750.81920508 0 -528.27814712 0 -158.00075525 0 3336
0.05550000 0.05550870 32921.99990141 0 154.94845785 0 10539.37662646 0 -83.61331735 0 -3547.05351362 0 3349
0.05650000 0.05647670 32828.05746326 0 728.30677496 0 9682.10474074 0 325.59095937 0 -3878.38084005 0 3324
0.05750000 0.05747970 31542.25500105 0 489.68521822 0 11205.21445285 0 881.25105352 0 -2090.66844235 0 3639
0.05850000 0.05849280 31201.08978292 0 717.61486111 0 10083.62825266 0 1262.49985742 0 -2653.55777867 0 3846
0.05950000 0.05951020 31323.86933314 0 553.16235660 0 11502.90217894 0 -248.93193343 0 -1176.84254339 0 3787
0.06050000 0.06049470 30760.88017605 0 767.19805706 0 13108.79658507 0 -1829.08256232 0 -377.82495140 0 3930
0.06150000 0.06148310 28617.95001368 0 582.12479919 0 12233.92296980 0 188.22315781 0 2911.47247250 0 4083
0.06250000 0.06249100 29282.42362285 0 -377.18609846 0 14921.54181429 0 2862.95957705 0 5635.02679510 0 4303
0.06350000 0.06350600 30767.42398225 0 -819.51079659 0 12900.39299442 0 2870.91196526 0 3767.53541775 0 4470
0.06450000 0.06451750 30995.12625559 0 -390.32029388 0 14024.37489315 0 1695.66655423 0 7013.91767330 0 4479
0.06550000 0.06550280 30980.48587562 0 584.01695739 0 11717.62775186 0 -1760.35041483 0 7647.02537750 0 4636
0.06650000 0.06648880 31130.66068230 0 365.76660208 0 14294.00189096 0 1232.78654079 0 11322.89205247 0 4653
0.06750000 0.06749660 31297.36137243 0 -246.83236984 0 12122.78917638 0 2117.30949742 0 8485.74169072 0 5220
0.06850000 0.06852730 31700.85911741 0 -370.22637237 0 13044.13490687 0 827.52307726 0 10016.00522486 0 5029
0.06950000 0.06949320 30964.29272808 0 823.48033598 0 13531.26027683 0 382.92912024 0 8878.00405319 0 5040
0.07050000 0.07048030 30259.89080990 0 1142.12709694 0 11480.60887307 0 -2210.44227819 0 9003.66731461 0 5475
0.07150000 0.07148790 28843.43404764 0 996.59173794 0 16038.53625895 0 -957.11484065 0 7926.47917580 0 5509
0.07250000 0.07249820 28860.18175503 0 151.09204867 0 14408.57395544 0 908.25479073 0 8632.54477353 0 5916
0.07350000 0.07351270 28265.24995073 0 -148.47230795 0 14836.36142173 0 2330.95922423 0 5877.04780371 0 5721
0.07450000 0.07449140 28349.43213557 0 -51.73544272 0 11021.91024089 0 779.90413229 0 5590.60655133 0 6028
0.07550000 0.07549160 28013.70160394 0 199.42859409 0 12940.09947949 0 1431.41878694 0 7714.74822606 0 6183
0.07650000 0.07648840 27230.21945152 0 733.81133601 0 9587.18627726 0 1177.58565358 0 6002.75542992 0 6330
0.07750000 0.07749960 26232.78810997 0 535.69039404 0 11122.14138771 0 473.58523673 0 7350.34695033 0 6583
0.07850000 0.07848650 26190.30882565 0 375.35383272 0 9113.14851969 0 1432.99373691 0 6248.04834163 0 6549
0.07950000 0.07947320 25388.52619827 0 -33.59590103 0 9525.25303350 0 1295.67362749 0 8135.52605588 0 6828
0.08050000 0.08048110 24902.28812406 0 371.70261068 0 7774.38559205 0 -281.73969400 0 5237.49611409 0 7147
0.08150000 0.08149960 24370.57614236 0 1071.07356193 0 9367.86894880 0 -1282.85220382 0 5833.31521415 0 7386
0.08250000 0.08250610 22904.20899384 0 790.92545469 0 9834.81943152 0 -1379.15706692 0 3452.83379554 0 7227
0.08350000 0.08350160 22504.81499173 0 338.52218589 0 11229.94782204 0 -163.61401002 0 4611.28713439 0 7798
0.08450000 0.08449610 22247.27739859 0 -11.69278347 0 10752.29433427 0 781.50681025 0 2954.68377581 0 7371
0.08550000 0.08548940 22431.94582778 0 -14.66533516 0 10535.90508181 0 1144.52279548 0 2875.03789052 0 8256
0.08650000 0.08650700 22205.46358610 0 27.62861525 0 9761.95026757 0 1041.72736393 0 4481.55340369 0 8037
0.08750000 0.08749060 22157.21687937 0 358.35768252 0 9684.82208399 0 163.60846442 0 3776.92966157 0 8155
0.08850000 0.08849210 21221.67441679 0 857.05671650 0 10031.51071820 0 -60.06526437 0 4859.77431082 0 8718
0.08950000 0.08949900 20590.58531044 0 556.85683430 0 10799.84229559 0 -286.21166461 0 4130.66120584 0 8571
0.09050000 0.09049190 19785.58623593 0 154.19314733 0 9604.36654133 0 708.06312229 0 3268.05445438 0 8932
0.09150000 0.09150830 19692.97474142 0 44.28204746 0 9293.36937890 0 1037.50161789 0 2434.20717662 0 9285
0.09250000 0.09250820 19552.56018805 0 -131.08685673 0 7382.08995599 0 456.50812079 0 1410.52297189 0 9204
0.09350000 0.09350330 19660.14479845 0 -202.83470067 0 6249.62329160 0 1537.65027131 0 1257.42008922 0 9349
0.09450000 0.09448040 19479.13646425 0 136.68014735 0 4468.48797368 0 -6.86718114 0 -1348.91137284 0 9564
0.09550000 0.09549270 18986.13275991 0 441.48953100 0 4743.19473970 0 -790.88330815 0 -798.58836267 0 10155
0.09650000 0.09649430 18085.74939165 0 575.86714587 0 4819.71290744 0 15.74705960 0 -2612.49816756 0 9913
0.09750000 0.09749140 17731.49656112 0 349.49248880 0 4990.99426191 0 -136.03131233 0 -1569.62619211 0 10476
0.09850000 0.09850240 17386.44942406 0 198.45700523 0 4769.10377577 0 -469.50922185 0 -3146.20656471 0 10575
0.09950000 0.09950330 17098.96559917 0 247.53444261 0 5849.14235219 0 208.88051213 0 -1973.20157547 0 10882
0.10050000 0.10051200 16947.12711295 0 239.05744078 0 5875.67249529 0 -245.42711519 0 -1619.94695267 0 10875
0.10150000 0.10150300 17081.88515587 0 -57.79445271 0 5803.08061126 0 556.45755121 0 -722.22103520 0 11118
0.10250000 0.10250800 16885.57096988 0 -9.10839040 0 6789.91985973 0 52.33924749 0 271.11654556 0 11575
0.10350000 0.10349800 16980.62252773 0 269.94864252 0 6528.06779098 0 34.36074997 0 -667.57470783 0 11364
0.10450000 0.10450100 16610.84202148 0 373.56704089 0 7690.55832552 0 -349.14422521 0 978.14375006 0 12093
0.10550000 0.10551000 16606.07280679 0 311.81569276 0 8022.51785018 0 -293.86015402 0 494.87368015 0 12067
0.10650000 0.10649700 16412.75324398 0 -5.05165202 0 8303.65751042 0 522.80242319 0 1307.46356985 0 12054
0.10750000 0.10749900 16119.72382061 0 117.56003293 0 7975.43571913 0 202.70715190 0 1022.07265381 0 12807
0.10850000 0.10850100 16169.30147097 0 75.34704826 0 7595.52895007 0 343.12946911 0 1042.45938292 0 12736
0.10950000 0.10950300 16074.24991312 0 165.35089146 0 7829.22046977 0 601.30369695 0 1096.99590744 0 12933
0.11050000 0.11050200 15537.76871673 0 213.23713429 0 7381.57976094 0 -107.70561536 0 1065.66105782 0 13428
0.11150000 0.11150900 15355.54035088 0 474.81192311 0 7390.72999842 0 -162.12224403 0 814.83252972 0 13453
0.11250000 0.11250000 14974.11408783 0 358.73700145 0 7443.20245118 0 -361.02178802 0 52.37119013 0 13668
0.11350000 0.11349100 14406.24480408 0 174.70631609 0 7908.64453111 0 -138.37820960 0 -41.66208492 0 13791
0.11450000 0.11448600 14160.57479167 0 152.06918312 0 7348.17307573 0 380.50125722 0 -1170.79784105 0 14205
0.11550000 0.11549300 14183.31174542 0 23.57700100 0 7565.12797923 0 -45.12919309 0 -1209.73903354 0 14776
0.11650000 0.11649800 14196.62118176 0 -158.65735410 0 6634.44346091 0 801.14266532 0 -931.69936284 0 14553
0.11750000 0.11747300 14269.26852177 0 -45.44529220 0 6590.86614810 0 268.49347748 0 -2024.13235185 0 14568
0.11850000 0.11849100 14271.81949706 0 78.66520165 0 5572.36153235 0 269.14896722 0 -1498.32088693 0 16015
0.11950000 0.11950300 14140.83246111 0 97.98384850 0 6135.86088450 0 108.58514727 0 -1419.06319354 0 15270
0.12050000 0.12050700 14208.04511461 0 -110.60363421 0 5376.14716714 0 492.37594260 0 -901.75202196 0 15999
0.12150000 0.12150000 14152.36730593 0 3.91078932 0 5195.32738329 0 162.57254663 0 -2198.29741753 0 15670
0.12250000 0.12250700 14114.76814828 0 157.12898717 0 5393.94853824 0 9.30310745 0 -1092.97534854 0 16887
0.12350000 0.12352200 13946.95833845 0 44.99277136 0 5061.23481219 0 29.69357429 0 -1685.80648015 0 16407
0.12450000 0.12449800 13816.63677431 0 283.38340939 0 4853.00868068 0 118.21108619 0 -1105.46736367 0 16306
0.12550000 0.12549900 13740.88389915 0 134.29775825 0 5032.45315610 0 202.55742075 0 -1325.87495678 0 17523
0.12650000 0.12650100 13373.21072032 0 201.24865951 0 4669.47155358 0 522.71702097 0 -505.25947698 0 17154
0.12750000 0.12750600 13079.18308922 0 93.02697076 0 4377.55124990 0 369.15718099 0 -401.78970065 0 18007
0.12850000 0.12850300 12971.93121473 0 106.68600162 0 4089.56832114 0 631.45511585 0 -828.93165928 0 17496
0.12950000 0.12949900 12781.82809904 0 152.25662435 0 3463.19297349 0 15.18673233 0 21.89701740 0 18405
0.13050000 0.13049000 12658.82672488 0 100.97148422 0 3474.13998488 0 384.61165481 0 -96.40557117 0 18100
0.13150000 0.13148800 12467.17084162 0 7.98977664 0 3540.76480495 0 434.46769421 0 718.53764869 0 19059
0.13250000 0.13249300 12420.58781444 0 80.16107138 0 2981.91266432 0 451.23425664 0 246.82682424 0 18957
0.13350000 0.13349100 12280.39508501 0 181.61169531 0 2599.01127207 0 247.79619486 0 783.76941442 0 19468
0.13450000 0.13450700 11730.38262835 0 359.67975319 0 3241.82377360 0 -426.81144096 0 1182.16631792 0 19953
0.13550000 0.13551000 11435.02405362 0 422.64226003 0 3711.39177880 0 -107.10014692 0 1650.56974744 0 19956
0.13650000 0.13649900 11275.64355347 0 126.34537004 0 3734.41710366 0 -89.91533545 0 1546.30140493 0 19723
0.13750000 0.13749600 11098.40622624 0 -15.07038568 0 3844.17558866 0 486.39778745 0 1449.70817071 0 20946
0.13850000 0.13851100 11019.37035679 0 11.88211020 0 4038.03862012 0 140.38904361 0 2213.84727565 0 20955
0.13950000 0.13949800 11192.45957636 0 -24.08309232 0 3756.52185918 0 -232.96504630 0 1931.93123162 0 20506
0.14050000 0.14048300 11385.55731523 0 -10.69257933 0 4145.61213932 0 228.12706619 0 1995.98289400 0 21447
0.14150000 0.14148400 11281.85462376 0 18.02740970 0 3516.90764031 0 -266.69115798 0 1222.20553891 0 21771
0.14250000 0.14249400 11229.39326220 0 66.78952434 0 4063.63710268 0 116.89234288 0 1831.99954712 0 22470
0.14350000 0.14350900 11221.74033630 0 116.65720950 0 3815.07228787 0 225.84338874 0 1100.27779262 0 22519
0.14450000 0.14449900 11050.85826492 0 137.77817585 0 3858.81596863 0 -8.11768032 0 1489.27047022 0 22218
0.14550000 0.14550500 10839.16058877 0 190.99262969 0 3430.30757454 0 186.29550778 0 1145.75391834 0 23559
0.14650000 0.14650700 10620.55309692 0 178.55939791 0 3843.51011685 0 24.82010235 0 1368.78679777 0 23044
0.14750000 0.14750500 10483.90955052 0 45.27238044 0 3472.33211978 0 68.06423561 0 734.19176406 0 23649
0.14850000 0.14849900 10152.10530262 0 195.21837573 0 3769.42092123 0 -163.59737323 0 396.96392085 0 23640
0.14950000 0.14949500 10226.63814611 0 217.89321877 0 3427.83423762 0 -599.74094730 0 -75.34505184 0 24457
0.15050000 0.15050000 9735.63085721 0 25.13731059 0 3670.16579974 0 333.59991269 0 25.61611756 0 24591
0.15150000 0.15149900 9915.74080445 0 -59.68805276 0 3123.72470850 0 459.81329748 0 46.76414643 0 25020
0.15250000 0.15250500 9931.42375694 0 -141.48374475 0 2400.97795056 0 770.14942457 0 -515.74398545 0 25297
0.15350000 0.15350100 10018.19019066 0 36.08509836 0 2300.86880691 0 329.23885405 0 -56.72670318 0 25452
0.15450000 0.15450400 9788.04785399 0 167.77431800 0 1733.77590695 0 -45.71203549 0 -206.96173505 0 26061
0.15550000 0.15549900 9709.32253805 0 114.86598119 0 2019.76242026 0 271.14427355 0 467.73130298 0 26128
0.15650000 0.15649500 9413.60904502 0 0.32813750 0 1567.80723581 0 177.37485807 0 3.33028716 0 26331
0.15750000 0.15749700 9491.25851485 0 199.73360200 0 1823.90297335 0 -285.99982275 0 -185.94613508 0 27345
0.15850000 0.15849900 9241.90622506 0 105.40796300 0 1684.29807736 0 27.13949346 0 186.52065908 0 26980
0.15950000 0.15949700 9146.96557918 0 74.21308428 0 1889.93995998 0 -63.17501417 0 -339.10891021 0 27777
0.16050000 0.16050000 8979.67705561 0 229.82734668 0 1851.19840904 0 -160.76135417 0 -251.64373108 0 28224
0.16150000 0.16150500 8826.75163209 0 255.80071170 0 1968.35472240 0 -364.99465477 0 -442.55206767 0 28075
0.16250000 0.16249700 8619.46825233 0 45.69761693 0 2519.17683644 0 -11.41994003 0 -275.60737121 0 28590
0.16350000 0.16349900 8592.26154621 0 -47.30406590 0 2220.99000649 0 240.70670177 0 -475.99979031 0 29163
0.16450000 0.16449100 8687.14673610 0 -14.76770691 0 2154.83101669 0 172.16754111 0 -340.16479216 0 28996
0.16550000 0.16550500 8648.92647142 0 38.61732953 0 2089.94751454 0 117.38368290 0 -91.10708456 0 30777
0.16650000 0.16650700 8760.25990639 0 -25.79390945 0 1892.86803597 0 188.46938238 0 3.08247655 0 29211
0.16750000 0.16749900 8614.64358165 0 119.43555434 0 2167.51934600 0 -70.35745149 0 -14.19784121 0 30922
0.16850000 0.16850800 8424.09681808 0 189.39438821 0 2060.58911622 0 -153.57647678 0 -104.19924435 0 30867
0.16950000 0.16949900 8370.81470794 0 161.07190768 0 2256.22673919 0 -229.27278683 0 89.78512480 0 30852
0.17050000 0.17049200 8152.08521293 0 71.50827408 0 2391.66134513 0 -31.14141914 0 -188.28194115 0 31257
0.17150000 0.17149500 8149.04622496 0 31.17558003 0 2264.03494184 0 132.98345141 0 -181.75255351 0 32608
0.17250000 0.17250900 8107.94224907 0 63.17423779 0 2170.22559806 0 295.12344136 0 104.70633388 0 32361
0.17350000 0.17350400 7903.97513720 0 -4.45586619 0 1787.84549207 0 241.18362324 0 -332.06489103 0 32508
0.17450000 0.17449800 8177.87224583 0 -9.04626860 0 1900.23259075 0 192.95466243 0 123.01246535 0 32791
0.17550000 0.17549800 7998.44995280 0 -63.39151433 0 1693.53704442 0 219.03561205 0 -56.66137603 0 33633
0.17650000 0.17650100 8060.67156768 0 89.93230498 0 1477.92417574 0 -65.75083375 0 -21.05508464 0 33984
0.17750000 0.17750300 7966.41857602 0 192.99902722 0 1833.84068581 0 -537.80770354 0 -336.03553954 0 34069
