### header ###
fiducial parameters:
Omega_m = 0.31
Omega_nu = 0
Omega_de = 0.69
Omega_k = 0
H_0 = 100
w_de = -1
zeff = 0
beta = 0
fgrowth = 0
b_1 = 2
gamma = 0.55
Lx = 3500 Ly = 3500 Lz = 3500
nx = 700 ny = 700 nz = 700
xoffset = 1379.75464 yoffset = 22.6059522 zoffset = 368.141391
bins = 400 dk = 0.001
kx_ny = 0.628318531 ky_ny = 0.628318531 kz_ny = 0.628318531
############################
A(data) = 3.2965605 (not used)
A(ran) = 3.28990232 (used)
Ngal = 185061
weighted Ngal = 0
Nran = 9399747
weighted Nran = 0
SN(data) = 6723.99279
SN(ran) = 130.857124
SN(data+ran) = 6854.84991
############################
13 columns: k_central k_mean P_0(k) sigma^{lin}_{P_0(k)} P^img_1(k) sigma^{lin}_{P_1(k)} P_2(k) sigma^{lin}_{P_2(k)} P^img_3(k) sigma^{lin}_{P_3(k)} P_4(k) sigma^{lin}_{P_4(k)} N_modes
### header ###
0.00050000 0 0 0 0 0 0 0 0 0 0 0 0
0.00150000 0.00179520 38939.08515779 0 -4425.24339678 0 -23445.68122885 0 16704.00807584 0 -214080.06525520 0 3
0.00250000 0.00253879 69053.79219963 0 -21578.14548671 0 6807.79886921 0 7368.12613904 0 98946.89712645 0 6
0.00350000 0.00331552 74797.81218715 0 -20555.64804005 0 9198.48418901 0 -23391.99983562 0 -57845.02856376 0 7
0.00450000 0.00420575 89953.26734508 0 1910.13702962 0 34605.31086224 0 -17756.67357820 0 22751.03956398 0 24
0.00550000 0.00557378 85395.45087118 0 7866.77526263 0 55306.69723019 0 -11816.11758076 0 8355.42012658 0 45
0.00650000 0.00659388 94754.64650396 0 13104.02737039 0 68192.89349251 0 55920.81680521 0 53221.99585180 0 40
0.00750000 0.00754703 75505.65237638 0 1968.66527592 0 45629.73880484 0 44968.14890687 0 25426.01444395 0 57
0.00850000 0.00846663 74092.85570912 0 6262.61108322 0 66456.56661027 0 29582.88414818 0 35485.39734008 0 75
0.00950000 0.00948925 85504.03368930 0 -6771.16464569 0 41902.65298235 0 31319.43285436 0 18139.76352079 0 112
0.01050000 0.01054430 71134.50074712 0 2340.86366310 0 22108.85926068 0 8682.93208126 0 31883.64204312 0 105
0.01150000 0.01145670 76403.48476934 0 7183.12497394 0 21693.27211103 0 -9332.29948019 0 6040.36567877 0 144
0.01250000 0.01249090 66236.07361494 0 3543.29359785 0 24931.01432415 0 -6373.31231996 0 -2010.25726447 0 169
0.01350000 0.01339930 72099.65670555 0 -1101.63979160 0 31996.32860411 0 10188.18496629 0 5865.89005958 0 180
0.01450000 0.01448870 67171.39425358 0 -4933.66386489 0 17820.78069656 0 2578.68110807 0 -7845.02542542 0 267
0.01550000 0.01550050 81724.26468131 0 -2224.91629021 0 19083.84620502 0 6563.16033813 0 -28156.99986851 0 238
0.01650000 0.01653350 82873.09086121 0 -5523.64899535 0 8628.77376657 0 7977.24358424 0 187.29815198 0 315
0.01750000 0.01747870 89907.57161365 0 -1993.89774897 0 1742.65995570 0 8061.50340745 0 4339.06479649 0 297
0.01850000 0.01844180 92434.36810240 0 -435.20414969 0 8902.14958895 0 2923.52860358 0 14273.37226464 0 388
0.01950000 0.01947590 87074.76900111 0 5963.08221844 0 20314.08177052 0 -3447.41020023 0 15597.55026829 0 399
0.02050000 0.02045430 81092.95375102 0 7276.02483958 0 33986.75480844 0 -4615.54615402 0 21510.60009729 0 462
0.02150000 0.02154770 77427.31315963 0 4734.18868777 0 38771.27534796 0 -4644.19471574 0 28065.94114157 0 571
0.02250000 0.02255340 70420.89313547 0 2191.13250430 0 51359.00750041 0 8381.42898342 0 19930.43726808 0 510
0.02350000 0.02348930 70926.65171631 0 3049.67987767 0 49042.72192974 0 -1417.63242913 0 27505.72478371 0 555
0.02450000 0.02439640 68923.69245943 0 772.80243888 0 47443.03859390 0 6625.13794667 0 13284.81388064 0 592
0.02550000 0.02547300 68721.38902710 0 1040.47516779 0 46506.16518768 0 3308.02712819 0 16763.01324360 0 837
0.02650000 0.02652900 69151.94929263 0 642.89568551 0 44619.44167482 0 5132.93940046 0 9256.64642580 0 723
0.02750000 0.02749970 64154.81050760 0 935.92510888 0 45695.73142668 0 5381.68167441 0 15167.10091472 0 826
0.02850000 0.02848090 66631.80752205 0 2429.67087707 0 38759.85141511 0 4685.14341487 0 5794.35183927 0 831
0.02950000 0.02946900 61366.26177088 0 1277.09587260 0 36077.00178530 0 5760.75660371 0 10447.71897488 0 996
0.03050000 0.03053250 59569.70968921 0 1602.70014141 0 34623.72224917 0 2259.93119897 0 6771.46410801 0 1041
0.03150000 0.03150510 59977.53300099 0 2190.83304199 0 34557.06415552 0 664.78194444 0 9627.26986303 0 1036
0.03250000 0.03246190 55559.13287273 0 264.88662024 0 30815.22704109 0 4805.26107782 0 8489.97852796 0 1059
0.03350000 0.03345080 57022.61631005 0 262.47761226 0 32022.28200497 0 3500.76994875 0 6073.81672877 0 1302
0.03450000 0.03451200 56018.75207427 0 774.93971253 0 23778.19531336 0 -1388.60676672 0 691.21781237 0 1339
0.03550000 0.03553350 54927.82194244 0 2369.93369031 0 28553.39924744 0 1974.14432721 0 713.67083147 0 1365
0.03650000 0.03647120 52490.08776519 0 194.68267091 0 31018.63959312 0 -366.02391785 0 3966.33403185 0 1308
0.03750000 0.03744890 53896.00789035 0 166.46112028 0 26509.84620973 0 5190.36961825 0 -4481.88613960 0 1579
0.03850000 0.03847530 52550.97843643 0 1121.51965301 0 25685.54845254 0 -360.92862197 0 -2338.00213429 0 1662
0.03950000 0.03950240 49834.74430381 0 1425.99519163 0 28016.58531515 0 -1763.64450033 0 -1240.99402654 0 1683
0.04050000 0.04050350 47971.09048060 0 2160.28788559 0 25677.34096680 0 -976.89709952 0 -6752.67562038 0 1822
0.04150000 0.04152450 47900.21773211 0 1874.10173074 0 28491.84310438 0 1327.51645393 0 -1843.24602083 0 1887
0.04250000 0.04250150 43417.71048548 0 -264.01485216 0 22746.60308520 0 6494.92729450 0 -6475.56206463 0 1920
0.04350000 0.04349210 45088.15565785 0 428.73798187 0 24602.82580646 0 1898.35817846 0 2026.40604723 0 2005
0.04450000 0.04448520 43482.81581157 0 494.50212506 0 18479.70870725 0 6423.87708685 0 -3254.76720044 0 2151
0.04550000 0.04548030 42864.14884580 0 335.74605930 0 20692.84614630 0 800.54595893 0 1514.95768235 0 2274
0.04650000 0.04648670 42142.44466038 0 1285.99101256 0 15899.56356119 0 -702.35337411 0 2471.02995049 0 2311
0.04750000 0.04749250 40185.18113492 0 1095.61948990 0 19990.10790766 0 1270.01968895 0 1659.86417048 0 2568
0.04850000 0.04851840 39662.89667063 0 626.92990750 0 18332.41761178 0 1850.76585236 0 5564.53114730 0 2493
0.04950000 0.04949480 38862.33407491 0 -170.53491692 0 16800.39057732 0 2511.55718414 0 1689.13383923 0 2644
0.05050000 0.05050630 39016.39080052 0 85.17285055 0 17709.31416723 0 1964.91645135 0 6272.63752526 0 2829
0.05150000 0.05149060 37512.64631828 0 630.00438729 0 13509.74335475 0 2105.84119977 0 6164.63144938 0 2784
0.05250000 0.05249300 38067.31707766 0 1463.76071724 0 18024.74780843 0 -668.06161138 0 6159.05257732 0 3055
0.05350000 0.05348950 35646.44151977 0 985.82329483 0 15735.85749423 0 -51.34780539 0 5112.68687483 0 3009
0.05450000 0.05448610 34439.38655590 0 831.65787549 0 18074.32545879 0 140.60088547 0 8148.86876581 0 3336
0.05550000 0.05550870 33753.28511268 0 561.87005532 0 18036.72630114 0 1625.70328388 0 5840.46903618 0 3349
0.05650000 0.05647670 33219.68762750 0 -575.46564454 0 15305.74087658 0 2641.23545886 0 5124.12189888 0 3324
0.05750000 0.05747970 34313.83420644 0 -576.38954124 0 14258.73188467 0 2355.02712161 0 8021.71928400 0 3639
0.05850000 0.05849280 34991.83907589 0 -749.27690103 0 10990.38905916 0 1780.86912919 0 6144.52310932 0 3846
0.05950000 0.05951020 36354.05988507 0 -832.29894667 0 10639.10866942 0 2006.70808145 0 6238.72064500 0 3787
0.06050000 0.06049470 35912.74115850 0 37.42746593 0 8153.57143332 0 101.02727294 0 4482.36306106 0 3930
0.06150000 0.06148310 37129.33455175 0 387.48205658 0 7315.36531515 0 -113.91990209 0 4588.12871516 0 4083
0.06250000 0.06249100 35613.83340074 0 876.32545296 0 10322.69900288 0 -1465.60185594 0 355.72906884 0 4303
0.06350000 0.06350600 34353.42977955 0 1848.44779219 0 9795.30149679 0 -3067.52561356 0 -725.36428041 0 4470
0.06450000 0.06451750 31697.08811045 0 1573.36392548 0 12969.26932747 0 -3380.05336117 0 -2339.76563461 0 4479
0.06550000 0.06550280 30982.81502698 0 1053.36868424 0 13921.44858547 0 -231.09285225 0 -3039.68670922 0 4636
0.06650000 0.06648880 29261.01761274 0 68.12235348 0 13621.98626787 0 1275.26582511 0 -5032.03169062 0 4653
0.06750000 0.06749660 30302.81374209 0 -283.36677259 0 13037.14745279 0 1760.09531730 0 -4627.83520024 0 5220
0.06850000 0.06852730 30349.61859321 0 -487.52021658 0 11249.35741670 0 2051.12832523 0 -3721.92841590 0 5029
0.06950000 0.06949320 30142.65685815 0 485.52380113 0 10219.93906315 0 -535.07594173 0 -4066.07716601 0 5040
0.07050000 0.07048030 29442.80233072 0 1547.21088308 0 11846.72928434 0 -2550.89765971 0 -4403.12755007 0 5475
0.07150000 0.07148790 28028.00924801 0 1066.51618910 0 12330.52729522 0 -540.52948327 0 -4356.17851338 0 5509
0.07250000 0.07249820 26579.83166248 0 232.21860874 0 14587.91861009 0 1253.82654141 0 -1945.40703592 0 5916
0.07350000 0.07351270 26818.40330883 0 -435.63116077 0 11646.31135548 0 3045.84232353 0 -2210.46446058 0 5721
0.07450000 0.07449140 26672.55406896 0 115.90744459 0 11311.80085552 0 2675.98417889 0 -214.92854182 0 6028
0.07550000 0.07549160 26529.47762833 0 13.23013428 0 7886.09612772 0 2748.15459744 0 2717.89781216 0 6183
0.07650000 0.07648840 25745.99547591 0 283.96791547 0 9479.65712284 0 1590.24472724 0 3266.57932519 0 6330
0.07750000 0.07749960 25625.54507705 0 675.49160422 0 6755.57042278 0 100.61933871 0 5374.01765732 0 6583
0.07850000 0.07848650 23981.49695342 0 688.59363517 0 6258.65152591 0 928.24001851 0 4432.63013395 0 6549
0.07950000 0.07947320 24229.49611718 0 204.17562638 0 7468.82311613 0 157.52827026 0 7084.39113871 0 6828
0.08050000 0.08048110 23205.22407901 0 -122.77067726 0 5298.44224132 0 688.05903948 0 2517.64625126 0 7147
0.08150000 0.08149960 23312.47595350 0 642.45869235 0 6117.27203841 0 -361.90797466 0 4576.03931049 0 7386
0.08250000 0.08250610 22197.03427642 0 907.91540010 0 7064.41589300 0 -2104.43261776 0 2734.21296287 0 7227
0.08350000 0.08350160 21182.07884368 0 670.82553766 0 7486.40266329 0 -428.56828656 0 2732.53819213 0 7798
0.08450000 0.08449610 21503.05808337 0 -149.56811821 0 8871.54897657 0 1379.01288136 0 3358.40334472 0 7371
0.08550000 0.08548940 21499.39798837 0 -403.96135701 0 6960.21409768 0 1243.40081627 0 1697.90697602 0 8256
0.08650000 0.08650700 21452.70404922 0 -8.37477427 0 6492.85324067 0 306.51853710 0 3093.57883519 0 8037
0.08750000 0.08749060 21607.64807059 0 465.23911103 0 6627.70001317 0 -525.23915916 0 1416.46785345 0 8155
0.08850000 0.08849210 20988.87019285 0 337.04705670 0 7942.19540188 0 -1047.99167196 0 2639.05049306 0 8718
0.08950000 0.08949900 20768.59902146 0 694.46087836 0 8386.67511958 0 -397.70703105 0 1367.67767808 0 8571
0.09050000 0.09049190 19889.06710346 0 295.85989683 0 8341.71140715 0 -211.85738939 0 1036.66423252 0 8932
0.09150000 0.09150830 19262.96903573 0 75.74932597 0 8170.88479176 0 980.65479705 0 730.80340340 0 9285
0.09250000 0.09250820 19513.85191070 0 119.05623540 0 7504.11530482 0 1112.25850356 0 709.92755250 0 9204
0.09350000 0.09350330 19344.15659740 0 126.89327516 0 6795.19926948 0 721.58218225 0 2434.17390303 0 9349
0.09450000 0.09448040 18787.37851059 0 405.31670128 0 6360.54635228 0 293.54072755 0 103.18351254 0 9564
0.09550000 0.09549270 18496.56732661 0 315.10645090 0 6672.22007772 0 -106.87466288 0 1862.61125070 0 10155
0.09650000 0.09649430 17872.24385040 0 244.34683261 0 5894.38334454 0 651.75089715 0 1140.46341740 0 9913
0.09750000 0.09749140 17717.63256494 0 -66.58112075 0 5082.35245117 0 1074.45415876 0 2726.67094895 0 10476
0.09850000 0.09850240 17753.12439517 0 -141.56692873 0 4718.12863459 0 810.19308203 0 2108.93564372 0 10575
0.09950000 0.09950330 17709.20325526 0 478.26683096 0 4755.51705950 0 357.81421387 0 3025.43452114 0 10882
0.10050000 0.10051200 17283.41220442 0 510.73298267 0 5133.18340679 0 -310.83523095 0 3119.29932092 0 10875
0.10150000 0.10150300 16292.85740497 0 425.92747256 0 5206.44076263 0 -297.55574085 0 2545.20787568 0 11118
0.10250000 0.10250800 15946.47932428 0 324.14577641 0 6209.17369633 0 -1105.29877747 0 3222.36981415 0 11575
0.10350000 0.10349800 15788.31885579 0 104.97607179 0 6786.15994397 0 169.76296961 0 2467.41422028 0 11364
0.10450000 0.10450100 15715.44969185 0 0.91751483 0 5952.95595563 0 588.44234497 0 1758.25417861 0 12093
0.10550000 0.10551000 15925.51696204 0 -91.53642480 0 5876.34905830 0 239.54434433 0 1376.50627085 0 12067
0.10650000 0.10649700 15770.90567659 0 32.58638028 0 5761.33334595 0 45.98587714 0 1733.25462069 0 12054
0.10750000 0.10749900 15958.34690501 0 102.30386971 0 5778.51361002 0 384.18131637 0 1408.94802192 0 12807
0.10850000 0.10850100 15470.99971111 0 42.28152827 0 4884.82932472 0 506.99857666 0 1659.37615782 0 12736
0.10950000 0.10950300 15371.73349842 0 315.21847199 0 4992.62466786 0 -49.80934546 0 1326.00805114 0 12933
0.11050000 0.11050200 15183.29406227 0 265.11509889 0 4954.73713909 0 107.48257139 0 1113.65599437 0 13428
0.11150000 0.11150900 14893.03743813 0 115.42719576 0 5271.79009505 0 282.48724067 0 1503.67793506 0 13453
0.11250000 0.11250000 14439.40748295 0 348.87914560 0 5506.77928479 0 -356.74834984 0 1529.11004966 0 13668
0.11350000 0.11349100 14165.45491833 0 185.24517143 0 4921.75191936 0 -95.72157705 0 1153.17392910 0 13791
0.11450000 0.11448600 14138.72513369 0 134.17464596 0 5893.60696076 0 126.40526250 0 1267.65726400 0 14205
0.11550000 0.11549300 13983.89202429 0 122.13958815 0 5387.19399930 0 200.55878706 0 713.24603863 0 14776
0.11650000 0.11649800 13811.09117584 0 181.84239221 0 5347.23241669 0 -75.16770361 0 1094.03012137 0 14553
0.11750000 0.11747300 13652.81979538 0 128.90189093 0 4722.33219824 0 418.98216504 0 659.23856421 0 14568
0.11850000 0.11849100 13707.49939634 0 -61.80624955 0 5117.79991662 0 372.57326965 0 1552.20192171 0 16015
0.11950000 0.11950300 13416.91003630 0 111.05948240 0 4982.65368181 0 288.79147702 0 902.10694026 0 15270
0.12050000 0.12050700 13477.57888360 0 325.92480440 0 4782.19138817 0 -230.26988544 0 1337.38761921 0 15999
0.12150000 0.12150000 12819.31634473 0 165.00706436 0 4887.89049508 0 -230.72573364 0 572.66068083 0 15670
0.12250000 0.12250700 12791.25561645 0 107.19320206 0 5006.77703517 0 27.84023528 0 1413.15158557 0 16887
0.12350000 0.12352200 12720.27195598 0 77.45326656 0 5183.40434657 0 -0.03767791 0 -137.67724596 0 16407
0.12450000 0.12449800 12588.50853623 0 141.44492556 0 5126.85033333 0 294.91381773 0 81.44853753 0 16306
0.12550000 0.12549900 12403.50737114 0 76.65836048 0 4906.65680032 0 -65.24307875 0 103.27512582 0 17523
0.12650000 0.12650100 12397.18538888 0 -98.07557269 0 4128.67588158 0 843.51325590 0 -259.93994640 0 17154
0.12750000 0.12750600 12595.93963819 0 -165.84001325 0 3717.12592762 0 400.69499951 0 -270.80710117 0 18007
0.12850000 0.12850300 12619.00932784 0 87.35759452 0 3313.04034921 0 241.44426637 0 -518.44247367 0 17496
0.12950000 0.12949900 12525.39962560 0 122.80838733 0 3032.75471113 0 -49.58064498 0 -765.06300165 0 18405
0.13050000 0.13049000 12184.12349550 0 -17.97472651 0 2732.37182418 0 314.95339238 0 -695.89940660 0 18100
0.13150000 0.13148800 12346.27679488 0 -25.13187590 0 2414.37611648 0 98.82644673 0 -1141.59471949 0 19059
0.13250000 0.13249300 12401.17821978 0 147.07148977 0 2424.01436662 0 -51.79710978 0 -1167.95849463 0 18957
0.13350000 0.13349100 11935.79159583 0 282.49167715 0 2423.58180994 0 -390.62530180 0 -1153.98358648 0 19468
0.13450000 0.13450700 11929.35870160 0 80.67980666 0 2571.81565716 0 139.04479054 0 -1007.68182577 0 19953
0.13550000 0.13551000 11830.31431285 0 -161.41129831 0 2359.13086448 0 492.13304539 0 -972.51053113 0 19956
0.13650000 0.13649900 11904.18168453 0 -36.23438587 0 2348.72732174 0 354.09755377 0 -773.31374306 0 19723
0.13750000 0.13749600 12083.96998706 0 169.00987734 0 2085.89922766 0 -239.69962109 0 -704.90878588 0 20946
0.13850000 0.13851100 11845.84198858 0 245.29069347 0 2707.16153352 0 -247.32481899 0 -393.67205360 0 20955
0.13950000 0.13949800 11283.29647937 0 270.63296937 0 3079.22682634 0 -369.66183045 0 -307.33484920 0 20506
0.14050000 0.14048300 11238.04439582 0 322.72277584 0 2951.34532553 0 -147.79352669 0 -14.11044258 0 21447
0.14150000 0.14148400 10840.80208592 0 177.52348011 0 3730.56845832 0 243.87989322 0 -163.18588982 0 21771
0.14250000 0.14249400 10648.38091006 0 156.27052852 0 3155.32352860 0 85.53364719 0 122.41686808 0 22470
0.14350000 0.14350900 10588.88772963 0 107.86521768 0 3610.89444325 0 430.26523969 0 892.23244762 0 22519
0.14450000 0.14449900 10202.29296881 0 141.60796616 0 2849.81650866 0 312.13290100 0 952.77596440 0 22218
0.14550000 0.14550500 10170.20613604 0 111.40109127 0 3395.44794253 0 313.67235913 0 1377.38247541 0 23559
0.14650000 0.14650700 9932.58833262 0 60.88778753 0 2813.50392986 0 167.45489152 0 1193.22424128 0 23044
0.14750000 0.14750500 9954.68199694 0 40.58468605 0 2883.21210268 0 202.78146292 0 1910.79141024 0 23649
0.14850000 0.14849900 9818.08281532 0 -32.31752967 0 2594.91862040 0 -252.58426458 0 1165.89553200 0 23640
0.14950000 0.14949500 9925.82270248 0 118.43401925 0 2740.75676907 0 22.81292844 0 978.02396513 0 24457
0.15050000 0.15050000 9795.43459116 0 158.95903466 0 2851.33600265 0 -430.95733038 0 425.18547149 0 24591
0.15150000 0.15149900 9689.41383953 0 131.25322469 0 2714.74791223 0 -159.09878374 0 112.93056733 0 25020
0.15250000 0.15250500 9419.13246110 0 216.91497520 0 3177.53919609 0 -71.22234303 0 -27.15269198 0 25297
0.15350000 0.15350100 9330.29197354 0 119.34904300 0 3013.44493724 0 317.91917844 0 88.99631887 0 25452
0.15450000 0.15450400 9229.58390525 0 -143.15629725 0 2683.38200726 0 464.71338829 0 651.30614015 0 26061
0.15550000 0.15549900 9506.25381312 0 -97.99649246 0 2464.26432035 0 577.69386601 0 363.00822140 0 26128
0.15650000 0.15649500 9349.46865306 0 70.13230019 0 2263.13655489 0 73.91972212 0 814.99224295 0 26331
0.15750000 0.15749700 9401.58618752 0 69.58628057 0 2075.62877928 0 82.99132302 0 792.44273044 0 27345
0.15850000 0.15849900 9143.64931130 0 86.57267052 0 2471.35159520 0 9.70912290 0 1286.40138684 0 26980
0.15950000 0.15949700 9249.35950941 0 65.14680716 0 2173.56404834 0 -300.66793071 0 866.35557602 0 27777
0.16050000 0.16050000 9030.47473764 0 90.58335824 0 2326.87766375 0 160.40089027 0 426.73269346 0 28224
0.16150000 0.16150500 9091.60941522 0 175.32298664 0 2555.10122336 0 -287.76775954 0 992.82073098 0 28075
0.16250000 0.16249700 8828.84786831 0 62.10205178 0 2444.92127287 0 -34.17763431 0 433.24433519 0 28590
0.16350000 0.16349900 8884.07093792 0 47.92029280 0 2646.68123656 0 176.39106891 0 816.24443909 0 29163
0.16450000 0.16449100 8737.15694314 0 115.70003920 0 2462.72264397 0 -127.69849606 0 -11.32444482 0 28996
0.16550000 0.16550500 8524.81597757 0 155.75367874 0 2447.28369782 0 15.22410967 0 546.66513342 0 30777
0.16650000 0.16650700 8572.78540437 0 72.31072218 0 2723.17722191 0 -82.64583224 0 26.41069091 0 29211
0.16750000 0.16749900 8370.57070161 0 27.81095452 0 2304.22943958 0 213.67301833 0 -31.10980923 0 30922
0.16850000 0.16850800 8374.05333745 0 137.83363183 0 2337.49193923 0 -25.93809501 0 -92.71342262 0 30867
0.16950000 0.16949900 7960.21859692 0 155.45865291 0 2381.19125521 0 -269.31311694 0 -110.07247679 0 30852
0.17050000 0.17049200 8090.59561705 0 60.50037203 0 2386.62594171 0 223.93237550 0 -59.28433319 0 31257
0.17150000 0.17149500 7993.84710607 0 -68.65816920 0 2187.82732761 0 287.18325346 0 -410.81128024 0 32608
0.17250000 0.17250900 8096.00812116 0 -35.31237467 0 1890.62761419 0 279.91297386 0 469.36170893 0 32361
0.17350000 0.17350400 8211.38984301 0 -84.79663715 0 1888.36501001 0 282.57707937 0 -56.46994197 0 32508
0.17450000 0.17449800 8234.30425591 0 39.56207769 0 1886.84551603 0 28.55095918 0 370.95062753 0 32791
0.17550000 0.17549800 8149.52314643 0 215.78810959 0 1730.94765172 0 -206.44377616 0 334.25429331 0 33633
0.17650000 0.17650100 7846.06799793 0 162.88531838 0 2194.71496092 0 -221.68862636 0 748.25983827 0 33984
0.17750000 0.17750300 7896.20020814 0 0.72821915 0 1886.63478329 0 369.59750150 0 470.22016758 0 34069
0.17850000 0.17849800 7828.37753880 0 3.03716901 0 2174.46243529 0 241.88458688 0 663.71829866 0 34536
