### header ###
fiducial parameters:
Omega_m = 0.31
Omega_nu = 0
Omega_de = 0.69
Omega_k = 0
H_0 = 100
w_de = -1
zeff = 0
beta = 0
fgrowth = 0
b_1 = 2
gamma = 0.55
Lx = 3500 Ly = 3500 Lz = 3500
nx = 700 ny = 700 nz = 700
xoffset = 1379.75464 yoffset = 22.6059522 zoffset = 368.141391
bins = 400 dk = 0.001
kx_ny = 0.628318531 ky_ny = 0.628318531 kz_ny = 0.628318531
############################
A(data) = 3.3256148 (not used)
A(ran) = 3.33392649 (used)
Ngal = 186620
weighted Ngal = 0
Nran = 9399747
weighted Nran = 0
SN(data) = 6654.34107
SN(ran) = 132.608203
SN(data+ran) = 6786.94928
############################
13 columns: k_central k_mean P_0(k) sigma^{lin}_{P_0(k)} P^img_1(k) sigma^{lin}_{P_1(k)} P_2(k) sigma^{lin}_{P_2(k)} P^img_3(k) sigma^{lin}_{P_3(k)} P_4(k) sigma^{lin}_{P_4(k)} N_modes
### header ###
0.00050000 0 0 0 0 0 0 0 0 0 0 0 0
0.00150000 0.00179520 37494.12401937 0 -55854.60235943 0 -81637.08787330 0 66022.78989762 0 33485.87635426 0 3
0.00250000 0.00253879 64113.32943102 0 -59305.18464199 0 -45400.70558785 0 -67377.91234076 0 -40017.03858919 0 6
0.00350000 0.00331552 86067.91014215 0 -17056.15357895 0 -55400.63966834 0 -67925.48473409 0 -62511.64967972 0 7
0.00450000 0.00420575 106338.73624457 0 10005.22458143 0 -44411.70355598 0 -71669.98373578 0 5547.28433605 0 24
0.00550000 0.00557378 69821.41394042 0 10359.56614153 0 -8780.78971194 0 -19723.14279712 0 28050.96802569 0 45
0.00650000 0.00659388 75107.92205382 0 2187.66095966 0 -14630.61971834 0 34053.63472604 0 -8735.63744916 0 40
0.00750000 0.00754703 57474.47167372 0 -8099.76803692 0 -38230.57949674 0 25060.33768057 0 2852.25657199 0 57
0.00850000 0.00846663 63381.31043243 0 3551.24598606 0 -16034.32160411 0 925.91308539 0 -581.98615922 0 75
0.00950000 0.00948925 63400.83093906 0 -3306.60745498 0 -17763.99376818 0 -9619.57257234 0 23606.17084869 0 112
0.01050000 0.01054430 58334.48308509 0 5185.72240673 0 -31793.13787602 0 -16486.95335156 0 10042.80155669 0 105
0.01150000 0.01145670 57255.42053399 0 -3894.49634922 0 -18284.05999308 0 -3983.53647832 0 16198.80405485 0 144
0.01250000 0.01249090 66043.97408379 0 -9671.10227337 0 -25556.77965597 0 9858.03330673 0 8853.59232871 0 169
0.01350000 0.01339930 78754.15305055 0 -10314.31405798 0 -14671.54623508 0 975.60719332 0 -12155.50820737 0 180
0.01450000 0.01448870 83128.63203890 0 2806.80484690 0 -7412.79038915 0 -29488.83079806 0 -8586.84904210 0 267
0.01550000 0.01550050 81319.10325680 0 6768.94640630 0 952.31567973 0 -25423.35255669 0 -33793.32433366 0 238
0.01650000 0.01653350 73778.08753973 0 7031.48612926 0 32411.69392982 0 -22792.40972860 0 -8326.26136980 0 315
0.01750000 0.01747870 68097.50919876 0 5351.61343949 0 23658.29947435 0 1438.96080087 0 -25070.54158176 0 297
0.01850000 0.01844180 68253.67325179 0 -1924.99923353 0 38754.97128845 0 20040.24011787 0 -1777.33103736 0 388
0.01950000 0.01947590 69467.49384580 0 -5266.20013179 0 15137.04377100 0 19656.70652740 0 -6591.38743436 0 399
0.02050000 0.02045430 75784.92871554 0 -976.51001675 0 8759.63879936 0 12309.45402102 0 8950.88430834 0 462
0.02150000 0.02154770 73895.54331541 0 1560.13212752 0 2527.27341021 0 -404.01570387 0 6315.17226556 0 571
0.02250000 0.02255340 72924.73084653 0 3038.58868072 0 3081.99962558 0 -11160.07328127 0 3763.12112137 0 510
0.02350000 0.02348930 60657.75610983 0 7074.36469667 0 12846.15704134 0 -10771.64847295 0 -818.44936904 0 555
0.02450000 0.02439640 58123.86125504 0 6281.92085711 0 18805.90080950 0 -13289.58309533 0 -19506.64263269 0 592
0.02550000 0.02547300 52815.39257168 0 2515.59437983 0 26500.52960430 0 -569.56069128 0 -5268.81765427 0 837
0.02650000 0.02652900 52979.43137454 0 -1678.84120846 0 28417.31026089 0 7343.81423533 0 -15973.32002089 0 723
0.02750000 0.02749970 56397.07280217 0 -2430.32525769 0 24477.93892882 0 1272.54848185 0 960.30910537 0 826
0.02850000 0.02848090 57883.84775308 0 1226.15400502 0 25385.86431100 0 2658.84827961 0 -9148.59598514 0 831
0.02950000 0.02946900 57905.03193925 0 2243.71586903 0 32289.69076339 0 -2090.19152088 0 -3995.54824461 0 996
0.03050000 0.03053250 54479.29393785 0 908.43557724 0 33669.21383981 0 -2262.99236933 0 4414.48493574 0 1041
0.03150000 0.03150510 56826.19121210 0 -214.71669996 0 37286.38590053 0 3905.80937010 0 -4696.81135406 0 1036
0.03250000 0.03246190 56868.78140838 0 400.43102902 0 35215.21578242 0 1666.94035414 0 1254.93566110 0 1059
0.03350000 0.03345080 57794.56361765 0 851.08521606 0 34727.64676458 0 2969.87871563 0 -5194.50663472 0 1302
0.03450000 0.03451200 54810.36616676 0 910.00941809 0 31075.64834544 0 1763.76650349 0 292.73439753 0 1339
0.03550000 0.03553350 53143.35926544 0 2187.58332128 0 32871.20221939 0 -13.36655600 0 -1822.07292585 0 1365
0.03650000 0.03647120 51135.40896993 0 1151.89844145 0 25031.16783260 0 163.87687139 0 -10730.10084918 0 1308
0.03750000 0.03744890 48390.11590131 0 1701.67798298 0 30370.80277938 0 2685.34514912 0 -7143.85104555 0 1579
0.03850000 0.03847530 46755.60620705 0 2256.31546877 0 26994.86425228 0 1670.32316921 0 -9846.90883619 0 1662
0.03950000 0.03950240 43015.54368414 0 -846.23836299 0 21555.85218084 0 4290.81808977 0 -6735.68390666 0 1683
0.04050000 0.04050350 45218.92086987 0 -1185.18312349 0 20315.19089021 0 5404.23007781 0 -6763.36753424 0 1822
0.04150000 0.04152450 45824.72204718 0 60.57102295 0 15462.12675355 0 2913.22488162 0 -11777.29839144 0 1887
0.04250000 0.04250150 44834.38907168 0 2210.13172468 0 15654.78084454 0 -2545.09696371 0 -8079.02749863 0 1920
0.04350000 0.04349210 40035.11724021 0 2297.64126860 0 15127.83807753 0 -2639.90451522 0 -5708.37288052 0 2005
0.04450000 0.04448520 39591.13662638 0 720.89009156 0 18074.10363485 0 2428.20683907 0 -4623.25453590 0 2151
0.04550000 0.04548030 39074.39776056 0 -647.77913952 0 16625.14966554 0 3715.22933294 0 -5468.44810814 0 2274
0.04650000 0.04648670 38793.45774186 0 293.18802749 0 11479.05610550 0 2192.56326871 0 -7974.43751141 0 2311
0.04750000 0.04749250 39553.98111660 0 352.60024218 0 11951.54109550 0 1276.07548248 0 -3458.68994753 0 2568
0.04850000 0.04851840 36127.57764338 0 900.73274096 0 12950.41429265 0 -1540.48961773 0 -4192.19516650 0 2493
0.04950000 0.04949480 36819.77924492 0 1270.11950972 0 10371.83300536 0 263.23846837 0 -4896.80781743 0 2644
0.05050000 0.05050630 35756.46619350 0 -355.99193021 0 10781.58618541 0 2512.35575032 0 -3400.36134278 0 2829
0.05150000 0.05149060 35316.25658662 0 231.75721495 0 8622.55160508 0 2929.63985310 0 -4327.87377877 0 2784
0.05250000 0.05249300 34522.45962104 0 723.99784495 0 9305.66951632 0 -191.16343412 0 31.70341009 0 3055
0.05350000 0.05348950 33200.83259269 0 1349.72103022 0 7208.08016707 0 -406.31601812 0 -3840.17166656 0 3009
0.05450000 0.05448610 31978.69360096 0 1313.78555211 0 11536.06485782 0 -1684.05407103 0 1001.21676707 0 3336
0.05550000 0.05550870 30432.69165835 0 1368.87552735 0 10963.52618015 0 -1538.92575896 0 23.66927976 0 3349
0.05650000 0.05647670 29997.80582601 0 195.96703152 0 13141.29379213 0 1770.68741039 0 1466.72206683 0 3324
0.05750000 0.05747970 30102.17398929 0 -402.36977025 0 13413.47176524 0 1967.93325692 0 2205.51778674 0 3639
0.05850000 0.05849280 30692.22566694 0 -967.67033278 0 10275.87196936 0 3486.44012230 0 3475.58184048 0 3846
0.05950000 0.05951020 31730.02896538 0 -875.88402332 0 9463.27542495 0 3155.20152544 0 8470.16965021 0 3787
0.06050000 0.06049470 31660.70898446 0 46.48243003 0 5987.76013165 0 1857.93076558 0 6604.27540521 0 3930
0.06150000 0.06148310 32449.73673535 0 248.55372361 0 6085.59557993 0 1559.99903316 0 9170.29036637 0 4083
0.06250000 0.06249100 31743.00566581 0 443.75546254 0 7482.26564683 0 -1450.50673689 0 5501.65515180 0 4303
0.06350000 0.06350600 30286.17694666 0 1083.96264190 0 6271.37312881 0 -1835.19381184 0 5261.30891393 0 4470
0.06450000 0.06451750 29006.80737869 0 1582.88017247 0 9222.00861774 0 -2513.14322530 0 2248.65145168 0 4479
0.06550000 0.06550280 27771.02621472 0 912.74672549 0 9570.61602902 0 -2259.42100391 0 -1493.23002753 0 4636
0.06650000 0.06648880 26331.49976281 0 347.94083034 0 10202.75879908 0 510.99584404 0 -1166.51663903 0 4653
0.06750000 0.06749660 26613.43798923 0 -251.00155078 0 9138.40317514 0 973.11832872 0 -4042.73019643 0 5220
0.06850000 0.06852730 26772.26392953 0 -714.78660588 0 8608.12195785 0 1861.59086058 0 -1975.60836521 0 5029
0.06950000 0.06949320 27339.46774146 0 -205.82377825 0 5964.97881312 0 1179.14951235 0 -3884.17044486 0 5040
0.07050000 0.07048030 27410.22957799 0 306.46419024 0 6899.15705848 0 -697.87363966 0 -2924.91500320 0 5475
0.07150000 0.07148790 27849.66280108 0 -298.59165864 0 4656.88304504 0 1328.73648559 0 -2958.15532045 0 5509
0.07250000 0.07249820 26983.99487927 0 103.48108935 0 6003.96437039 0 634.83127620 0 -1204.23779985 0 5916
0.07350000 0.07351270 28204.80292736 0 -16.21499720 0 4996.02966533 0 -229.75525390 0 -1045.47175202 0 5721
0.07450000 0.07449140 27240.64517665 0 238.08585193 0 4950.03447158 0 -246.51737985 0 -2633.47162099 0 6028
0.07550000 0.07549160 27258.39109177 0 738.73804569 0 6752.48707003 0 -1121.49747062 0 -1670.30098681 0 6183
0.07650000 0.07648840 26473.02343587 0 362.98049340 0 5951.61392079 0 -941.64040266 0 -3126.94115561 0 6330
0.07750000 0.07749960 25815.87001668 0 1018.77191360 0 8087.86718260 0 -561.67706849 0 -3211.31189080 0 6583
0.07850000 0.07848650 24751.44784556 0 726.92481182 0 7720.00545342 0 -1742.28285501 0 -4204.53966871 0 6549
0.07950000 0.07947320 23758.67480673 0 199.80902214 0 9328.20682851 0 871.47194517 0 -3883.38296988 0 6828
0.08050000 0.08048110 24108.15842257 0 -182.33816871 0 7686.82059215 0 1907.49732475 0 -3483.43440792 0 7147
0.08150000 0.08149960 24180.91667455 0 -232.10104206 0 6519.00628308 0 1267.76817597 0 -3383.01471075 0 7386
0.08250000 0.08250610 23665.61966433 0 751.97428013 0 6455.02116788 0 356.37568562 0 -2756.20680642 0 7227
0.08350000 0.08350160 22706.45295225 0 767.73265276 0 6217.18154052 0 -986.42443770 0 -1724.37057193 0 7798
0.08450000 0.08449610 22207.01635367 0 72.79596205 0 6681.93596624 0 624.68504924 0 -1514.78022320 0 7371
0.08550000 0.08548940 21519.69487879 0 146.77646393 0 6701.85575596 0 871.13366366 0 -2957.72276377 0 8256
0.08650000 0.08650700 22303.17703121 0 299.01312413 0 5406.53704677 0 454.14347760 0 -797.69884867 0 8037
0.08750000 0.08749060 20935.07788765 0 381.20776647 0 6595.71300117 0 -371.80132234 0 -2472.92654517 0 8155
0.08850000 0.08849210 20818.39849575 0 632.25811851 0 6092.48321323 0 -481.31691012 0 -368.16008238 0 8718
0.08950000 0.08949900 20374.19605798 0 432.12745166 0 7350.48004469 0 -176.23690127 0 -1366.30236966 0 8571
0.09050000 0.09049190 19581.84094800 0 320.79179845 0 7968.43717386 0 356.19711735 0 -882.78274782 0 8932
0.09150000 0.09150830 19189.98895981 0 223.98228589 0 7098.04440215 0 611.99117433 0 169.58772870 0 9285
0.09250000 0.09250820 19142.29681294 0 -4.62563914 0 7304.79540446 0 642.04499070 0 -141.44381644 0 9204
0.09350000 0.09350330 18907.60708551 0 329.27656412 0 6825.55587553 0 258.56907445 0 1404.71118469 0 9349
0.09450000 0.09448040 18545.92315303 0 130.57111607 0 6846.04131629 0 -56.73568704 0 -313.44388047 0 9564
0.09550000 0.09549270 18510.20949886 0 217.88878229 0 7145.39272192 0 40.20081972 0 749.62072814 0 10155
0.09650000 0.09649430 18192.11397038 0 325.23604107 0 6803.44002881 0 -259.68152151 0 -266.99727501 0 9913
0.09750000 0.09749140 17647.86893613 0 476.02530006 0 7987.07038473 0 -1012.41000303 0 -578.15636892 0 10476
0.09850000 0.09850240 17213.09401576 0 521.72657709 0 7933.03407320 0 -284.15535669 0 -1600.12698372 0 10575
0.09950000 0.09950330 16636.35177446 0 109.33713043 0 8180.58958909 0 157.15227868 0 -971.90384266 0 10882
0.10050000 0.10051200 16803.05246459 0 -26.60633962 0 7955.47156463 0 976.15066197 0 -1182.78742495 0 10875
0.10150000 0.10150300 16801.83243292 0 91.51812432 0 7597.53645671 0 309.40446655 0 -932.59553155 0 11118
0.10250000 0.10250800 16615.72214813 0 -37.19355258 0 7626.69521349 0 687.13957925 0 -477.56143084 0 11575
0.10350000 0.10349800 16719.20301566 0 33.55863461 0 6928.02744413 0 -22.79728986 0 -911.30819725 0 11364
0.10450000 0.10450100 16625.81513736 0 111.67948031 0 7482.42092359 0 -57.03204383 0 -293.69489519 0 12093
0.10550000 0.10551000 16591.32151485 0 172.10099393 0 6828.35085716 0 -224.52131806 0 -1360.26875852 0 12067
0.10650000 0.10649700 16144.12445389 0 195.76184438 0 7710.17865292 0 -113.99754047 0 -332.87898489 0 12054
0.10750000 0.10749900 16355.85540364 0 103.06295123 0 7070.05022105 0 152.09358375 0 -1372.13633925 0 12807
0.10850000 0.10850100 16126.26762681 0 154.64899553 0 7502.05234219 0 474.20634376 0 -886.29422077 0 12736
0.10950000 0.10950300 15939.60278217 0 33.35067466 0 6311.11288748 0 796.73502366 0 -589.37844199 0 12933
0.11050000 0.11050200 15565.94035698 0 92.36737727 0 6299.12330358 0 845.32333925 0 -10.57999259 0 13428
0.11150000 0.11150900 15636.25854563 0 334.33304081 0 5456.03705875 0 489.30922665 0 180.76765522 0 13453
0.11250000 0.11250000 14916.21803976 0 234.18396884 0 5593.84518084 0 377.66523816 0 179.87037739 0 13668
0.11350000 0.11349100 14394.04448743 0 474.67328315 0 5403.15423171 0 -72.59809510 0 1509.60063423 0 13791
0.11450000 0.11448600 14173.88422801 0 245.37720480 0 5185.98859546 0 252.85488979 0 793.04276419 0 14205
0.11550000 0.11549300 13647.16328494 0 140.55541157 0 5293.26265234 0 -58.75883228 0 629.68717906 0 14776
0.11650000 0.11649800 13657.36718613 0 251.96537579 0 5179.72206918 0 -64.07828125 0 321.69462188 0 14553
0.11750000 0.11747300 13353.46838975 0 36.56645631 0 5560.85996111 0 343.81157772 0 859.11080617 0 14568
0.11850000 0.11849100 13561.09559662 0 -272.21124670 0 4758.27876754 0 565.66213556 0 765.67301748 0 16015
0.11950000 0.11950300 13936.31078938 0 -157.47059603 0 4251.27797265 0 778.31587288 0 514.01930433 0 15270
0.12050000 0.12050700 13770.49739500 0 187.82942032 0 3948.35520160 0 -23.16829039 0 754.19695600 0 15999
0.12150000 0.12150000 13923.22317698 0 74.92591551 0 4040.06830916 0 185.42595794 0 1269.94205057 0 15670
0.12250000 0.12250700 13531.70392471 0 31.57020482 0 3688.74355463 0 415.48843800 0 1369.76282311 0 16887
0.12350000 0.12352200 13474.47334846 0 71.50250666 0 4017.30917302 0 140.82936413 0 982.99060313 0 16407
0.12450000 0.12449800 13553.88631861 0 -29.89765232 0 2829.90781014 0 627.76174727 0 1667.75001151 0 16306
0.12550000 0.12549900 13346.81367158 0 -176.73378689 0 3310.89974820 0 582.55735587 0 1801.24365798 0 17523
0.12650000 0.12650100 13995.75960502 0 -87.70552537 0 1975.06489655 0 584.47391470 0 2322.25263462 0 17154
0.12750000 0.12750600 13587.71446930 0 59.83778392 0 2411.35931091 0 220.17356886 0 1631.45961510 0 18007
0.12850000 0.12850300 13674.78036534 0 375.31390441 0 2274.69358211 0 -574.67373308 0 2195.61334787 0 17496
0.12950000 0.12949900 12936.21756056 0 476.62977029 0 3046.05305627 0 -758.40606524 0 1389.49406248 0 18405
0.13050000 0.13049000 12544.36557238 0 393.19291389 0 4138.90196517 0 -1011.60256389 0 1383.13880663 0 18100
0.13150000 0.13148800 12167.15396417 0 310.98385299 0 4496.04959810 0 -433.67245539 0 969.42717838 0 19059
0.13250000 0.13249300 12029.40129807 0 105.31413147 0 4448.60145755 0 319.22572144 0 1235.58152243 0 18957
0.13350000 0.13349100 11946.10640899 0 -24.75510794 0 4434.97037650 0 777.41415857 0 1295.47398595 0 19468
0.13450000 0.13450700 12134.54584514 0 -102.09247149 0 4140.24400000 0 488.99312753 0 1730.74801018 0 19953
0.13550000 0.13551000 11951.09744762 0 159.76425556 0 4056.74946937 0 313.01132379 0 1859.21734443 0 19956
0.13650000 0.13649900 11713.08036111 0 197.12495248 0 3625.56809681 0 -72.58833484 0 2019.03040126 0 19723
0.13750000 0.13749600 11747.35215968 0 -82.57218669 0 3500.02683856 0 168.48193636 0 1691.08588989 0 20946
0.13850000 0.13851100 11767.53813813 0 -53.64767599 0 3157.76359193 0 387.00846247 0 1823.29295752 0 20955
0.13950000 0.13949800 11700.76913250 0 196.50717281 0 3428.65498619 0 -118.19666764 0 1227.78441097 0 20506
0.14050000 0.14048300 11498.79843607 0 284.90512161 0 3018.69107340 0 -258.98166698 0 1154.79324386 0 21447
0.14150000 0.14148400 11157.41139400 0 125.00000785 0 3757.90825880 0 -138.07652905 0 831.26857447 0 21771
0.14250000 0.14249400 11044.79138019 0 190.72311360 0 3471.12317931 0 -183.10789778 0 939.43325447 0 22470
0.14350000 0.14350900 10976.73579572 0 113.87775555 0 3919.76209587 0 99.82321260 0 434.82039428 0 22519
0.14450000 0.14449900 10467.29493749 0 271.14981915 0 3730.54627593 0 -310.39380131 0 110.46399604 0 22218
0.14550000 0.14550500 10495.82149604 0 230.94755757 0 3889.88241129 0 -343.64077329 0 134.74584260 0 23559
0.14650000 0.14650700 10045.90709184 0 65.38637702 0 3660.03953693 0 325.70519870 0 -470.14031096 0 23044
0.14750000 0.14750500 10096.37203795 0 -55.47938717 0 3778.80407385 0 560.58569471 0 503.32628135 0 23649
0.14850000 0.14849900 10084.85937552 0 -103.76857318 0 2900.48109632 0 504.34445323 0 -287.07345061 0 23640
0.14950000 0.14949500 10331.38341009 0 -49.66138890 0 2683.02708896 0 465.68941362 0 -13.66823656 0 24457
0.15050000 0.15050000 10171.10452299 0 143.02209377 0 2335.66189174 0 -172.59233395 0 -34.17597063 0 24591
0.15150000 0.15149900 9884.76309138 0 251.73800625 0 2583.53905233 0 -207.38874614 0 143.20066204 0 25020
0.15250000 0.15250500 9721.31212195 0 214.90746855 0 2790.91116167 0 7.72410920 0 -23.63356611 0 25297
0.15350000 0.15350100 9354.79242760 0 119.07065396 0 2987.56917476 0 -11.35028731 0 -47.52744260 0 25452
0.15450000 0.15450400 9333.29768791 0 107.50774840 0 2867.88406849 0 15.46445590 0 56.71982663 0 26061
0.15550000 0.15549900 9312.04695456 0 111.81590203 0 3102.96198781 0 -95.23822269 0 233.26118126 0 26128
0.15650000 0.15649500 9175.95796801 0 33.34657092 0 2994.49008166 0 177.69206631 0 -267.03720332 0 26331
0.15750000 0.15749700 9219.16927132 0 -28.11673882 0 2854.74100011 0 67.69589696 0 -156.43689648 0 27345
0.15850000 0.15849900 9191.71855887 0 -46.65467631 0 2775.76058664 0 193.08997503 0 42.75933703 0 26980
0.15950000 0.15949700 9250.15807559 0 129.07491360 0 2608.07277998 0 168.07267119 0 38.31254344 0 27777
0.16050000 0.16050000 9069.44920371 0 48.35440225 0 2561.25683766 0 218.09951503 0 245.90736402 0 28224
0.16150000 0.16150500 8813.90802603 0 220.16691414 0 2249.59420342 0 139.20339466 0 91.81780846 0 28075
0.16250000 0.16249700 8644.85600214 0 192.80936775 0 2539.25190292 0 -25.86090028 0 612.12537781 0 28590
0.16350000 0.16349900 8493.01751592 0 -5.98732757 0 2329.98319890 0 99.08742259 0 475.96651672 0 29163
0.16450000 0.16449100 8507.03678886 0 18.18135551 0 2235.60820407 0 331.25301541 0 367.10530955 0 28996
0.16550000 0.16550500 8622.86215859 0 -54.94512421 0 1970.52859700 0 -52.37751212 0 168.16805549 0 30777
0.16650000 0.16650700 8551.57903581 0 -7.02550797 0 1810.74881377 0 -82.56242643 0 -228.15479418 0 29211
0.16750000 0.16749900 8761.03629017 0 68.33963003 0 2018.56457099 0 -116.04941191 0 178.23442584 0 30922
0.16850000 0.16850800 8508.61173883 0 71.16411424 0 1726.37807858 0 -196.09458028 0 -755.01326810 0 30867
0.16950000 0.16949900 8571.19936321 0 66.57014047 0 2283.81054600 0 -43.43002171 0 -440.66545507 0 30852
0.17050000 0.17049200 8468.40614989 0 171.16711514 0 2045.91546266 0 63.65348841 0 -636.02801635 0 31257
0.17150000 0.17149500 8197.00456057 0 104.11350940 0 2227.48944790 0 64.47667704 0 -212.57055335 0 32608
0.17250000 0.17250900 8076.11051383 0 191.45180524 0 2277.53292853 0 14.35045608 0 -200.37578231 0 32361
0.17350000 0.17350400 7960.58460642 0 136.36072088 0 2229.46368096 0 -105.95608995 0 -514.58939185 0 32508
0.17450000 0.17449800 7713.59474158 0 64.17799111 0 2263.92402987 0 143.36037527 0 -95.11344673 0 32791
0.17550000 0.17549800 7701.03950663 0 61.06613398 0 2136.23107941 0 108.08770709 0 -373.63026071 0 33633
0.17650000 0.17650100 7597.88028382 0 -6.88245372 0 2035.38991676 0 300.98402982 0 -155.94666557 0 33984
0.17750000 0.17750300 7644.66295255 0 1.78322046 0 1503.38956394 0 347.68684193 0 -52.75572193 0 34069
