### header ###
fiducial parameters:
Omega_m = 0.31
Omega_nu = 0
Omega_de = 0.69
Omega_k = 0
H_0 = 100
w_de = -1
zeff = 0
beta = 0
fgrowth = 0
b_1 = 2
gamma = 0.55
Lx = 3500 Ly = 3500 Lz = 3500
nx = 700 ny = 700 nz = 700
xoffset = 1379.75464 yoffset = 22.6059522 zoffset = 368.141391
bins = 400 dk = 0.001
kx_ny = 0.628318531 ky_ny = 0.628318531 kz_ny = 0.628318531
############################
A(data) = 3.33519061 (not used)
A(ran) = 3.33695792 (used)
Ngal = 187765
weighted Ngal = 0
Nran = 9399747
weighted Nran = 0
SN(data) = 6657.99572
SN(ran) = 132.728779
SN(data+ran) = 6790.7245
############################
13 columns: k_central k_mean P_0(k) sigma^{lin}_{P_0(k)} P^img_1(k) sigma^{lin}_{P_1(k)} P_2(k) sigma^{lin}_{P_2(k)} P^img_3(k) sigma^{lin}_{P_3(k)} P_4(k) sigma^{lin}_{P_4(k)} N_modes
### header ###
0.00050000 0 0 0 0 0 0 0 0 0 0 0 0
0.00150000 0.00179520 25213.06346255 0 -27543.43485334 0 -42949.55106230 0 36649.86210768 0 12198.09840366 0 3
0.00250000 0.00253879 48709.32054948 0 -28216.33777219 0 -21256.38986324 0 -42061.70074659 0 -15200.15268163 0 6
0.00350000 0.00331552 68880.99135118 0 -21253.39524006 0 -52103.22681563 0 -24874.67104366 0 5487.49169330 0 7
0.00450000 0.00420575 84556.40182204 0 -8773.44733956 0 -35966.08981582 0 -42195.46058179 0 -9399.94469038 0 24
0.00550000 0.00557378 86231.94894501 0 8495.98995670 0 -7084.25804434 0 -57726.68549232 0 -24179.25299500 0 45
0.00650000 0.00659388 81063.11843123 0 10964.12510479 0 29771.76723221 0 -15273.46549346 0 -13066.87186061 0 40
0.00750000 0.00754703 65529.56436934 0 4974.83438796 0 26350.35479762 0 3870.38408705 0 -17422.71763808 0 57
0.00850000 0.00846663 72933.60380409 0 -9587.85174907 0 35113.17677050 0 15990.51137616 0 -17682.58438258 0 75
0.00950000 0.00948925 78737.29443119 0 -5259.65632559 0 8589.16710226 0 20738.98552560 0 -25167.47864309 0 112
0.01050000 0.01054430 93310.12901343 0 -8211.00165112 0 12995.66637620 0 3538.82384548 0 10187.86332158 0 105
0.01150000 0.01145670 92637.66974246 0 -2652.99212762 0 -19228.36450126 0 9421.10669415 0 901.04994919 0 144
0.01250000 0.01249090 91144.79463323 0 3599.89197588 0 304.62970626 0 -7978.79635181 0 -4302.68567050 0 169
0.01350000 0.01339930 86723.95444163 0 4810.87322347 0 -14400.47738166 0 -14951.82078196 0 -16583.89041289 0 180
0.01450000 0.01448870 77486.65106331 0 6768.59148800 0 8149.02404257 0 -18338.73959404 0 -14494.19799588 0 267
0.01550000 0.01550050 80562.79453690 0 6198.65924162 0 15211.57661449 0 -13045.68767444 0 -23402.42556075 0 238
0.01650000 0.01653350 65848.43628160 0 2966.38498859 0 30606.49071453 0 -11760.77250799 0 -30312.90673131 0 315
0.01750000 0.01747870 69466.60655005 0 1304.59094984 0 20582.93238454 0 5872.81096648 0 -35298.51067150 0 297
0.01850000 0.01844180 63739.88882977 0 -832.37103945 0 20673.88019952 0 -2672.01353039 0 -41672.84338159 0 388
0.01950000 0.01947590 67844.85173228 0 3358.33679754 0 34078.03535932 0 -2756.66154550 0 -29880.23913836 0 399
0.02050000 0.02045430 62906.38537911 0 4581.77345931 0 40920.08384471 0 -3719.47726137 0 -19020.51547045 0 462
0.02150000 0.02154770 57731.45470701 0 5298.56424448 0 36465.97006227 0 -961.60788453 0 -12602.48344439 0 571
0.02250000 0.02255340 54108.62613584 0 -3304.66649551 0 34226.87922237 0 12110.03429989 0 -19495.21869983 0 510
0.02350000 0.02348930 58423.87813249 0 -1637.68177659 0 36502.23827630 0 11148.42752448 0 -10047.01621153 0 555
0.02450000 0.02439640 61712.63985157 0 -709.92866162 0 23246.70515560 0 7560.04821103 0 -11296.05135586 0 592
0.02550000 0.02547300 60212.99911221 0 -491.78589092 0 21978.09404866 0 2610.51284331 0 -396.81640793 0 837
0.02650000 0.02652900 59466.89429350 0 1407.60598709 0 18783.49659166 0 -4969.07805674 0 -8493.22824866 0 723
0.02750000 0.02749970 58472.34666315 0 -1224.42377830 0 18837.39980883 0 5199.27584940 0 -5073.22439609 0 826
0.02850000 0.02848090 60574.46122075 0 -484.32927922 0 21757.60105333 0 1524.52938532 0 -12296.36640862 0 831
0.02950000 0.02946900 61417.61401275 0 927.71429578 0 17301.04720756 0 -1492.65328529 0 -4557.23973166 0 996
0.03050000 0.03053250 60956.55295561 0 1728.92905388 0 16690.36590359 0 2384.86244140 0 -5560.11685092 0 1041
0.03150000 0.03150510 56383.20880598 0 2814.19158407 0 21967.66832353 0 -5233.29255044 0 -11277.30723301 0 1036
0.03250000 0.03246190 54887.67180949 0 3351.84844733 0 23549.05118441 0 1604.31945617 0 4211.21656927 0 1059
0.03350000 0.03345080 48702.11127146 0 1633.36730097 0 23485.16588998 0 2179.88603060 0 -7171.88959143 0 1302
0.03450000 0.03451200 51078.28930565 0 -1510.47683879 0 21525.12956529 0 6271.97205345 0 4812.14871112 0 1339
0.03550000 0.03553350 50949.85324499 0 -2021.71447092 0 14096.13493740 0 8170.57423824 0 -2597.41413971 0 1365
0.03650000 0.03647120 53679.28590198 0 -226.16836081 0 14148.59629897 0 3313.66145624 0 6712.75840256 0 1308
0.03750000 0.03744890 52125.63103347 0 657.80336332 0 7583.96083165 0 -688.38290243 0 588.70187898 0 1579
0.03850000 0.03847530 50577.74358738 0 2182.93610976 0 9826.33466585 0 -1668.72603684 0 8547.28674259 0 1662
0.03950000 0.03950240 47697.47065189 0 547.12098162 0 9095.73534048 0 2807.66996026 0 1759.46311908 0 1683
0.04050000 0.04050350 48044.84694031 0 509.15581446 0 9601.52719491 0 122.03311266 0 528.89925415 0 1822
0.04150000 0.04152450 45926.76105911 0 2228.06619014 0 12951.85614826 0 -128.33734901 0 265.86708205 0 1887
0.04250000 0.04250150 44389.74298602 0 2088.39474697 0 9891.22925920 0 -4756.13816653 0 -506.48505424 0 1920
0.04350000 0.04349210 40976.20530127 0 847.93198877 0 17143.10856302 0 -2006.74135504 0 2675.49616623 0 2005
0.04450000 0.04448520 41119.72538978 0 1004.10824212 0 17708.42687147 0 -1488.26117130 0 -2514.60726330 0 2151
0.04550000 0.04548030 42114.82757997 0 -94.64151630 0 17095.19459220 0 985.65359951 0 503.11222125 0 2274
0.04650000 0.04648670 41697.57675078 0 225.26331914 0 21954.35888719 0 -37.02385727 0 -3004.52761489 0 2311
0.04750000 0.04749250 39562.29951431 0 1671.64302164 0 18681.56849171 0 -2121.29123712 0 -4313.01157486 0 2568
0.04850000 0.04851840 38988.99554406 0 1834.38415446 0 22666.52464324 0 -473.39003167 0 -2451.97527413 0 2493
0.04950000 0.04949480 37526.17757856 0 818.22976334 0 22065.60359258 0 1416.78949817 0 -3192.96705105 0 2644
0.05050000 0.05050630 35911.85386274 0 195.70306103 0 22567.92390237 0 4147.08726852 0 1509.66718141 0 2829
0.05150000 0.05149060 35855.95423012 0 136.03796705 0 18601.82278565 0 2977.34309117 0 -545.97747921 0 2784
0.05250000 0.05249300 35009.91772691 0 -155.72816899 0 14135.95233445 0 4330.42475407 0 3006.54621274 0 3055
0.05350000 0.05348950 35662.74557928 0 30.96994924 0 14334.26293588 0 2789.66894761 0 3828.68118653 0 3009
0.05450000 0.05448610 34397.24000749 0 -642.13482939 0 10812.86336081 0 75.86123615 0 5392.83941854 0 3336
0.05550000 0.05550870 35758.90625683 0 83.66056584 0 8804.53596460 0 1475.05155573 0 -1035.74366317 0 3349
0.05650000 0.05647670 35142.34661847 0 379.80140270 0 10213.17343301 0 -3412.72802738 0 -1018.49019720 0 3324
0.05750000 0.05747970 33858.76239566 0 1110.47282085 0 8974.25346031 0 -1127.85272647 0 -5360.78585936 0 3639
0.05850000 0.05849280 33634.27656942 0 498.06461752 0 11578.65505410 0 -1667.88310588 0 -6732.24563560 0 3846
0.05950000 0.05951020 31710.61937072 0 1202.14156363 0 12059.23661786 0 -1724.39275433 0 -8995.72601760 0 3787
0.06050000 0.06049470 32655.36752677 0 662.52155851 0 13535.25310773 0 -126.29324141 0 -9784.32121181 0 3930
0.06150000 0.06148310 31185.22937129 0 -691.94650401 0 10602.52990188 0 1771.46379418 0 -6250.18894264 0 4083
0.06250000 0.06249100 31657.38162537 0 -156.02874043 0 11006.21619721 0 2957.34566308 0 -7254.10863441 0 4303
0.06350000 0.06350600 32327.40083301 0 -31.24756190 0 8474.79467933 0 546.36012551 0 -5803.15824964 0 4470
0.06450000 0.06451750 31770.40092228 0 819.31891888 0 10119.33081563 0 -840.25133488 0 -6992.25656566 0 4479
0.06550000 0.06550280 30622.12930223 0 1332.79586368 0 12288.71348272 0 -2761.59712814 0 -4685.80888669 0 4636
0.06650000 0.06648880 29320.57734035 0 885.07862559 0 11724.72611791 0 252.60311962 0 -5127.51580515 0 4653
0.06750000 0.06749660 28346.32660042 0 153.71068027 0 13756.18975094 0 746.51519299 0 -4259.65182634 0 5220
0.06850000 0.06852730 28692.59376914 0 -32.67821539 0 13200.63169581 0 1825.33373775 0 -2308.79901273 0 5029
0.06950000 0.06949320 28333.12807605 0 8.94618164 0 11273.97987393 0 2608.74934299 0 -3566.44092588 0 5040
0.07050000 0.07048030 29055.60864526 0 -382.29248553 0 10198.93233613 0 1835.01635269 0 1737.82419383 0 5475
0.07150000 0.07148790 28103.09665135 0 435.74318186 0 9484.35979035 0 72.61539736 0 -3064.49771679 0 5509
0.07250000 0.07249820 27468.01471409 0 1418.20917138 0 10485.76178041 0 -1197.39453133 0 375.59229345 0 5916
0.07350000 0.07351270 25877.98071959 0 462.54284105 0 10429.41849991 0 58.86142585 0 209.32305088 0 5721
0.07450000 0.07449140 25937.20771130 0 -285.75914377 0 9417.40223437 0 1482.51593128 0 -1690.26514132 0 6028
0.07550000 0.07549160 26183.43228355 0 -246.61941886 0 8316.91149078 0 1813.56597779 0 100.93887610 0 6183
0.07650000 0.07648840 25595.93158120 0 390.17721744 0 7460.77090715 0 109.17275889 0 -1572.80936564 0 6330
0.07750000 0.07749960 25585.39494410 0 1006.27768024 0 8214.61738132 0 -526.46806378 0 1178.85005004 0 6583
0.07850000 0.07848650 23789.50833424 0 913.74493322 0 8333.01590874 0 -763.63778284 0 -2039.48256843 0 6549
0.07950000 0.07947320 23395.99266652 0 596.72081437 0 10141.76830706 0 90.89812641 0 2970.96565293 0 6828
0.08050000 0.08048110 22528.43924123 0 -6.28294125 0 8798.74635980 0 1226.93038881 0 529.89968012 0 7147
0.08150000 0.08149960 22803.61183752 0 248.40066509 0 10118.96480614 0 750.11317728 0 3875.85204715 0 7386
0.08250000 0.08250610 22382.47908939 0 -1.95435763 0 8180.93341619 0 754.14371826 0 1315.42704926 0 7227
0.08350000 0.08350160 22370.05694881 0 454.85331421 0 10231.99519423 0 73.23594983 0 3882.46240053 0 7798
0.08450000 0.08449610 22184.50122387 0 84.92629324 0 8071.36348154 0 -36.50734023 0 2788.55982792 0 7371
0.08550000 0.08548940 21662.54949548 0 -35.27089359 0 8870.52858645 0 532.63698752 0 2117.55350375 0 8256
0.08650000 0.08650700 22258.92315539 0 -124.76598359 0 8689.60898183 0 67.64243739 0 1617.58452772 0 8037
0.08750000 0.08749060 21962.01181308 0 495.03782987 0 8654.02842202 0 297.08325586 0 -1.52349790 0 8155
0.08850000 0.08849210 21139.82138331 0 333.67755107 0 7845.35816133 0 -302.15526022 0 1069.12262039 0 8718
0.08950000 0.08949900 20784.34852112 0 102.17887192 0 7823.37540897 0 643.49793750 0 96.77745900 0 8571
0.09050000 0.09049190 21084.14357463 0 -99.25257051 0 7330.88189968 0 1684.67517806 0 2179.67529786 0 8932
0.09150000 0.09150830 20941.62169385 0 29.77010355 0 6073.93873194 0 570.00433916 0 822.04513509 0 9285
0.09250000 0.09250820 20586.25974363 0 252.42676958 0 5501.23368632 0 -368.37192424 0 1237.77757942 0 9204
0.09350000 0.09350330 20317.18730566 0 633.94398045 0 6829.64852720 0 -737.02112841 0 1468.21937841 0 9349
0.09450000 0.09448040 19448.85749659 0 493.40298744 0 6930.23459232 0 -25.28537807 0 343.93690824 0 9564
0.09550000 0.09549270 19138.08215810 0 261.54927907 0 7653.48045412 0 -240.90967067 0 1817.82499742 0 10155
0.09650000 0.09649430 18962.61942238 0 122.12627872 0 7366.20736197 0 671.92689352 0 455.63857095 0 9913
0.09750000 0.09749140 18518.41698460 0 140.20049326 0 7286.16219359 0 850.81459086 0 1273.02540332 0 10476
0.09850000 0.09850240 18448.32061989 0 415.24664990 0 8066.54990206 0 -364.41902165 0 1081.18984267 0 10575
0.09950000 0.09950330 17529.52586470 0 673.90556305 0 6680.79357296 0 -406.19068760 0 250.50244691 0 10882
0.10050000 0.10051200 16911.41345877 0 545.82663893 0 8802.61718753 0 -771.84194123 0 697.38784523 0 10875
0.10150000 0.10150300 16084.89746219 0 278.48220945 0 7281.43734369 0 43.88165525 0 -1308.89433425 0 11118
0.10250000 0.10250800 16158.54300993 0 32.26917205 0 7783.84638305 0 704.00263509 0 -748.75561478 0 11575
0.10350000 0.10349800 16032.99066047 0 -124.17815015 0 6354.62365311 0 747.99032219 0 -2293.23806341 0 11364
0.10450000 0.10450100 15650.34436576 0 206.45819471 0 6130.86984587 0 611.66398402 0 -1351.34034497 0 12093
0.10550000 0.10551000 15642.24779199 0 146.45925570 0 4946.84020686 0 471.92155719 0 -1641.73006347 0 12067
0.10650000 0.10649700 15240.63555049 0 59.10088479 0 4787.89226340 0 561.00383284 0 -857.86748300 0 12054
0.10750000 0.10749900 14972.78314419 0 330.97129901 0 4723.17512920 0 -601.56766744 0 -1344.39725568 0 12807
0.10850000 0.10850100 15046.65051587 0 37.52340478 0 5003.38312890 0 339.18211211 0 -1067.63307264 0 12736
0.10950000 0.10950300 14711.03089621 0 -18.26453949 0 4547.01364808 0 210.35009572 0 -1075.44349353 0 12933
0.11050000 0.11050200 15062.62183947 0 169.18955473 0 4975.99896364 0 -357.38609366 0 -1958.05100044 0 13428
0.11150000 0.11150900 14784.67644395 0 179.41342007 0 5166.95610150 0 -616.48532733 0 -1240.55037866 0 13453
0.11250000 0.11250000 14729.33137118 0 201.68454355 0 6054.48477249 0 -331.16983144 0 -1584.52166961 0 13668
0.11350000 0.11349100 14495.86167542 0 55.58763725 0 5647.30475013 0 -17.94566757 0 -1372.52453115 0 13791
0.11450000 0.11448600 14658.01497480 0 -7.15178125 0 6466.99966058 0 554.29365868 0 -1551.24807877 0 14205
0.11550000 0.11549300 14560.63426560 0 16.34298962 0 5757.39597103 0 334.10012567 0 -890.49334794 0 14776
0.11650000 0.11649800 14715.02372712 0 241.55406922 0 6728.09752794 0 91.75403408 0 -257.75387148 0 14553
0.11750000 0.11747300 14435.63647599 0 28.17175116 0 5683.28459303 0 187.88043982 0 -718.20713102 0 14568
0.11850000 0.11849100 14232.00210002 0 100.78016107 0 6209.57297942 0 46.87905123 0 305.36172526 0 16015
0.11950000 0.11950300 14328.27368953 0 -7.42072059 0 6084.18699792 0 501.44410523 0 -115.60909139 0 15270
0.12050000 0.12050700 14310.52777441 0 -29.17029162 0 5411.11771111 0 211.02887697 0 -193.97948903 0 15999
0.12150000 0.12150000 14462.47717260 0 -10.81264154 0 5592.20368369 0 584.01141179 0 -809.89472883 0 15670
0.12250000 0.12250700 14310.52777441 0 60.79062865 0 4497.31399455 0 -23.58099383 0 -663.15819321 0 16887
0.12350000 0.12352200 14031.58417117 0 56.63886090 0 4182.25745404 0 232.65560190 0 -1338.14182061 0 16407
0.12450000 0.12449800 13849.91036515 0 150.69387470 0 4206.31426022 0 -139.74242683 0 -1182.42141545 0 16306
0.12550000 0.12549900 13949.73113769 0 188.85202868 0 3589.73243947 0 729.97489099 0 -1766.48384675 0 17523
0.12650000 0.12650100 13270.83897249 0 76.49964545 0 2887.38239273 0 243.99080519 0 -1090.36558990 0 17154
0.12750000 0.12750600 13415.46818069 0 15.26547983 0 2749.16389636 0 327.68830472 0 -1524.98412440 0 18007
0.12850000 0.12850300 13116.78224688 0 144.25099839 0 2679.42244995 0 73.84840573 0 -1516.80991225 0 17496
0.12950000 0.12949900 13053.89516018 0 324.70920922 0 2343.82501269 0 -306.63943115 0 -1288.15379596 0 18405
0.13050000 0.13049000 12738.68334291 0 234.54554186 0 3252.37150190 0 -310.36385508 0 -1420.38304598 0 18100
0.13150000 0.13148800 12458.51970800 0 94.80899337 0 2918.33792341 0 451.44277114 0 -621.36767223 0 19059
0.13250000 0.13249300 12324.64896083 0 146.90290358 0 3748.49183259 0 -1.53035226 0 -1093.07073284 0 18957
0.13350000 0.13349100 12336.51654157 0 152.66256215 0 3138.89746592 0 -214.10446589 0 -578.39039317 0 19468
0.13450000 0.13450700 12108.25970837 0 145.22813284 0 3845.65071786 0 96.41566416 0 -437.11072645 0 19953
0.13550000 0.13551000 11958.08490170 0 181.30779651 0 3315.50259493 0 38.68520766 0 396.31286759 0 19956
0.13650000 0.13649900 11781.06939840 0 0.16977184 0 3614.13307276 0 528.15281660 0 216.67318710 0 19723
0.13750000 0.13749600 11591.52084256 0 168.44866277 0 3537.24889551 0 282.72902877 0 5.27578293 0 20946
0.13850000 0.13851100 11188.68856940 0 377.85157027 0 3466.12104949 0 -27.86918331 0 427.26174356 0 20955
0.13950000 0.13949800 10860.37804853 0 161.19501997 0 3135.01554699 0 166.19936803 0 220.97989888 0 20506
0.14050000 0.14048300 10683.06308292 0 126.54833894 0 3224.41059439 0 -93.99600863 0 701.67902933 0 21447
0.14150000 0.14148400 10643.26786827 0 -8.50030443 0 3163.33137280 0 235.70789930 0 404.84754364 0 21771
0.14250000 0.14249400 10549.13687977 0 20.67177287 0 2906.65889302 0 303.38638308 0 220.45861262 0 22470
0.14350000 0.14350900 10718.74346350 0 -19.12055807 0 2545.82898271 0 24.49013925 0 183.91422780 0 22519
0.14450000 0.14449900 10733.56130263 0 -59.43506256 0 2849.71668789 0 165.63593522 0 -195.21283013 0 22218
0.14550000 0.14550500 10689.37397399 0 61.96873559 0 2679.56663551 0 -134.88337345 0 380.16519396 0 23559
0.14650000 0.14650700 10708.50628872 0 81.79680111 0 2264.94441999 0 177.92276320 0 -155.28784847 0 23044
0.14750000 0.14750500 10575.67811407 0 138.02218218 0 2897.03173407 0 -116.65499126 0 276.29724366 0 23649
0.14850000 0.14849900 10425.31475704 0 120.35723280 0 2579.61276861 0 -127.84489986 0 15.83456915 0 23640
0.14950000 0.14949500 10249.45273823 0 207.85901289 0 3284.32524031 0 171.35344725 0 473.47987036 0 24457
0.15050000 0.15050000 10112.85355662 0 131.75232855 0 3259.45877675 0 -442.31471606 0 -37.11669059 0 24591
0.15150000 0.15149900 9777.89940878 0 238.95983825 0 3429.54228195 0 -193.46485749 0 227.43719374 0 25020
0.15250000 0.15250500 9798.86177101 0 148.89488255 0 3849.19990088 0 -244.40117947 0 8.87231427 0 25297
0.15350000 0.15350100 9541.69018737 0 64.32206576 0 3960.85498056 0 47.75015384 0 -16.73151424 0 25452
0.15450000 0.15450400 9564.30513795 0 69.81997208 0 3681.77828295 0 347.69238753 0 69.18233917 0 26061
0.15550000 0.15549900 9497.63595310 0 71.66632364 0 3743.85571227 0 -68.67924248 0 164.31053719 0 26128
0.15650000 0.15649500 9361.62460492 0 62.93333699 0 3537.43744586 0 381.54493886 0 372.37695546 0 26331
0.15750000 0.15749700 9400.22197030 0 54.72086021 0 3407.77026234 0 171.20926169 0 -19.44497558 0 27345
0.15850000 0.15849900 9170.02417764 0 113.43188943 0 3253.68026314 0 125.18523083 0 215.17143903 0 26980
0.15950000 0.15949700 9042.60850710 0 204.37970440 0 3262.64195027 0 -115.70780304 0 272.55951028 0 27777
0.16050000 0.16050000 8958.45959585 0 -43.42591797 0 2937.91388602 0 436.17795678 0 204.08024209 0 28224
0.16150000 0.16150500 8973.64344447 0 -83.85665821 0 2654.99963427 0 610.58481056 0 391.14769717 0 28075
0.16250000 0.16249700 9058.75728985 0 -23.14400067 0 2103.70059876 0 133.50141031 0 121.01937726 0 28590
0.16350000 0.16349900 9040.10189659 0 2.89936089 0 1856.71073392 0 202.05942600 0 688.50379648 0 29163
0.16450000 0.16449100 8924.30980045 0 99.14531864 0 1772.09599240 0 234.12074902 0 555.81758915 0 28996
0.16550000 0.16550500 8805.31234839 0 141.81537154 0 1778.57325142 0 129.20689885 0 1106.78832522 0 30777
0.16650000 0.16650700 8626.61098316 0 82.74055106 0 1621.98773291 0 144.54824247 0 665.96870252 0 29211
0.16750000 0.16749900 8654.86026179 0 122.36141209 0 1864.98476684 0 78.05862409 0 1252.47341538 0 30922
0.16850000 0.16850800 8291.01354590 0 88.61156525 0 1792.69234514 0 -107.04690917 0 1020.73061898 0 30867
0.16950000 0.16949900 8336.75364212 0 183.38517770 0 2082.07276471 0 -193.05004672 0 1074.57505281 0 30852
0.17050000 0.17049200 8210.55800324 0 73.57212401 0 2062.90717638 0 -334.58702922 0 1005.58780779 0 31257
0.17150000 0.17149500 8168.22290449 0 24.33275516 0 2449.02501574 0 90.36996361 0 526.28173167 0 32608
0.17250000 0.17250900 8119.94292417 0 21.26027178 0 2386.65921530 0 -182.98478549 0 721.44797877 0 32361
0.17350000 0.17350400 8164.89554540 0 38.38141978 0 2544.29839753 0 -125.45141956 0 -83.56928529 0 32508
0.17450000 0.17449800 8114.84097358 0 172.59344307 0 2327.66513874 0 -132.09171917 0 14.35788719 0 32791
0.17550000 0.17549800 7902.95474708 0 127.94028416 0 2871.79926102 0 -360.19216649 0 -153.16166602 0 33633
0.17650000 0.17650100 7833.93422847 0 132.79379194 0 2779.06576333 0 -136.53485267 0 -630.27723074 0 33984
0.17750000 0.17750300 7644.24148706 0 116.26569025 0 2866.30911853 0 136.17993437 0 -320.40471568 0 34069
0.17850000 0.17849800 7615.01618310 0 -40.35642922 0 2679.77736825 0 298.52511146 0 -31.88641484 0 34536
