### header ###
fiducial parameters:
Omega_m = 0.31
Omega_nu = 0
Omega_de = 0.69
Omega_k = 0
H_0 = 100
w_de = -1
zeff = 0
beta = 0
fgrowth = 0
b_1 = 2
gamma = 0.55
Lx = 3500 Ly = 3500 Lz = 3500
nx = 700 ny = 700 nz = 700
xoffset = 1379.75464 yoffset = 22.6059522 zoffset = 368.141391
bins = 400 dk = 0.001
kx_ny = 0.628318531 ky_ny = 0.628318531 kz_ny = 0.628318531
############################
A(data) = 3.33350222 (not used)
A(ran) = 3.3372904 (used)
Ngal = 187858
weighted Ngal = 0
Nran = 9399747
weighted Nran = 0
SN(data) = 6615.98174
SN(ran) = 132.742003
SN(data+ran) = 6748.72375
############################
13 columns: k_central k_mean P_0(k) sigma^{lin}_{P_0(k)} P^img_1(k) sigma^{lin}_{P_1(k)} P_2(k) sigma^{lin}_{P_2(k)} P^img_3(k) sigma^{lin}_{P_3(k)} P_4(k) sigma^{lin}_{P_4(k)} N_modes
### header ###
0.00050000 0 0 0 0 0 0 0 0 0 0 0 0
0.00150000 0.00179520 42407.52426744 0 -59101.88300193 0 -88049.01974104 0 99193.34352264 0 68376.00915413 0 3
0.00250000 0.00253879 57947.51122356 0 -49452.09800910 0 -584.16003383 0 -129900.09865758 0 -47729.30238713 0 6
0.00350000 0.00331552 83914.22151874 0 -8039.56501989 0 -82246.99279348 0 -3205.69974514 0 -20536.12753342 0 7
0.00450000 0.00420575 105582.20570073 0 1672.94069169 0 -21788.87822872 0 -66032.55015094 0 -274.66351035 0 24
0.00550000 0.00557378 96544.76569141 0 -4433.24014978 0 -15036.00296680 0 -6562.36177195 0 45407.13848208 0 45
0.00650000 0.00659388 113808.99012510 0 -16837.87882301 0 15299.19707038 0 50203.41569037 0 -42035.85825770 0 40
0.00750000 0.00754703 126423.00841432 0 -23477.29114015 0 -36176.48982193 0 5087.16603065 0 5123.63388622 0 57
0.00850000 0.00846663 130207.32481305 0 10799.43192130 0 -17640.54874615 0 -24135.11003115 0 -11536.06485782 0 75
0.00950000 0.00948925 122128.49695596 0 20681.20038950 0 17708.42687147 0 -43785.71640022 0 24346.95189286 0 112
0.01050000 0.01054430 102376.51704678 0 18665.04260826 0 29497.92557955 0 -27508.16484704 0 -9863.07980134 0 105
0.01150000 0.01145670 80900.07783609 0 14141.71975686 0 75123.67155349 0 -6094.61272305 0 4997.02787305 0 144
0.01250000 0.01249090 70830.49103877 0 12439.66467319 0 77664.99751023 0 4113.00402029 0 -8110.40449480 0 169
0.01350000 0.01339930 61235.71838280 0 6526.42629383 0 86362.60324506 0 22649.55511190 0 12861.68471707 0 180
0.01450000 0.01448870 57960.93157187 0 83.32927179 0 67535.96189727 0 30306.36292511 0 16796.17592248 0 267
0.01550000 0.01550050 59814.71422979 0 153.94803188 0 70023.49554882 0 15171.98104138 0 20794.33059838 0 238
0.01650000 0.01653350 56174.25065548 0 5756.13157458 0 56601.37264996 0 14961.35921134 0 22680.72137533 0 315
0.01750000 0.01747870 56892.29474591 0 -3692.23728167 0 47979.51979029 0 20636.39195383 0 46205.59375039 0 297
0.01850000 0.01844180 62645.74225083 0 -10718.77673710 0 21707.57975509 0 36701.87982136 0 33231.00064839 0 388
0.01950000 0.01947590 75227.26333298 0 -9076.76939370 0 11920.04209616 0 19256.42522953 0 31421.36095431 0 399
0.02050000 0.02045430 78059.17864977 0 -1026.88734241 0 4940.55149819 0 68.48836298 0 30423.04231701 0 462
0.02150000 0.02154770 77262.16523707 0 6341.26985198 0 6052.79891055 0 -15594.55564511 0 32453.17500641 0 571
0.02250000 0.02255340 72264.25006827 0 857.71664272 0 15326.81415078 0 -3116.55979527 0 12922.13174044 0 510
0.02350000 0.02348930 71068.95177316 0 2810.29857394 0 22454.46095759 0 -6446.51421982 0 17226.51436407 0 555
0.02450000 0.02439640 69046.58292162 0 4184.02095435 0 23639.55535150 0 905.43651759 0 -4185.10789165 0 592
0.02550000 0.02547300 65211.69066480 0 2646.25977107 0 32487.11406907 0 2089.53714026 0 14493.86525997 0 837
0.02650000 0.02652900 61229.28548857 0 1810.78208736 0 24047.26775132 0 -600.54949556 0 -3970.29358916 0 723
0.02750000 0.02749970 63304.11570168 0 1923.67938109 0 37275.40561556 0 3203.25968181 0 11118.70311665 0 826
0.02850000 0.02848090 55482.82543773 0 2610.15792501 0 29952.11009458 0 -1061.16690482 0 -318.88189434 0 831
0.02950000 0.02946900 54404.20653451 0 2091.46700853 0 32326.51353726 0 4162.12693158 0 7150.43921653 0 996
0.03050000 0.03053250 54466.20632545 0 -1356.54211634 0 28357.08506146 0 7317.77210489 0 14330.82466483 0 1041
0.03150000 0.03150510 53548.29886602 0 -1822.13947303 0 15283.11483480 0 14302.09846473 0 6936.45675381 0 1036
0.03250000 0.03246190 59073.60044971 0 -1795.95315704 0 16838.87703073 0 7830.70669016 0 18510.32041083 0 1059
0.03350000 0.03345080 56879.87260533 0 745.62124252 0 8491.24292441 0 -4203.45273141 0 -18.88542469 0 1302
0.03450000 0.03451200 53935.93619936 0 3406.37277153 0 13135.74819366 0 -7426.63220294 0 8486.24079458 0 1339
0.03550000 0.03553350 50995.77080035 0 2162.52830737 0 19365.45169554 0 -4054.86396589 0 -1947.08180665 0 1365
0.03650000 0.03647120 49183.02557114 0 1044.61883897 0 22090.55878571 0 370.10769656 0 2233.41214707 0 1308
0.03750000 0.03744890 50097.82749543 0 1277.65043245 0 24239.70001837 0 2.83665126 0 -3281.10879319 0 1579
0.03850000 0.03847530 48272.88194957 0 1257.81937231 0 25396.40094810 0 1246.72817536 0 2100.99434670 0 1662
0.03950000 0.03950240 46215.90856355 0 431.31113956 0 23118.15818297 0 1460.57754372 0 2074.24237967 0 1683
0.04050000 0.04050350 47396.89921460 0 -47.70257260 0 23075.56798669 0 8158.31846561 0 8773.36970118 0 1822
0.04150000 0.04152450 47189.05018379 0 -462.12692116 0 24929.01790870 0 2341.98387400 0 5478.31927342 0 1887
0.04250000 0.04250150 44740.44663353 0 2786.13085579 0 18889.30661055 0 -2618.99760897 0 6968.32176264 0 1920
0.04350000 0.04349210 43900.06664076 0 2321.96426350 0 25052.46293074 0 -2731.60653159 0 5913.89275997 0 2005
0.04450000 0.04448520 40770.90724576 0 373.21655907 0 22613.17598591 0 -526.97271324 0 2188.53716422 0 2151
0.04550000 0.04548030 40975.31800551 0 -662.72452741 0 24692.10994189 0 5018.05678247 0 5999.60552999 0 2274
0.04650000 0.04648670 42231.95061975 0 -1207.66497971 0 17836.53019622 0 3709.01826265 0 668.62837154 0 2311
0.04750000 0.04749250 43533.61349359 0 -469.10217493 0 13930.98701485 0 4184.20950470 0 -565.45362105 0 2568
0.04850000 0.04851840 42409.52068289 0 952.02730861 0 16281.21164817 0 -827.79259335 0 1760.25059406 0 2493
0.04950000 0.04949480 41542.85455335 0 2075.66205288 0 11557.24904399 0 -1764.32106334 0 1328.44811447 0 2644
0.05050000 0.05050630 38983.89359346 0 601.56212184 0 14512.83120675 0 2784.36735547 0 3293.02073872 0 2829
0.05150000 0.05149060 38434.43569665 0 348.14047189 0 14321.17532348 0 -745.68557146 0 2016.96743863 0 2784
0.05250000 0.05249300 37202.53645161 0 1432.40590347 0 14061.64131490 0 -251.68033203 0 -1633.03456507 0 3055
0.05350000 0.05348950 35905.19914457 0 1441.34540821 0 15655.55722832 0 -2554.31374837 0 -2504.38117971 0 3009
0.05450000 0.05448610 33951.37389017 0 948.52249037 0 16334.89304140 0 -1519.33870515 0 -2297.64126860 0 3336
0.05550000 0.05550870 33653.13160424 0 363.07587770 0 16736.83801881 0 1466.23405416 0 -4006.51743839 0 3349
0.05650000 0.05647670 33362.76406813 0 -59.73840679 0 14986.42531644 0 409.25629443 0 -6518.03025774 0 3324
0.05750000 0.05747970 33560.85284563 0 -44.71582418 0 14913.99980037 0 1880.04661230 0 -4953.16218912 0 3639
0.05850000 0.05849280 33093.24798229 0 499.62847629 0 13562.20471632 0 567.51658369 0 -4177.39950978 0 3846
0.05950000 0.05951020 32094.26387316 0 1097.33862542 0 15848.65496719 0 -134.50072715 0 -2802.46818889 0 3787
0.06050000 0.06049470 31196.20965627 0 949.81572394 0 15765.36007811 0 1298.00277885 0 -1104.06543637 0 3930
0.06150000 0.06148310 29372.59505404 0 866.11600617 0 18095.84238087 0 674.26602695 0 3561.54970803 0 4083
0.06250000 0.06249100 29990.70745996 0 -270.67955240 0 15705.91126247 0 4221.94175672 0 5827.07087026 0 4303
0.06350000 0.06350600 30030.63576898 0 -412.76554915 0 16552.39141356 0 2804.94152581 0 6979.18004446 0 4470
0.06450000 0.06451750 30109.82691519 0 494.69400276 0 13353.24656581 0 1233.56292458 0 9903.77340295 0 4479
0.06550000 0.06550280 28908.42846176 0 573.83634771 0 15612.63429614 0 -44.29746423 0 11566.45473745 0 4636
0.06650000 0.06648880 28776.33230610 0 413.44211216 0 14427.20716631 0 1266.28195558 0 11559.91093125 0 4653
0.06750000 0.06749660 28022.68547347 0 428.56163184 0 14876.40064271 0 684.07729977 0 10442.56156830 0 5220
0.06850000 0.06852730 28062.39195855 0 239.02194895 0 14065.41232186 0 34.28932266 0 11771.08732115 0 5029
0.06950000 0.06949320 27152.80289682 0 -159.12762086 0 13066.31730076 0 2022.82359061 0 8907.25153954 0 5040
0.07050000 0.07048030 28018.80355454 0 -337.91106094 0 12217.28617438 0 1161.93597469 0 10182.68373260 0 5475
0.07150000 0.07148790 28167.98015349 0 -319.56622119 0 10996.94395656 0 1619.31475444 0 7827.46806065 0 5509
0.07250000 0.07249820 28419.19576437 0 9.04238668 0 9540.29269656 0 438.49934431 0 7467.69181404 0 5916
0.07350000 0.07351270 28140.69580900 0 687.03088552 0 9310.91565247 0 -1336.36722909 0 5531.44610681 0 5721
0.07450000 0.07449140 27528.23991352 0 404.66564801 0 9729.36433094 0 261.64466337 0 4671.94489050 0 6028
0.07550000 0.07549160 26612.43978150 0 345.34659938 0 10041.58152503 0 947.39784300 0 5578.17331955 0 6183
0.07650000 0.07648840 26358.11863548 0 205.71064804 0 7196.46768387 0 1639.60055366 0 4657.50415207 0 6330
0.07750000 0.07749960 25747.10459560 0 155.97661180 0 7183.08060915 0 1758.05453707 0 4942.85846716 0 6583
0.07850000 0.07848650 25346.04691396 0 618.97308281 0 6369.28621547 0 -115.64014674 0 5785.27924016 0 6549
0.07950000 0.07947320 24819.99144270 0 558.57707895 0 5586.02588699 0 345.72037271 0 4365.93876670 0 6828
0.08050000 0.08048110 23272.65855646 0 597.31086605 0 6888.79788053 0 -226.96027227 0 4262.26934882 0 7147
0.08150000 0.08149960 22385.69553651 0 468.49437733 0 5089.30663166 0 -408.11722851 0 3323.55480391 0 7386
0.08250000 0.08250610 23262.89830314 0 -602.55811132 0 5079.49092236 0 1545.59156833 0 2706.71788564 0 7227
0.08350000 0.08350160 22910.53097610 0 -187.44122842 0 4416.71426633 0 647.44862185 0 745.18535848 0 7798
0.08450000 0.08449610 23604.17443324 0 1004.03060374 0 5058.98329920 0 -2470.07610755 0 1130.90280563 0 7371
0.08550000 0.08548940 21592.45313077 0 947.18600114 0 6185.52726443 0 -2137.75057339 0 -818.63681027 0 8256
0.08650000 0.08650700 21122.63002804 0 786.53555894 0 8492.45186488 0 -1677.49917363 0 8.45327776 0 8037
0.08750000 0.08749060 20473.46227066 0 262.33009934 0 9140.36631700 0 207.78802923 0 -1536.47460443 0 8155
0.08850000 0.08849210 20799.32163700 0 -228.82137512 0 9769.40355192 0 890.79835585 0 -759.30556131 0 8718
0.08950000 0.08949900 20865.53608278 0 -124.86913172 0 9591.58948244 0 863.65376044 0 -453.31829255 0 8571
0.09050000 0.09049190 20326.94755898 0 324.93879699 0 7907.08067234 0 795.01256077 0 390.30587533 0 8932
0.09150000 0.09150830 20690.51699494 0 248.17773203 0 9374.50148458 0 671.17712860 0 1947.05962426 0 9285
0.09250000 0.09250820 20017.39225215 0 -21.35443604 0 8171.55026357 0 498.40955374 0 1613.75806477 0 9204
0.09350000 0.09350330 19985.44960494 0 460.88027063 0 8302.01601327 0 768.38148778 0 1309.14943178 0 9349
0.09450000 0.09448040 19446.75016917 0 167.99614194 0 7208.91200685 0 123.35740158 0 1713.87829962 0 9564
0.09550000 0.09549270 18670.25547082 0 303.53944160 0 6402.00524647 0 1115.85205137 0 1949.84351469 0 10155
0.09650000 0.09649430 18689.22141760 0 143.58441745 0 6442.45484174 0 756.92539045 0 2471.57341914 0 9913
0.09750000 0.09749140 18326.53927740 0 13.49343930 0 4485.65714656 0 522.78800463 0 840.23358897 0 10476
0.09850000 0.09850240 18226.05303304 0 303.05364717 0 5210.52232311 0 382.93133848 0 783.08952405 0 10575
0.09950000 0.09950330 17296.16708091 0 456.34397108 0 4328.10669391 0 -924.49673954 0 762.34344016 0 10882
0.10050000 0.10051200 16899.54587804 0 554.56872037 0 4570.52698561 0 -495.46484095 0 -267.31226501 0 10875
0.10150000 0.10150300 16225.64475146 0 431.99435730 0 5448.55050081 0 -406.41029329 0 -1199.63495312 0 11118
0.10250000 0.10250800 15929.39888098 0 133.80641822 0 5473.45023796 0 283.84147582 0 -569.11371605 0 11575
0.10350000 0.10349800 15751.16334602 0 157.88540680 0 5297.24439205 0 -140.64081378 0 -1546.25704014 0 11364
0.10450000 0.10450100 15712.67689261 0 140.07959922 0 5369.55899615 0 88.94651940 0 -786.56883253 0 12093
0.10550000 0.10551000 15619.73266218 0 8.48682863 0 5373.11927037 0 161.59097570 0 -1103.40772839 0 12067
0.10650000 0.10649700 15467.33961611 0 -58.13129236 0 5169.45162081 0 566.29987938 0 147.18905646 0 12054
0.10750000 0.10749900 15555.95827973 0 103.71056622 0 5149.87565820 0 151.85068654 0 -822.31686942 0 12807
0.10850000 0.10850100 15715.11695594 0 -2.59149144 0 4988.72056654 0 -177.57671786 0 -501.38310364 0 12736
0.10950000 0.10950300 15340.89997090 0 238.82119829 0 4964.80794592 0 137.21696128 0 -1415.71365206 0 12933
0.11050000 0.11050200 15174.31019274 0 203.81959896 0 4903.55126517 0 -551.43656635 0 -811.94881851 0 13428
0.11150000 0.11150900 14784.67644395 0 183.00142229 0 4679.67545477 0 519.01145207 0 -1345.22909546 0 13453
0.11250000 0.11250000 14709.03448076 0 34.28577348 0 4739.72319505 0 473.91242704 0 -1037.00805962 0 13668
0.11350000 0.11349100 14654.68761572 0 90.07782149 0 4121.98788982 0 389.02816944 0 -903.39684647 0 13791
0.11450000 0.11448600 14455.60063050 0 278.33358742 0 4190.66458133 0 160.70367994 0 -689.84915867 0 14205
0.11550000 0.11549300 14165.23309439 0 132.19153995 0 4087.40553774 0 119.83261919 0 14.11576636 0 14776
0.11650000 0.11649800 13921.11584956 0 228.32338038 0 4479.40171148 0 26.53036492 0 -313.80212614 0 14553
0.11750000 0.11747300 13808.87293645 0 244.66293172 0 5080.98823395 0 -603.25242025 0 111.03175441 0 14568
0.11850000 0.11849100 13343.59722447 0 396.14428140 0 5659.64925233 0 -481.58420797 0 149.45720624 0 16015
0.11950000 0.11950300 13272.94629991 0 309.43552190 0 6314.92825923 0 -500.92060073 0 67.31746532 0 15270
0.12050000 0.12050700 12723.15566718 0 108.70604132 0 6319.26491723 0 446.90425335 0 1011.27759182 0 15999
0.12150000 0.12150000 13116.78224688 0 -94.40128097 0 6454.35569606 0 990.24868241 0 1142.87020714 0 15670
0.12250000 0.12250700 13022.39616085 0 -352.06786473 0 5730.74382477 0 1173.80355542 0 1782.23334641 0 16887
0.12350000 0.12352200 13425.22843401 0 49.92081199 0 5276.41512418 0 674.12627787 0 2307.80080500 0 16407
0.12450000 0.12449800 13182.88578069 0 137.14154115 0 4505.13328840 0 292.03565213 0 2787.83890012 0 16306
0.12550000 0.12549900 13094.59985298 0 134.13582677 0 4858.90919746 0 126.81009119 0 2855.70593424 0 17523
0.12650000 0.12650100 12931.55925784 0 36.44522952 0 4316.12820120 0 304.56981380 0 2591.87963244 0 17154
0.12750000 0.12750600 12734.80142398 0 99.67913795 0 4458.99390909 0 8.48686190 0 2495.35294540 0 18007
0.12850000 0.12850300 12938.32488798 0 -62.46961404 0 3915.50307624 0 -8.24158008 0 1563.72567534 0 17496
0.12950000 0.12949900 12927.56642694 0 -48.14477862 0 4116.18719382 0 -95.71769513 0 1267.25798091 0 18405
0.13050000 0.13049000 13030.38182265 0 78.97120777 0 4098.39691391 0 -401.52683928 0 531.07423787 0 18100
0.13150000 0.13148800 12671.35977744 0 286.97252072 0 3843.66539360 0 -477.01907131 0 343.43558614 0 19059
0.13250000 0.13249300 12517.41396379 0 211.89066298 0 4504.22381025 0 -357.34949271 0 -186.70920943 0 18957
0.13350000 0.13349100 12315.44326737 0 171.19262490 0 4146.94308296 0 296.26472552 0 -567.92806709 0 19468
0.13450000 0.13450700 11874.34636474 0 218.13722510 0 4814.18949136 0 55.89785803 0 -209.38183423 0 19953
0.13550000 0.13551000 11861.25875234 0 115.40501337 0 4076.29215840 0 349.36272179 0 78.07026985 0 19956
0.13650000 0.13649900 11744.24662453 0 -4.19316010 0 4411.53467735 0 806.26790743 0 461.79418526 0 19723
0.13750000 0.13749600 11464.19390159 0 93.30358521 0 3407.84790072 0 454.70358305 0 447.58858020 0 20946
0.13850000 0.13851100 11446.22616254 0 163.50420717 0 3880.83199458 0 2.39383522 0 1156.03545791 0 20955
0.13950000 0.13949800 11214.64197026 0 192.13391385 0 3156.04445640 0 153.52656640 0 992.87729609 0 20506
0.14050000 0.14048300 11079.21845552 0 109.03788993 0 3564.56651360 0 115.15878879 0 1068.55586022 0 21447
0.14150000 0.14148400 10764.84956922 0 179.54651444 0 3251.12928784 0 -299.26933078 0 671.68732366 0 21771
0.14250000 0.14249400 10616.16098293 0 143.99146438 0 3501.35778219 0 -12.14474975 0 268.04317489 0 22470
0.14350000 0.14350900 10411.02929537 0 99.45775766 0 3292.73236759 0 -127.42010702 0 199.78573063 0 22519
0.14450000 0.14449900 10468.00477410 0 -13.63562844 0 2845.59076263 0 296.67399069 0 -15.77500942 0 22218
0.14550000 0.14550500 10512.99066892 0 -55.40585253 0 3074.34669968 0 268.01877425 0 -297.02003603 0 23559
0.14650000 0.14650700 10537.89040607 0 1.09310512 0 2548.69051152 0 16.61660944 0 -759.55511325 0 23044
0.14750000 0.14750500 10361.07454432 0 185.41375762 0 2705.53112756 0 -343.97350919 0 -370.60458219 0 23649
0.14850000 0.14849900 10345.43595662 0 269.29315278 0 3057.35498596 0 -473.11386086 0 -1174.81285435 0 23640
0.14950000 0.14949500 9899.90257521 0 226.65526436 0 3646.87428615 0 -311.68038016 0 -368.65807712 0 24457
0.15050000 0.15050000 9762.21645630 0 189.16812779 0 3863.75155128 0 -135.82057959 0 -961.38495147 0 24591
0.15150000 0.15149900 9572.75663003 0 78.12173300 0 4234.28625892 0 116.29230912 0 -468.76167518 0 25020
0.15250000 0.15250500 9584.35802203 0 74.62756231 0 4125.39288729 0 93.87433820 0 -493.40520568 0 25297
0.15350000 0.15350100 9599.10931398 0 4.76061901 0 4186.25028494 0 313.46939023 0 -191.36862126 0 25452
0.15450000 0.15450400 9531.48628618 0 41.08090620 0 4191.17477639 0 260.93926324 0 295.90869810 0 26061
0.15550000 0.15549900 9504.12430331 0 32.41468855 0 3817.78963112 0 282.13232237 0 520.25144789 0 26128
0.15650000 0.15649500 9369.56590193 0 117.40697442 0 3858.63850948 0 133.87407452 0 751.62601655 0 26331
0.15750000 0.15749700 9351.73125724 0 129.20024413 0 3780.76721571 0 1.20860773 0 403.32139494 0 27345
0.15850000 0.15849900 9158.03459374 0 109.93893877 0 3942.24395208 0 -61.32788623 0 865.34516798 0 26980
0.15950000 0.15949700 9031.05147988 0 157.93531718 0 3723.55882185 0 -182.47459043 0 610.68241309 0 27777
0.16050000 0.16050000 9044.95984085 0 -15.50737884 0 3820.82861909 0 428.69250796 0 780.76148181 0 28224
0.16150000 0.16150500 9081.12823410 0 -137.47649529 0 3608.95348379 0 351.17613249 0 661.38138346 0 28075
0.16250000 0.16249700 9088.85879837 0 53.10587102 0 3471.15645290 0 363.05591354 0 645.97571090 0 28590
0.16350000 0.16349900 9027.85721516 0 68.72660189 0 3155.35680219 0 242.10530170 0 1262.55531340 0 29163
0.16450000 0.16449100 8958.22668072 0 29.78119475 0 3036.27062056 0 62.47560329 0 1064.03176099 0 28996
0.16550000 0.16550500 8923.64432863 0 96.14071339 0 3021.73006136 0 196.39847908 0 1289.38491882 0 30777
0.16650000 0.16650700 8863.26385245 0 6.19638555 0 2724.71889829 0 167.99392370 0 738.62713372 0 29211
0.16750000 0.16749900 8786.09130408 0 64.13573365 0 2683.93656711 0 -0.22409209 0 1183.44180557 0 30922
0.16850000 0.16850800 8676.38827506 0 99.47173257 0 2516.69240832 0 52.08037895 0 529.56916245 0 30867
0.16950000 0.16949900 8613.92265385 0 76.79411673 0 2378.71791829 0 -78.60320186 0 893.53344502 0 30852
0.17050000 0.17049200 8351.73784919 0 78.75781315 0 2275.55869547 0 134.11475350 0 -99.75278350 0 31257
0.17150000 0.17149500 8450.84878512 0 100.63286997 0 2178.91000527 0 -172.76757486 0 100.07797739 0 32608
0.17250000 0.17250900 8124.29067338 0 78.57015009 0 2086.89743538 0 136.16107933 0 -154.58688482 0 32361
0.17350000 0.17350400 8239.16220017 0 130.75522994 0 2107.44942333 0 -22.51535163 0 -134.94104767 0 32508
0.17450000 0.17449800 7967.30587177 0 37.30335543 0 1962.24347288 0 183.02027732 0 -156.32598451 0 32791
0.17550000 0.17549800 7830.06340073 0 123.32190975 0 1835.54873014 0 234.90822400 0 -276.16969489 0 33633
0.17650000 0.17650100 7870.34662805 0 82.70772111 0 1767.14931856 0 9.53750881 0 319.31001454 0 33984
0.17750000 0.17750300 7594.03163848 0 58.79210587 0 1774.29204940 0 71.20115884 0 -168.96329431 0 34069
0.17850000 0.17849800 7671.41491959 0 134.74362436 0 1927.70548559 0 -23.37125930 0 354.79740830 0 34536
