### header ###
fiducial parameters:
Omega_m = 0.31
Omega_nu = 0
Omega_de = 0.69
Omega_k = 0
H_0 = 100
w_de = -1
zeff = 0
beta = 0
fgrowth = 0
b_1 = 2
gamma = 0.55
Lx = 3500 Ly = 3500 Lz = 3500
nx = 700 ny = 700 nz = 700
xoffset = 1379.75464 yoffset = 22.6059522 zoffset = 368.141391
bins = 400 dk = 0.001
kx_ny = 0.628318531 ky_ny = 0.628318531 kz_ny = 0.628318531
############################
A(data) = 3.32501997 (not used)
A(ran) = 3.32551672 (used)
Ngal = 186361
weighted Ngal = 0
Nran = 9399747
weighted Nran = 0
SN(data) = 6672.5741
SN(ran) = 132.273701
SN(data+ran) = 6804.8478
############################
13 columns: k_central k_mean P_0(k) sigma^{lin}_{P_0(k)} P^img_1(k) sigma^{lin}_{P_1(k)} P_2(k) sigma^{lin}_{P_2(k)} P^img_3(k) sigma^{lin}_{P_3(k)} P_4(k) sigma^{lin}_{P_4(k)} N_modes
### header ###
0.00050000 0 0 0 0 0 0 0 0 0 0 0 0
0.00150000 0.00179520 26843.35850197 0 -14951.04439817 0 -24141.21018947 0 24435.79238042 0 -56544.91845749 0 3
0.00250000 0.00253879 53438.38510426 0 -12476.59835903 0 -13425.89390582 0 -15007.38767867 0 69687.09954538 0 6
0.00350000 0.00331552 64651.69613088 0 -17509.33988625 0 -42966.07694575 0 5645.03105475 0 -1026.26401714 0 7
0.00450000 0.00420575 70245.43039975 0 -11944.22090551 0 -26250.64493705 0 -26584.60087716 0 4730.28458645 0 24
0.00550000 0.00557378 74740.47069893 0 6429.86633320 0 -20891.37857167 0 -45658.46500493 0 -17814.01506642 0 45
0.00650000 0.00659388 74735.03601242 0 7133.29222605 0 -5390.56572317 0 -28568.48327529 0 -25539.14465282 0 40
0.00750000 0.00754703 63779.15166697 0 4432.67449874 0 19810.09778119 0 -19305.11558414 0 -9598.41056857 0 57
0.00850000 0.00846663 68526.51669672 0 -220.53625100 0 13923.22317698 0 -6597.88687577 0 -35956.44047447 0 75
0.00950000 0.00948925 58013.39293343 0 -409.26405827 0 17946.88760586 0 15155.78789384 0 -4129.71845410 0 112
0.01050000 0.01054430 78459.34903567 0 -1932.14196437 0 26120.98884473 0 12845.38065755 0 8199.33371193 0 105
0.01150000 0.01145670 68853.48518275 0 -1773.31602407 0 24536.05680083 0 16944.02157780 0 3006.92331344 0 144
0.01250000 0.01249090 80840.40719651 0 -4328.79434812 0 12741.78887806 0 22322.69753784 0 33907.78548617 0 169
0.01350000 0.01339930 72725.42203737 0 -1291.14841914 0 -4040.61177781 0 8893.50954652 0 24549.58806110 0 180
0.01450000 0.01448870 77367.86434399 0 4157.64608801 0 8121.40696217 0 -2121.95670894 0 42170.28356472 0 267
0.01550000 0.01550050 69583.95141376 0 3114.86284214 0 24527.40566721 0 7970.53341008 0 31891.18405704 0 238
0.01650000 0.01653350 67986.15358140 0 4254.59424054 0 13759.51711003 0 -102.66355722 0 49770.30444955 0 315
0.01750000 0.01747870 62836.28901440 0 -339.49710211 0 13597.80745852 0 11247.25008928 0 31374.11245532 0 297
0.01850000 0.01844180 62369.34962288 0 373.94857807 0 18285.72367263 0 2797.87643336 0 26265.39622899 0 388
0.01950000 0.01947590 60859.06133444 0 3778.04987246 0 12781.71718707 0 -4506.20913450 0 24769.19376068 0 399
0.02050000 0.02045430 52870.40490854 0 7202.94494289 0 20282.25003528 0 -1039.13091472 0 29043.63015255 0 462
0.02150000 0.02154770 51472.69226913 0 670.18113912 0 21858.42003359 0 248.26313425 0 19417.80214513 0 571
0.02250000 0.02255340 47065.38333781 0 -4132.46907094 0 23779.85899290 0 14393.71175153 0 23857.60828350 0 510
0.02350000 0.02348930 54694.79589456 0 -1073.20750822 0 15667.75754497 0 6385.46827182 0 18163.16594635 0 555
0.02450000 0.02439640 53799.62538887 0 -340.71269729 0 9708.96761975 0 3065.03009425 0 15319.71578473 0 592
0.02550000 0.02547300 57562.42486552 0 -1320.76191499 0 9160.05319158 0 3804.70201872 0 24260.88420454 0 837
0.02650000 0.02652900 58585.69869596 0 -2137.05182798 0 11931.13329311 0 -1105.96314017 0 19094.27193015 0 723
0.02750000 0.02749970 60961.98764212 0 2586.74440825 0 8185.25898300 0 -3703.41720819 0 19255.20519787 0 826
0.02850000 0.02848090 56191.22018681 0 4212.64733368 0 20325.72752731 0 -6032.95675921 0 7351.57807319 0 831
0.02950000 0.02946900 52138.71864587 0 3356.05201097 0 20477.01145369 0 -1554.79726179 0 11726.05706154 0 996
0.03050000 0.03053250 48429.26782654 0 1100.64047476 0 27695.16242759 0 721.94153704 0 9225.24724724 0 1041
0.03150000 0.03150510 48404.53445734 0 -390.84823486 0 21099.56033839 0 7372.79553295 0 2705.73076911 0 1036
0.03250000 0.03246190 48683.81079650 0 -739.48337413 0 14957.47729240 0 4962.00187309 0 11207.09995633 0 1059
0.03350000 0.03345080 48108.95405867 0 254.28232683 0 14079.38723001 0 1172.94953326 0 4015.73422306 0 1302
0.03450000 0.03451200 48050.61436272 0 827.47205776 0 9418.21189175 0 4622.15650740 0 7094.70595187 0 1339
0.03550000 0.03553350 47403.33210883 0 762.16598101 0 11084.23167654 0 -102.18763396 0 3549.36048258 0 1365
0.03650000 0.03647120 44766.17821045 0 639.64596480 0 7136.12048127 0 -879.91567341 0 1492.95274761 0 1308
0.03750000 0.03744890 46048.54240160 0 -84.57902786 0 10888.70496554 0 -1115.60804504 0 701.79437778 0 1579
0.03850000 0.03847530 45899.47671462 0 -88.83760384 0 9916.86101534 0 -1941.30329304 0 -1588.03757905 0 1662
0.03950000 0.03950240 46748.06419312 0 238.54280924 0 11603.38842329 0 -2190.97722755 0 -2242.30728702 0 1683
0.04050000 0.04050350 47427.17818226 0 1509.95555253 0 16108.63262366 0 -2755.07550433 0 -6616.34262749 0 1822
0.04150000 0.04152450 43409.50299974 0 1915.17243303 0 19585.05739511 0 -2626.40652854 0 -3761.96763688 0 1887
0.04250000 0.04250150 42922.93218962 0 1772.88346739 0 22182.28298448 0 -415.54611222 0 -5472.89567812 0 1920
0.04350000 0.04349210 42393.66027125 0 -39.65901475 0 27436.95936264 0 -212.02375734 0 2998.86001325 0 2005
0.04450000 0.04448520 41600.63968945 0 684.47547374 0 22292.97313002 0 3475.12710141 0 -4042.87438199 0 2151
0.04550000 0.04548030 42486.49358971 0 569.87568128 0 24908.16645844 0 2400.11283720 0 2873.30766380 0 2274
0.04650000 0.04648670 38336.38951562 0 983.87568064 0 20431.87028211 0 2630.69882176 0 3314.18274249 0 2311
0.04750000 0.04749250 39968.12641065 0 100.57552849 0 21717.89456825 0 4027.89017491 0 6787.12487810 0 2568
0.04850000 0.04851840 38486.56432230 0 300.57143730 0 20473.35135869 0 2920.47852442 0 9070.85778573 0 2493
0.04950000 0.04949480 37012.65515985 0 1496.32447148 0 15836.78738646 0 -395.20042054 0 3580.75966114 0 2644
0.05050000 0.05050630 35686.59165272 0 812.71632934 0 18790.26222180 0 498.06018104 0 8276.33989234 0 2829
0.05150000 0.05149060 35072.13934179 0 440.78524000 0 15945.92476443 0 760.99142325 0 5245.75905581 0 2784
0.05250000 0.05249300 34891.35283154 0 37.81909609 0 18380.44249456 0 1473.57642654 0 5233.85820149 0 3055
0.05350000 0.05348950 33490.97830485 0 83.39448803 0 14076.28169487 0 234.45348493 0 365.02238276 0 3009
0.05450000 0.05448610 35286.31035486 0 -354.74860703 0 13121.10781369 0 3003.38522161 0 3121.86138741 0 3336
0.05550000 0.05550870 33446.94625297 0 -9.78425466 0 13112.67850401 0 2214.59038585 0 4419.22087684 0 3349
0.05650000 0.05647670 34420.08787321 0 490.23423247 0 9089.69063814 0 1780.02619822 0 1469.40613649 0 3324
0.05750000 0.05747970 33834.47267434 0 -138.75863766 0 9861.37175701 0 2122.44472160 0 3212.94229675 0 3639
0.05850000 0.05849280 33364.98230752 0 585.92131590 0 7697.74542114 0 -15.32736871 0 2179.85275701 0 3846
0.05950000 0.05951020 32197.19018084 0 725.27222348 0 8369.86086501 0 -903.17280429 0 3680.81334881 0 3787
0.06050000 0.06049470 31574.97403205 0 1010.25941994 0 10619.49943321 0 -1174.59103041 0 1062.55219532 0 3930
0.06150000 0.06148310 30621.13109450 0 490.33405324 0 10112.85355662 0 -865.17658178 0 765.63419829 0 4083
0.06250000 0.06249100 30216.19149392 0 339.10336461 0 11646.20044351 0 623.73564278 0 865.60470199 0 4303
0.06350000 0.06350600 29962.97946759 0 -321.99741156 0 10404.71840431 0 1157.62149908 0 1400.08615556 0 4470
0.06450000 0.06451750 30835.85666742 0 6.05539425 0 11292.94582071 0 925.60031364 0 2590.31577367 0 4479
0.06550000 0.06550280 31454.63454516 0 591.57228075 0 11315.57186249 0 -123.25092609 0 1988.69597760 0 4636
0.06650000 0.06648880 30141.76956240 0 -59.30529555 0 10512.07009957 0 131.21551462 0 1335.72393967 0 4653
0.06750000 0.06749660 29772.43270402 0 535.85010728 0 12377.55397028 0 -103.13859319 0 3277.60397496 0 5220
0.06850000 0.06852730 29140.34538994 0 778.27150810 0 10989.65704016 0 -655.79807492 0 1482.10555699 0 5029
0.06950000 0.06949320 29222.08751145 0 356.76609575 0 14263.39018738 0 1221.77298223 0 3586.62690433 0 5040
0.07050000 0.07048030 27960.57477056 0 258.46592632 0 11324.88846792 0 1058.22995586 0 3113.05497703 0 5475
0.07150000 0.07148790 27370.41218095 0 727.02574172 0 11757.66697284 0 886.21547328 0 1551.50317630 0 5509
0.07250000 0.07249820 27208.03705762 0 505.42806317 0 11231.38967765 0 861.99008090 0 2825.93716163 0 5916
0.07350000 0.07351270 25119.34284833 0 858.46418939 0 9703.78803077 0 -31.98900841 0 3682.88740264 0 5721
0.07450000 0.07449140 25383.97880752 0 237.40263420 0 9724.55075146 0 1375.63006629 0 4079.34223756 0 6028
0.07550000 0.07549160 24113.48219710 0 -243.76010829 0 7611.92173916 0 2492.46923419 0 2602.12789842 0 6183
0.07650000 0.07648840 24260.55146863 0 742.61552815 0 6608.44569527 0 198.86737952 0 2767.94129279 0 6330
0.07750000 0.07749960 23327.11633347 0 534.85522691 0 7107.99320581 0 310.43594786 0 3777.46203902 0 6583
0.07850000 0.07848650 22092.77702510 0 233.05932147 0 6270.65220101 0 319.02718902 0 2996.88578020 0 6549
0.07950000 0.07947320 22767.01088759 0 63.03914701 0 5601.52028912 0 592.42741203 0 3412.87221294 0 6828
0.08050000 0.08048110 22328.68678419 0 -103.74106701 0 5761.42207553 0 563.53595310 0 1656.90282090 0 7147
0.08150000 0.08149960 21786.65998933 0 581.20977544 0 5456.81344254 0 -742.93051814 0 2673.89903387 0 7386
0.08250000 0.08250610 21517.47663940 0 381.72905273 0 5348.47463075 0 -373.97186958 0 1716.70655484 0 7227
0.08350000 0.08350160 21139.04499953 0 3.77864880 0 7041.24638258 0 -738.58387806 0 422.38827162 0 7798
0.08450000 0.08449610 21527.56962862 0 396.42156132 0 7096.65800253 0 -795.41628034 0 980.17122086 0 7371
0.08550000 0.08548940 20954.70930625 0 261.42062119 0 7858.86723921 0 -437.12403588 0 -1195.49793666 0 8256
0.08650000 0.08650700 20867.86523414 0 128.71888618 0 8561.74966341 0 -764.25445339 0 655.08712919 0 8037
0.08750000 0.08749060 20867.31067429 0 -76.31309151 0 8532.77945698 0 830.05187017 0 -1416.22384712 0 8155
0.08850000 0.08849210 21313.50952752 0 -242.86726693 0 8087.51226430 0 678.48622739 0 176.72713217 0 8718
0.08950000 0.08949900 21009.72164311 0 246.87784375 0 7570.52939215 0 673.82681555 0 -482.02231025 0 8571
0.09050000 0.09049190 20921.87936328 0 603.43098852 0 8113.03310847 0 -97.63026114 0 582.96994839 0 8932
0.09150000 0.09150830 19807.65771786 0 441.02702809 0 8241.95718180 0 210.54973727 0 316.26991746 0 9285
0.09250000 0.09250820 19585.39013102 0 305.08111798 0 7420.56531821 0 990.03905879 0 1110.94974232 0 9204
0.09350000 0.09350330 18762.86696534 0 74.88554356 0 7244.33728990 0 668.99659928 0 1149.18109820 0 9349
0.09450000 0.09448040 18812.22279176 0 154.54695652 0 6437.20870558 0 996.54071844 0 1517.37556329 0 9564
0.09550000 0.09549270 18247.56995512 0 424.83720790 0 5455.31613095 0 334.51271820 0 1011.97411899 0 10155
0.09650000 0.09649430 18227.71671259 0 311.98206072 0 6112.69137407 0 -944.38103743 0 1337.54289597 0 9913
0.09750000 0.09749140 16982.17529530 0 579.60377012 0 6056.10408724 0 138.15084007 0 1387.36455266 0 10476
0.09850000 0.09850240 17031.75294566 0 169.75409665 0 5760.29077344 0 683.96860604 0 1437.80731638 0 10575
0.09950000 0.09950330 16919.17729664 0 -245.47480734 0 6156.76779075 0 911.49342024 0 1669.30277909 0 10882
0.10050000 0.10051200 17099.63107098 0 -52.38804875 0 5461.27210371 0 874.17043339 0 1297.04893591 0 10875
0.10150000 0.10150300 16806.26891170 0 298.73140772 0 4589.44856760 0 257.50542867 0 2495.49713096 0 11118
0.10250000 0.10250800 16632.80259143 0 433.97524507 0 5370.81230140 0 -131.54603228 0 3313.27326434 0 11575
0.10350000 0.10349800 16149.89187631 0 70.42821333 0 4415.51641706 0 672.52027255 0 1828.01780742 0 11364
0.10450000 0.10450100 15724.76629728 0 210.04176045 0 4973.54780911 0 247.50338726 0 3368.84016105 0 12093
0.10550000 0.10551000 15444.49175040 0 408.93575884 0 4322.36145389 0 203.19294633 0 2297.59690381 0 12067
0.10650000 0.10649700 14703.04523441 0 296.81595801 0 4436.56750886 0 -167.03453516 0 2977.68691828 0 12054
0.10750000 0.10749900 14624.18682411 0 190.28390220 0 3727.52947036 0 166.26813345 0 1841.50470290 0 12807
0.10850000 0.10850100 14391.71533607 0 -71.66710002 0 3682.43266357 0 186.54395059 0 1995.76107006 0 12736
0.10950000 0.10950300 14482.77406302 0 -120.37276048 0 2783.34696535 0 797.81086976 0 1110.93865112 0 12933
0.11050000 0.11050200 14533.57174504 0 -51.62331072 0 2466.79311325 0 327.87907330 0 976.90929984 0 13428
0.11150000 0.11150900 14557.75055439 0 39.30908749 0 2284.68675056 0 191.38636718 0 782.40741544 0 13453
0.11250000 0.11250000 14361.76910431 0 287.72450387 0 2053.10255828 0 -434.54755083 0 1109.24169799 0 13668
0.11350000 0.11349100 14045.55907932 0 67.55526058 0 2701.69357342 0 259.10921575 0 1447.45665773 0 13791
0.11450000 0.11448600 14184.42086511 0 -6.15065654 0 3024.76904933 0 -51.45439179 0 1306.25462938 0 14205
0.11550000 0.11549300 14230.89298033 0 11.20643448 0 2934.51997976 0 -238.75576023 0 887.78931412 0 14776
0.11650000 0.11649800 14310.08412654 0 194.63497877 0 3362.93964428 0 -679.51105399 0 885.42910741 0 14553
0.11750000 0.11747300 14209.37605825 0 194.95218700 0 3809.34923025 0 -777.95873634 0 617.33491302 0 14568
0.11850000 0.11849100 14076.17078290 0 139.98199668 0 4424.08991230 0 -434.18597781 0 33.13472906 0 16015
0.11950000 0.11950300 13967.03340493 0 101.66401855 0 4405.63416058 0 44.75431063 0 -582.77141597 0 15270
0.12050000 0.12050700 13701.95379786 0 165.99307177 0 4726.49139709 0 366.76370068 0 117.26389797 0 15999
0.12150000 0.12150000 13871.98184708 0 20.55243159 0 4137.63756872 0 240.13328689 0 -399.68015499 0 15670
0.12250000 0.12250700 13743.87852233 0 -122.08635041 0 4209.94108162 0 1024.66023006 0 743.59820820 0 16887
0.12350000 0.12352200 13380.19817440 0 260.47454209 0 3788.07631450 0 -99.26188712 0 507.05070528 0 16407
0.12450000 0.12449800 13537.13861121 0 262.93346045 0 3741.01636585 0 348.91131008 0 1306.87573641 0 16306
0.12550000 0.12549900 12988.90074606 0 141.42052493 0 3828.67009533 0 -222.12118304 0 861.83591326 0 17523
0.12650000 0.12650100 12647.84643991 0 433.23102576 0 4254.03968069 0 -200.52994994 0 1834.41742805 0 17154
0.12750000 0.12750600 12658.93763685 0 -10.63087900 0 4211.43839321 0 186.66817200 0 1000.69437170 0 18007
0.12850000 0.12850300 12353.48607290 0 -37.28416766 0 4056.29473030 0 470.12256504 0 1740.61917546 0 17496
0.12950000 0.12949900 12538.81997390 0 57.87819124 0 3913.59539036 0 212.89108894 0 1423.07820684 0 18405
0.13050000 0.13049000 12417.81501520 0 152.14460326 0 3963.92724211 0 101.70017586 0 1395.01747856 0 18100
0.13150000 0.13148800 12271.41121548 0 119.20596656 0 3463.35934145 0 -195.06531721 0 1309.30470854 0 19059
0.13250000 0.13249300 12081.52992373 0 241.71378245 0 4721.61127043 0 -426.30124590 0 1440.80193956 0 18957
0.13350000 0.13349100 11992.13487633 0 41.95699985 0 3764.95116886 0 161.71630622 0 831.84198936 0 19468
0.13450000 0.13450700 11931.79876493 0 -212.60715430 0 3954.30008316 0 565.09426627 0 1191.77129448 0 19953
0.13550000 0.13551000 12068.66413527 0 -75.71483235 0 3514.47866818 0 418.50413445 0 510.06196525 0 19956
0.13650000 0.13649900 12288.38074681 0 78.39690560 0 3091.80424368 0 149.65684778 0 818.32292940 0 19723
0.13750000 0.13749600 11765.31989874 0 349.33388468 0 3334.60163607 0 -344.94287981 0 315.40147674 0 20946
0.13850000 0.13851100 11780.84757446 0 326.01797046 0 3476.29167709 0 -264.65814158 0 906.37372373 0 20955
0.13950000 0.13949800 11168.28076701 0 164.01329311 0 3480.93888861 0 232.96171894 0 141.06782486 0 20506
0.14050000 0.14048300 11227.84049462 0 38.28326268 0 3464.00263087 0 354.61773091 0 1162.36853137 0 21447
0.14150000 0.14148400 10689.82871306 0 252.25374691 0 3387.63973988 0 82.86055781 0 183.71014977 0 21771
0.14250000 0.14249400 10786.02266419 0 220.95549824 0 3149.77793013 0 59.29597895 0 1099.46258964 0 22470
0.14350000 0.14350900 10296.56814287 0 164.57783504 0 3410.02177532 0 228.82470248 0 1267.35780168 0 22519
0.14450000 0.14449900 10050.04410830 0 115.26193693 0 3085.90372690 0 155.40097868 0 1186.88007663 0 22218
0.14550000 0.14550500 10106.83103667 0 37.47981638 0 3014.63169531 0 288.85026036 0 1656.49244661 0 23559
0.14650000 0.14650700 10121.65996699 0 -88.21538770 0 2888.14768532 0 47.12117206 0 520.67069514 0 23044
0.14750000 0.14750500 10005.83459726 0 130.48349562 0 3136.52394978 0 -52.73387227 0 1405.62066284 0 23649
0.14850000 0.14849900 10126.86173836 0 -17.19767725 0 2613.19691297 0 -70.39682524 0 874.78599482 0 23640
0.14950000 0.14949500 10051.80760861 0 -64.18131847 0 2877.14521794 0 136.75445837 0 807.50124853 0 24457
0.15050000 0.15050000 10325.12797501 0 29.62602890 0 2768.90622693 0 52.89258730 0 102.90268343 0 24591
0.15150000 0.15149900 10222.27930571 0 46.42630857 0 2631.12028724 0 20.04778213 0 607.63344305 0 25020
0.15250000 0.15250500 9997.52729075 0 166.59976024 0 2707.97119089 0 -108.50872893 0 595.21462982 0 25297
0.15350000 0.15350100 9897.62887984 0 141.81980802 0 2892.38452255 0 -105.48493590 0 542.98840164 0 25452
0.15450000 0.15450400 9708.33542152 0 179.48329461 0 2769.13914206 0 53.91441928 0 121.80463401 0 26061
0.15550000 0.15549900 9655.11985856 0 67.63556085 0 3159.64909541 0 -29.58155320 0 569.17915411 0 26128
0.15650000 0.15649500 9506.59764023 0 120.04778841 0 2880.61676259 0 -18.50832400 0 12.56898803 0 26331
0.15750000 0.15749700 9288.02342197 0 186.02377345 0 2986.31586951 0 -149.53595373 0 83.00141601 0 27345
0.15850000 0.15849900 9218.58143788 0 68.04493693 0 2915.96440726 0 96.39181809 0 281.12413257 0 26980
0.15950000 0.15949700 9106.71562546 0 -17.69533926 0 3003.71795752 0 281.02653003 0 250.75310796 0 27777
0.16050000 0.16050000 9094.19366410 0 54.62303585 0 2786.62995965 0 217.12238058 0 248.98406205 0 28224
0.16150000 0.16150500 8933.80386504 0 196.03468782 0 2580.03423410 0 -153.76059065 0 -57.54112977 0 28075
0.16250000 0.16249700 8761.50212045 0 254.38214761 0 2946.28773972 0 -196.13783595 0 94.51718398 0 28590
0.16350000 0.16349900 8492.30767932 0 60.64766312 0 3076.64257745 0 20.20161703 0 382.87255513 0 29163
0.16450000 0.16449100 8407.67075540 0 48.20999486 0 2865.21109003 0 256.68800745 0 75.56521210 0 28996
0.16550000 0.16550500 8395.61462432 0 12.97237486 0 2472.76017721 0 542.99172899 0 550.88977034 0 30777
0.16650000 0.16650700 8362.28557749 0 122.35586649 0 2577.74944752 0 61.47739556 0 378.21536153 0 29211
0.16750000 0.16749900 8119.87637699 0 104.00659026 0 2172.62129660 0 309.00185610 0 913.07724316 0 30922
0.16850000 0.16850800 8088.27755689 0 37.75410168 0 2415.31886822 0 228.24019640 0 936.00607462 0 30867
0.16950000 0.16949900 7922.14251780 0 108.33326619 0 2079.68815737 0 -199.78018503 0 1278.01644195 0 30852
0.17050000 0.17049200 7943.35997756 0 -15.44937188 0 2119.99356708 0 332.98324214 0 950.09078562 0 31257
0.17150000 0.17149500 7978.40815992 0 2.97476993 0 1848.11505629 0 106.73879572 0 1076.72896325 0 32608
0.17250000 0.17250900 7987.14802311 0 -29.07878925 0 1848.07069150 0 63.39395440 0 1135.94930024 0 32361
0.17350000 0.17350400 8060.58283811 0 22.53531578 0 1927.17310813 0 8.48060647 0 1031.65433886 0 32508
0.17450000 0.17449800 8001.43348478 0 62.77129460 0 1861.94577888 0 -172.59898867 0 698.86852002 0 32791
0.17550000 0.17549800 7982.48972039 0 83.26583015 0 2047.14658552 0 -258.18753728 0 645.98125650 0 33633
0.17650000 0.17650100 7977.57632015 0 144.80334000 0 2263.58020277 0 -222.15445663 0 446.46836931 0 33984
0.17750000 0.17750300 7871.25610620 0 31.29270307 0 2205.45123956 0 143.75854924 0 262.35117261 0 34069
0.17850000 0.17849800 7709.97901138 0 -4.44634994 0 2246.27793553 0 76.12964312 0 455.87814080 0 34536
