### header ###
fiducial parameters:
Omega_m = 0.31
Omega_nu = 0
Omega_de = 0.69
Omega_k = 0
H_0 = 100
w_de = -1
zeff = 0
beta = 0
fgrowth = 0
b_1 = 2
gamma = 0.55
Lx = 3500 Ly = 3500 Lz = 3500
nx = 700 ny = 700 nz = 700
xoffset = 1379.75464 yoffset = 22.6059522 zoffset = 368.141391
bins = 400 dk = 0.001
kx_ny = 0.628318531 ky_ny = 0.628318531 kz_ny = 0.628318531
############################
A(data) = 3.30157456 (not used)
A(ran) = 3.30024829 (used)
Ngal = 185235
weighted Ngal = 0
Nran = 9399747
weighted Nran = 0
SN(data) = 6734.67443
SN(ran) = 131.268639
SN(data+ran) = 6865.94307
############################
13 columns: k_central k_mean P_0(k) sigma^{lin}_{P_0(k)} P^img_1(k) sigma^{lin}_{P_1(k)} P_2(k) sigma^{lin}_{P_2(k)} P^img_3(k) sigma^{lin}_{P_3(k)} P_4(k) sigma^{lin}_{P_4(k)} N_modes
### header ###
0.00050000 0 0 0 0 0 0 0 0 0 0 0 0
0.00150000 0.00179520 97606.08232738 0 -63651.60290206 0 -82001.43369305 0 116330.01919143 0 50571.86525299 0 3
0.00250000 0.00253879 138342.71777457 0 -45140.39519548 0 15983.63483405 0 -162589.18342308 0 -19417.13667331 0 6
0.00350000 0.00331552 144537.15127015 0 7084.40222990 0 -41931.26827048 0 -11474.06506688 0 66888.45781943 0 7
0.00450000 0.00420575 140112.87280751 0 25170.36235430 0 30314.12676297 0 -88553.89102612 0 20759.72606390 0 24
0.00550000 0.00557378 105775.19252763 0 16870.70876597 0 76323.18450344 0 -13762.95538108 0 46175.75843060 0 45
0.00650000 0.00659388 118357.48999357 0 4107.17005070 0 44069.20739422 0 72486.96130299 0 -57477.79903280 0 40
0.00750000 0.00754703 96723.33396227 0 -2631.99649180 0 63215.16430215 0 28455.13124248 0 29411.52515533 0 57
0.00850000 0.00846663 108467.80241075 0 8815.87116789 0 44005.32209980 0 33450.82817190 0 -1490.74559942 0 75
0.00950000 0.00948925 101686.64459660 0 2179.08746442 0 63739.33426992 0 8298.53337743 0 42126.25151283 0 112
0.01050000 0.01054430 95322.51578771 0 2757.70411801 0 37563.11126439 0 20876.84910367 0 1862.53361232 0 105
0.01150000 0.01145670 91242.72990228 0 -4196.50964212 0 22524.22458639 0 19394.17789563 0 18769.18894760 0 144
0.01250000 0.01249090 98515.44956517 0 -1805.52486000 0 27941.94155969 0 2145.31476971 0 2687.31938218 0 169
0.01350000 0.01339930 100280.94629539 0 4798.34017092 0 5758.91546502 0 -269.04027349 0 4786.39495181 0 180
0.01450000 0.01448870 100644.84846726 0 -2429.65978587 0 11900.52158953 0 -7491.65989065 0 2473.69183776 0 267
0.01550000 0.01550050 95874.63557180 0 -528.17832635 0 18420.48171555 0 -3995.49278863 0 -41814.81070252 0 238
0.01650000 0.01653350 97157.55432280 0 7076.84912478 0 22995.04589684 0 -17866.47642798 0 -19768.06214476 0 315
0.01750000 0.01747870 95081.72590197 0 8228.38155674 0 31593.05268307 0 -8829.62425210 0 -37792.14448137 0 297
0.01850000 0.01844180 89341.47692141 0 -2685.89970897 0 30637.32424204 0 -5514.09947478 0 -34298.08470678 0 388
0.01950000 0.01947590 87458.41350354 0 3154.33641207 0 48927.92804133 0 -2540.53848176 0 -34601.31803134 0 399
0.02050000 0.02045430 87334.52483363 0 7161.07567441 0 46830.91543433 0 -9891.40671835 0 -38558.98983837 0 462
0.02150000 0.02154770 83976.55404559 0 -944.48529468 0 49757.88230896 0 4544.04120729 0 -34722.98846186 0 571
0.02250000 0.02255340 85667.73975625 0 -1011.25430031 0 54923.49637563 0 9319.62224208 0 -25788.03111234 0 510
0.02350000 0.02348930 79765.78112420 0 7445.57596733 0 53313.83096253 0 -4530.84268292 0 -26986.43494260 0 555
0.02450000 0.02439640 75959.50415551 0 6467.68731480 0 41808.26689633 0 503.28524392 0 -25041.48264576 0 592
0.02550000 0.02547300 70118.32528272 0 2490.56154831 0 58058.31228107 0 2362.73550349 0 -14418.77785663 0 837
0.02650000 0.02652900 61973.06115592 0 5703.37075070 0 46474.66618835 0 913.46210770 0 -16616.72035586 0 723
0.02750000 0.02749970 59911.87311506 0 4071.80022363 0 58207.04523215 0 6501.32691514 0 -4114.91170617 0 826
0.02850000 0.02848090 55661.28279662 0 1972.79120118 0 49434.35209398 0 6252.91737709 0 -9546.55922283 0 831
0.02950000 0.02946900 55473.50883229 0 -343.76277645 0 51895.82143270 0 8958.64814620 0 1381.24221195 0 996
0.03050000 0.03053250 55637.88037106 0 -2998.16126785 0 39739.09319366 0 10136.59980928 0 4556.17497675 0 1041
0.03150000 0.03150510 58268.15772733 0 -1457.15036386 0 36397.09372923 0 7827.20187192 0 1545.73575389 0 1036
0.03250000 0.03246190 57731.89835489 0 3190.52698772 0 41153.33171653 0 -1116.08496651 0 7828.06698528 0 1059
0.03350000 0.03345080 56909.04245330 0 3267.21152342 0 41310.60488926 0 -914.56900915 0 9204.98363042 0 1302
0.03450000 0.03451200 53788.20145601 0 -1157.65477267 0 39339.58827959 0 7708.29314944 0 15573.59328288 0 1339
0.03550000 0.03553350 52127.18380104 0 -371.70371980 0 29642.11113988 0 8262.08770426 0 9556.51911769 0 1365
0.03650000 0.03647120 55758.44168189 0 1872.79296950 0 36889.43196176 0 5573.85884394 0 20784.68125703 0 1308
0.03750000 0.03744890 52495.18971578 0 1134.86236294 0 24230.27250097 0 2389.31001137 0 11447.44619420 0 1579
0.03850000 0.03847530 49363.92299336 0 1841.64888846 0 32177.55876224 0 -1738.32329769 0 11256.89943063 0 1662
0.03950000 0.03950240 46306.74546655 0 2462.21244891 0 25967.70850290 0 -2642.78822643 0 453.90834423 0 1683
0.04050000 0.04050350 43250.89888338 0 1658.79941558 0 31114.02388688 0 -1631.13797039 0 2610.03592184 0 1822
0.04150000 0.04152450 42659.84899801 0 961.25629359 0 27170.99245982 0 2663.58422071 0 -1566.18792106 0 1887
0.04250000 0.04250150 40158.56226225 0 297.83080253 0 24185.13132939 0 2975.89014437 0 -7070.11676824 0 1920
0.04350000 0.04349210 41453.45950595 0 479.02103236 0 23091.76113423 0 2040.83569446 0 -5481.13643745 0 2005
0.04450000 0.04448520 40321.82468132 0 -361.02511538 0 22019.13147737 0 2447.15060346 0 -6785.00645948 0 2151
0.04550000 0.04548030 41893.44728889 0 -522.13362401 0 19678.88892129 0 194.38209948 0 -6797.36205288 0 2274
0.04650000 0.04648670 41204.35122249 0 -73.27421446 0 19432.77526101 0 452.23690085 0 -7068.70818622 0 2311
0.04750000 0.04749250 41347.76039903 0 1526.39270641 0 18899.73233568 0 -2658.08298702 0 -9802.39986284 0 2568
0.04850000 0.04851840 39542.66809571 0 947.42224363 0 20198.17876241 0 -752.37023586 0 -8747.95976897 0 2493
0.04950000 0.04949480 39898.69551775 0 176.38330507 0 21218.12523377 0 3595.14494358 0 -7924.06129487 0 2644
0.05050000 0.05050630 38916.01546814 0 -197.08613329 0 18246.90448331 0 5160.68957522 0 -2567.39026957 0 2829
0.05150000 0.05149060 40106.10090068 0 -1293.66612084 0 16641.89737293 0 6614.82313351 0 -386.76778350 0 2784
0.05250000 0.05249300 40123.29225595 0 731.14833962 0 12949.97064478 0 1003.63242977 0 1077.08388156 0 3055
0.05350000 0.05348950 37943.09567184 0 1471.99038538 0 14904.35045902 0 -1296.53874085 0 2298.39546999 0 3009
0.05450000 0.05448610 35502.92143126 0 1646.45491337 0 13482.90265814 0 340.39105258 0 4346.19643613 0 3336
0.05550000 0.05550870 34523.67965270 0 579.35089083 0 13696.18637545 0 -48.11239233 0 3467.50744910 0 3349
0.05650000 0.05647670 34336.23842428 0 -150.88797064 0 13745.54220187 0 1111.97013244 0 -563.40396786 0 3324
0.05750000 0.05747970 33962.02143924 0 679.47334392 0 12123.34373622 0 1433.13792247 0 1449.68598831 0 3639
0.05850000 0.05849280 33059.19800766 0 259.47744348 0 11397.42489596 0 1634.56515024 0 2950.36930020 0 3846
0.05950000 0.05951020 33304.09163628 0 -431.51410847 0 8698.45975699 0 3751.44209098 0 5845.12733889 0 3787
0.06050000 0.06049470 32967.69563284 0 -158.97012586 0 7583.89428447 0 1783.37573970 0 4920.64279967 0 3930
0.06150000 0.06148310 34089.68111612 0 310.74871962 0 8183.66185064 0 1320.63991182 0 6804.62678689 0 4083
0.06250000 0.06249100 32016.07093468 0 1118.49175624 0 8924.70908354 0 -1089.31525355 0 5599.04695220 0 4303
0.06350000 0.06350600 30989.58065712 0 1231.05631407 0 8466.13245452 0 -2834.71029842 0 7269.03738550 0 4470
0.06450000 0.06451750 29837.75985405 0 1022.15251043 0 12903.94217744 0 -1223.60302972 0 3287.78569376 0 4479
0.06550000 0.06550280 29668.39727665 0 422.09213666 0 12184.78896732 0 -1271.63900370 0 964.50490517 0 4636
0.06650000 0.06648880 28482.41558697 0 514.78570604 0 12612.79825755 0 282.31865448 0 1431.31896617 0 4653
0.06750000 0.06749660 27725.33048329 0 592.36197397 0 12683.78191802 0 -79.86305092 0 -914.11094272 0 5220
0.06850000 0.06852730 27302.31223168 0 257.57641233 0 12488.57685173 0 1222.95974030 0 -273.77066899 0 5029
0.06950000 0.06949320 27407.23495481 0 111.74935485 0 11752.12137437 0 1007.94912362 0 -2568.84321637 0 5040
0.07050000 0.07048030 26594.47204245 0 -18.15728761 0 10393.32774504 0 1431.10823343 0 -840.68832804 0 5475
0.07150000 0.07148790 27145.14997093 0 -428.77236458 0 8788.14317552 0 1173.63718747 0 -965.26243393 0 5509
0.07250000 0.07249820 26673.33045275 0 -175.34627815 0 7461.15909904 0 1258.58466490 0 -1540.03487865 0 5916
0.07350000 0.07351270 27772.46807032 0 97.57447242 0 7007.20749915 0 -316.09467655 0 -1741.97230149 0 5721
0.07450000 0.07449140 27153.35745667 0 301.91125389 0 7468.01345875 0 59.31050842 0 -3093.40137604 0 6028
0.07550000 0.07549160 25789.14023204 0 1028.46894709 0 7672.52403928 0 -1220.00948191 0 -392.25016215 0 6183
0.07650000 0.07648840 25366.56562831 0 761.88093725 0 9268.74692168 0 -1367.43367175 0 -4491.19165383 0 6330
0.07750000 0.07749960 23993.25362218 0 952.77818264 0 10176.83867181 0 -828.00221697 0 -3726.53126263 0 6583
0.07850000 0.07848650 23722.29568074 0 487.75091347 0 11881.77746669 0 30.63444053 0 -2840.81045674 0 6549
0.07950000 0.07947320 22498.49300947 0 -153.66964284 0 10130.97657243 0 1969.54148047 0 539.96605047 0 6828
0.08050000 0.08048110 23890.77096238 0 -634.43310223 0 8749.96727562 0 3306.79600532 0 -757.89032458 0 7147
0.08150000 0.08149960 23938.90675714 0 -164.17966107 0 7314.78857291 0 1493.98422893 0 -549.55217199 0 7386
0.08250000 0.08250610 23227.62829685 0 575.54882852 0 6585.12090808 0 -873.50496157 0 663.89797605 0 7227
0.08350000 0.08350160 22264.57966583 0 1107.57358197 0 7562.43281837 0 -1320.47354387 0 474.24849031 0 7798
0.08450000 0.08449610 21784.21992600 0 741.60955658 0 7996.16516623 0 -1276.75204550 0 -173.45744731 0 7371
0.08550000 0.08548940 20690.84973085 0 178.86218759 0 8545.66742783 0 712.59387625 0 -1156.46801459 0 8256
0.08650000 0.08650700 20560.63907868 0 102.22856048 0 7487.75578932 0 1045.30427494 0 -688.46497729 0 8037
0.08750000 0.08749060 20655.46881258 0 76.41779241 0 7890.49933290 0 456.76321832 0 -1668.49312171 0 8155
0.08850000 0.08849210 20407.46964882 0 -84.22410956 0 6307.44170129 0 1477.40288949 0 966.55677661 0 8718
0.08950000 0.08949900 20027.15250547 0 137.83252271 0 6686.47226580 0 508.75653137 0 349.89509925 0 8571
0.09050000 0.09049190 20123.64591892 0 243.33198809 0 5623.42540310 0 554.00306932 0 1322.99124557 0 8932
0.09150000 0.09150830 19366.89355114 0 418.70044863 0 6022.37575732 0 37.45641395 0 781.69092412 0 9285
0.09250000 0.09250820 18922.91293730 0 674.08967692 0 6758.67595793 0 -1100.29332029 0 1449.71926191 0 9204
0.09350000 0.09350330 18524.84987883 0 415.23777695 0 7725.71741984 0 -1200.07860099 0 1197.18379859 0 9349
0.09450000 0.09448040 18118.80115856 0 217.36971427 0 8240.18259029 0 -328.34934005 0 -392.29452694 0 9564
0.09550000 0.09549270 18165.49509771 0 -114.03414142 0 8536.27318402 0 51.35667835 0 51.57805864 0 10155
0.09650000 0.09649430 18424.14181054 0 -62.77617473 0 8456.23910684 0 332.66159743 0 -2049.13190977 0 9913
0.09750000 0.09749140 18468.95024621 0 134.43972557 0 8179.61356375 0 203.76968857 0 -672.56352822 0 10476
0.09850000 0.09850240 18149.63468607 0 229.14191071 0 7745.14919690 0 -47.89445031 0 -2402.84127165 0 10575
0.09950000 0.09950330 17545.27536436 0 466.04987752 0 7893.43850010 0 -17.68125344 0 -1293.64393845 0 10882
0.10050000 0.10051200 17202.44646669 0 190.32161227 0 7280.71641589 0 1227.32967190 0 -1319.28678579 0 10875
0.10150000 0.10150300 17116.15695444 0 -140.52990181 0 6545.70279413 0 1111.81485568 0 -850.30106844 0 11118
0.10250000 0.10250800 16815.58551714 0 120.81640836 0 5478.87383327 0 827.17259544 0 -37.23137356 0 11575
0.10350000 0.10349800 16658.42325638 0 272.83013549 0 5161.29959105 0 607.78982892 0 -1150.13494114 0 11364
0.10450000 0.10450100 16348.31338971 0 309.25695363 0 4741.29814502 0 -628.54367665 0 153.46667393 0 12093
0.10550000 0.10551000 15630.04747534 0 245.20750949 0 5033.32936066 0 178.65810956 0 -474.63446396 0 12067
0.10650000 0.10649700 15561.06023033 0 174.69189753 0 5114.37273676 0 57.51728369 0 219.93399900 0 12054
0.10750000 0.10749900 15409.22174410 0 251.93653868 0 5106.93054361 0 -76.67410997 0 -918.98219642 0 12807
0.10850000 0.10850100 15307.40455612 0 111.95010552 0 5335.02100885 0 242.34043508 0 141.46599884 0 12736
0.10950000 0.10950300 14792.99484166 0 223.29241344 0 5721.17212180 0 347.65356834 0 91.12704872 0 12933
0.11050000 0.11050200 15142.14572159 0 -77.64769524 0 5190.11452072 0 265.95026602 0 538.54304990 0 13428
0.11150000 0.11150900 15111.09037014 0 -78.62183507 0 5187.20862712 0 522.72922129 0 831.30184806 0 13453
0.11250000 0.11250000 14950.48983833 0 291.31916080 0 4930.51396495 0 -222.08569121 0 225.75798652 0 13668
0.11350000 0.11349100 14662.67327752 0 232.49367043 0 5133.63814586 0 -169.31377613 0 432.07865039 0 13791
0.11450000 0.11448600 14321.61897136 0 317.33578148 0 5580.30282936 0 -97.05573713 0 -233.82350494 0 14205
0.11550000 0.11549300 14000.75064365 0 282.69797341 0 5235.26678350 0 31.89739513 0 773.50118429 0 14776
0.11650000 0.11649800 13729.01631842 0 35.42816676 0 5434.46468069 0 406.19734231 0 440.45472233 0 14553
0.11750000 0.11747300 13511.18521036 0 -61.05260272 0 4835.11858000 0 923.85234100 0 619.91694367 0 14568
0.11850000 0.11849100 13861.77794589 0 -51.41668172 0 4767.66192016 0 212.66039205 0 708.74190355 0 16015
0.11950000 0.11950300 13710.71584345 0 137.13155907 0 4273.00562747 0 -57.54722993 0 535.47411570 0 15270
0.12050000 0.12050700 13723.13798404 0 103.29675366 0 4624.66311791 0 290.42853769 0 1801.94240339 0 15999
0.12150000 0.12150000 13332.17329161 0 -2.04341994 0 4702.14621979 0 68.16438912 0 970.56069871 0 15670
0.12250000 0.12250700 13583.38890249 0 189.90125591 0 4735.70818176 0 487.66107478 0 1793.40218174 0 16887
0.12350000 0.12352200 13507.52511536 0 91.34576712 0 4484.76985080 0 151.59004341 0 1850.04492455 0 16407
0.12450000 0.12449800 12993.00448893 0 2.08180658 0 4713.10432237 0 -12.18878180 0 2196.37864046 0 16306
0.12550000 0.12549900 13415.91182857 0 162.16549970 0 4491.39129538 0 185.69769226 0 2213.03761828 0 17523
0.12650000 0.12650100 13193.31150582 0 -41.38092308 0 4225.56857812 0 197.53310853 0 2790.12368669 0 17154
0.12750000 0.12750600 13099.25815570 0 15.47909628 0 4005.88524017 0 739.64530560 0 2874.38350990 0 18007
0.12850000 0.12850300 13087.50148693 0 20.85821589 0 3384.55638713 0 396.72102364 0 2047.35731826 0 17496
0.12950000 0.12949900 12818.65087291 0 329.55384404 0 3647.81703789 0 50.22027431 0 2489.72970854 0 18405
0.13050000 0.13049000 12524.29050590 0 286.87602731 0 3277.20469187 0 -99.55946393 0 2680.44284007 0 18100
0.13150000 0.13148800 12142.30968301 0 132.68509821 0 3099.03570409 0 131.21440550 0 2781.65001222 0 19059
0.13250000 0.13249300 11951.65200747 0 37.05990366 0 3052.67450085 0 501.61047318 0 2210.66410213 0 18957
0.13350000 0.13349100 12052.47098773 0 -141.05229719 0 2786.85178359 0 267.74149433 0 2469.37736214 0 19468
0.13450000 0.13450700 12343.28217171 0 -129.82135116 0 2087.26344488 0 512.49870122 0 1814.75273587 0 19953
0.13550000 0.13551000 12270.08027185 0 107.86921051 0 2118.96208576 0 -240.52813350 0 1670.25662202 0 19956
0.13650000 0.13649900 12121.01458487 0 144.59371637 0 1659.53143457 0 -538.69278106 0 1260.80290429 0 19723
0.13750000 0.13749600 11947.65917656 0 201.50486616 0 2356.45788601 0 -370.27850100 0 599.36495572 0 20946
0.13850000 0.13851100 11711.86032945 0 241.38991950 0 2716.40050057 0 -373.85430289 0 584.46947822 0 20955
0.13950000 0.13949800 11579.65326182 0 184.41554990 0 2586.21203080 0 -53.12150961 0 -70.29046066 0 20506
0.14050000 0.14048300 11337.97608032 0 135.23607351 0 2770.99137195 0 -8.02643304 0 -17.87412935 0 21447
0.14150000 0.14148400 10996.31175833 0 208.34702555 0 3156.61010745 0 -402.10247240 0 -639.73247614 0 21771
0.14250000 0.14249400 10784.62517338 0 238.81454357 0 3159.94855773 0 -290.18231312 0 -748.59922890 0 22470
0.14350000 0.14350900 10526.25574047 0 224.85738133 0 3298.81034352 0 -16.42606268 0 -911.74075393 0 22519
0.14450000 0.14449900 10330.41847595 0 76.49376711 0 2962.30342811 0 359.90157713 0 -1415.92438480 0 22218
0.14550000 0.14550500 10071.73848953 0 137.58851638 0 3029.30534888 0 30.67081966 0 -1084.65695083 0 23559
0.14650000 0.14650700 10007.06572012 0 62.71018211 0 2665.39208581 0 286.36472313 0 -1632.46891402 0 23044
0.14750000 0.14750500 9870.42217372 0 85.76611867 0 2646.25977107 0 5.91182980 0 -1462.58505037 0 23649
0.14850000 0.14849900 9693.79486232 0 158.31352700 0 2387.02522480 0 -105.25080074 0 -1604.05326744 0 23640
0.14950000 0.14949500 9470.44033818 0 167.19646664 0 2541.19286238 0 -49.35050265 0 -1505.36379699 0 24457
0.15050000 0.15050000 9481.22098161 0 71.10510908 0 2396.97402847 0 -42.52009992 0 -1591.88622439 0 24591
0.15150000 0.15149900 9249.53696856 0 -77.06185822 0 2403.06309559 0 505.58999465 0 -1288.73053820 0 25020
0.15250000 0.15250500 9556.31947615 0 -31.73601821 0 2283.35580693 0 165.25328893 0 -1369.15280727 0 25297
0.15350000 0.15350100 9517.74429316 0 40.54209585 0 1926.44108913 0 269.65472580 0 -678.44518996 0 25452
0.15450000 0.15450400 9484.41524633 0 -36.70265621 0 1858.41877825 0 415.41634522 0 -480.63147415 0 26061
0.15550000 0.15549900 9517.21191571 0 2.90044782 0 1995.26196620 0 69.87398621 0 -78.25970749 0 26128
0.15650000 0.15649500 9565.35880166 0 139.74575419 0 1704.25114067 0 103.86417929 0 172.60453427 0 26331
0.15750000 0.15749700 9460.25861938 0 132.18044875 0 2039.38274766 0 29.95898664 0 450.21719388 0 27345
0.15850000 0.15849900 9298.13859359 0 116.76368499 0 1962.26565528 0 -29.27465978 0 1151.36606400 0 26980
0.15950000 0.15949700 9117.89555198 0 67.61426575 0 2205.37360118 0 187.45342874 0 904.01129878 0 27777
0.16050000 0.16050000 9214.95461648 0 -66.13403460 0 2032.62820872 0 418.40320456 0 1393.08761029 0 28224
0.16150000 0.16150500 9093.37291553 0 71.46978763 0 1683.13350168 0 41.44680479 0 895.81712247 0 28075
0.16250000 0.16249700 9220.93277163 0 75.95673136 0 2194.31567783 0 -178.13793242 0 1462.58505037 0 28590
0.16350000 0.16349900 8988.45019240 0 -4.12033530 0 1696.40966443 0 120.21415636 0 1000.03666372 0 29163
0.16450000 0.16449100 9089.74609413 0 16.05495123 0 2091.30064057 0 140.64525026 0 1140.33032303 0 28996
0.16550000 0.16550500 9128.07727078 0 -0.57597362 0 1276.25294164 0 -15.93694089 0 764.06812128 0 30777
0.16650000 0.16650700 8991.57790994 0 113.04147930 0 2102.24765196 0 -71.80451995 0 644.21553794 0 29211
0.16750000 0.16749900 9032.12732598 0 80.47328858 0 1404.51154314 0 23.90075304 0 564.24246235 0 30922
0.16850000 0.16850800 8750.82129778 0 96.85088273 0 1665.80905205 0 -214.47602099 0 297.01781779 0 30867
0.16950000 0.16949900 8641.86137896 0 223.93237550 0 1653.78619456 0 -1.88033498 0 575.08078000 0 30852
0.17050000 0.17049200 8517.19632527 0 42.03918562 0 1371.39322906 0 378.98176324 0 78.86062854 0 31257
0.17150000 0.17149500 8426.15978072 0 -17.90984301 0 1386.33307135 0 395.00188811 0 134.65822215 0 32608
0.17250000 0.17250900 8270.08445726 0 163.27572851 0 1165.00823624 0 -80.07045630 0 465.18698240 0 32361
0.17350000 0.17350400 8178.24934653 0 175.47715428 0 731.98905235 0 60.87580904 0 226.01197493 0 32508
0.17450000 0.17449800 7898.64027146 0 117.59330652 0 1329.61269015 0 -170.42289583 0 586.92063275 0 32791
0.17550000 0.17549800 7872.91978574 0 27.21180806 0 673.41755039 0 235.73673642 0 310.74095578 0 33633
0.17650000 0.17650100 7837.82723860 0 -20.35267914 0 963.20501689 0 69.03737723 0 371.67488269 0 33984
0.17750000 0.17750300 7896.93222713 0 128.57580974 0 986.63849780 0 -513.70764169 0 102.05742331 0 34069
