### header ###
fiducial parameters:
Omega_m = 0.31
Omega_nu = 0
Omega_de = 0.69
Omega_k = 0
H_0 = 100
w_de = -1
zeff = 0
beta = 0
fgrowth = 0
b_1 = 2
gamma = 0.55
Lx = 3500 Ly = 3500 Lz = 3500
nx = 700 ny = 700 nz = 700
xoffset = 1379.75464 yoffset = 22.6059522 zoffset = 368.141391
bins = 400 dk = 0.001
kx_ny = 0.628318531 ky_ny = 0.628318531 kz_ny = 0.628318531
############################
A(data) = 3.31976476 (not used)
A(ran) = 3.32027528 (used)
Ngal = 186494
weighted Ngal = 0
Nran = 9399747
weighted Nran = 0
SN(data) = 6648.06886
SN(ran) = 132.06522
SN(data+ran) = 6780.13408
############################
13 columns: k_central k_mean P_0(k) sigma^{lin}_{P_0(k)} P^img_1(k) sigma^{lin}_{P_1(k)} P_2(k) sigma^{lin}_{P_2(k)} P^img_3(k) sigma^{lin}_{P_3(k)} P_4(k) sigma^{lin}_{P_4(k)} N_modes
### header ###
0.00050000 0 0 0 0 0 0 0 0 0 0 0 0
0.00150000 0.00179520 37619.01089701 0 -42814.23845953 0 -40652.12052644 0 23356.39709341 0 74821.10370074 0 3
0.00250000 0.00253879 65345.89414787 0 -35847.85765635 0 -36520.42783929 0 -35427.39038004 0 -26223.58241650 0 6
0.00350000 0.00331552 98104.74254217 0 -32159.81284713 0 -64863.53799260 0 -25081.96551462 0 32668.78787508 0 7
0.00450000 0.00420575 115635.71026247 0 -16189.48744941 0 -50184.78247950 0 -57057.55358044 0 -21145.14515785 0 24
0.00550000 0.00557378 118079.10095017 0 16413.19689186 0 -24676.91500207 0 -73527.53740067 0 1974.62124868 0 45
0.00650000 0.00659388 88390.62860704 0 21500.72893201 0 26706.93677950 0 -27368.41576550 0 -56675.57275754 0 40
0.00750000 0.00754703 69394.40285791 0 22408.09975434 0 45504.18645538 0 -24714.62507169 0 7490.51749736 0 57
0.00850000 0.00846663 58764.15605486 0 6881.03404266 0 50005.21600091 0 19663.13942163 0 -23615.48745413 0 75
0.00950000 0.00948925 52035.01595440 0 1377.75957611 0 55127.01983963 0 7335.66220557 0 -17405.52628282 0 112
0.01050000 0.01054430 58885.49374947 0 -4535.06842896 0 38668.79268816 0 9650.26191430 0 -29991.70566769 0 105
0.01150000 0.01145670 64928.42149474 0 -5360.36439388 0 46936.61454124 0 -5574.71286610 0 -18667.03902371 0 144
0.01250000 0.01249090 68690.66641155 0 1069.57957770 0 38821.07482226 0 -3550.70251741 0 -31117.57306990 0 169
0.01350000 0.01339930 77202.93824537 0 2074.59729797 0 55698.66013034 0 -2111.40898064 0 -44210.17650743 0 180
0.01450000 0.01448870 69071.53811475 0 1033.60417128 0 56482.36410670 0 -12802.67954930 0 -22707.45115997 0 267
0.01550000 0.01550050 76447.51682123 0 2917.30644209 0 58802.42068433 0 24338.41167121 0 -28519.12744887 0 238
0.01650000 0.01653350 71310.29621875 0 -1562.99365634 0 52067.51316146 0 3263.44051645 0 -6024.53854073 0 315
0.01750000 0.01747870 78162.88134124 0 -1754.89354594 0 49345.95525431 0 17689.23910075 0 -27098.23420784 0 297
0.01850000 0.01844180 81792.80827845 0 -6389.57201469 0 34579.91202123 0 7262.19411698 0 -7560.46967651 0 388
0.01950000 0.01947590 82590.70898691 0 1795.46514437 0 28457.79312975 0 -345.08373801 0 -17971.39915111 0 399
0.02050000 0.02045430 85856.95557619 0 584.75008550 0 34311.94870296 0 -5031.63240753 0 -24135.55367903 0 462
0.02150000 0.02154770 83871.18767458 0 -2505.13538110 0 20946.72364444 0 7839.22472941 0 -14436.74559568 0 571
0.02250000 0.02255340 87010.77279471 0 -1821.78455473 0 24033.29284316 0 8356.77325261 0 -15583.13171225 0 510
0.02350000 0.02348930 89329.83116462 0 2136.64145370 0 14792.66210575 0 3439.11398492 0 -16474.08756310 0 555
0.02450000 0.02439640 83895.14465999 0 4468.44360889 0 16181.27996367 0 3354.86525290 0 -11040.79854929 0 592
0.02550000 0.02547300 78127.05677510 0 3542.56157885 0 15853.97874173 0 -1244.07737929 0 12394.74532555 0 837
0.02650000 0.02652900 73359.94941478 0 6144.91130121 0 36101.62424253 0 -1925.23214867 0 9363.64320276 0 723
0.02750000 0.02749970 66984.72940894 0 6158.54238226 0 27234.21228242 0 3161.40150453 0 9783.17881853 0 826
0.02850000 0.02848090 62564.00012932 0 3089.69691626 0 40005.94739224 0 2051.54979071 0 22468.76860165 0 831
0.02950000 0.02946900 56277.17696316 0 -389.79457115 0 30611.92540103 0 4277.44210625 0 15954.90863396 0 996
0.03050000 0.03053250 59069.27488290 0 2640.13743036 0 37584.96092238 0 5799.34287789 0 22203.79990656 0 1041
0.03150000 0.03150510 56369.01207389 0 2062.05315422 0 33633.16744973 0 -890.70186244 0 15948.14300382 0 1036
0.03250000 0.03246190 53234.97255223 0 773.27714211 0 37801.79382272 0 4717.39661559 0 22030.99905810 0 1059
0.03350000 0.03345080 55677.25412023 0 -1073.09215978 0 30129.90198166 0 6118.74716761 0 10957.95839928 0 1302
0.03450000 0.03451200 54114.39355826 0 -1740.05352442 0 27171.43610769 0 4925.43419675 0 13686.31521017 0 1339
0.03550000 0.03553350 55631.11474093 0 1096.04206450 0 20281.47365149 0 4153.05433247 0 7879.21958561 0 1365
0.03650000 0.03647120 55641.42955409 0 136.47385109 0 18736.35900463 0 2135.01104775 0 8668.44697805 0 1308
0.03750000 0.03744890 53523.67640879 0 1146.66339649 0 11804.36091199 0 202.89015665 0 2600.39767169 0 1579
0.03850000 0.03847530 50786.14717803 0 1397.79027779 0 17220.85785363 0 -1603.79816991 0 -17.95842245 0 1662
0.03950000 0.03950240 48879.45951066 0 1611.66182855 0 8112.47854863 0 398.29708273 0 -5320.04789297 0 1683
0.04050000 0.04050350 47733.62795394 0 583.86722623 0 14169.22592529 0 1079.16902658 0 -794.88501200 0 1822
0.04150000 0.04152450 45258.51644298 0 185.01447453 0 6517.12077959 0 5259.19049532 0 -4725.38227740 0 1887
0.04250000 0.04250150 45098.47047102 0 261.99958167 0 8108.16407301 0 3158.49561093 0 -292.89189253 0 1920
0.04350000 0.04349210 43626.89045993 0 1696.16565809 0 5977.86678397 0 1153.35138825 0 445.72969560 0 2005
0.04450000 0.04448520 40778.11652377 0 2951.36750792 0 9312.11350174 0 -2945.58899431 0 4150.72518112 0 2151
0.04550000 0.04548030 38693.63696933 0 986.12497538 0 10346.91108582 0 1654.22984243 0 7748.53201197 0 2274
0.04650000 0.04648670 37439.22259448 0 -24.80268918 0 10274.84048805 0 -34.09544854 0 8347.04627288 0 2311
0.04750000 0.04749250 37651.39719210 0 229.80405517 0 11128.24154603 0 -480.96310094 0 3667.28208854 0 2568
0.04850000 0.04851840 38821.40755817 0 1734.99593861 0 14531.02076974 0 -3291.44578875 0 3070.01004168 0 2493
0.04950000 0.04949480 36187.35919494 0 -41.04563619 0 11283.07465543 0 -3356.72857399 0 -1615.54374748 0 2644
0.05050000 0.05050630 36783.62194287 0 2.67863497 0 16818.02558047 0 826.26644465 0 -1746.24241232 0 2829
0.05150000 0.05149060 35383.69106407 0 1036.36587932 0 14372.08391748 0 -3335.36692866 0 -6841.90429983 0 2784
0.05250000 0.05249300 37044.81963100 0 840.51308713 0 18973.26697145 0 -613.77685704 0 -7157.67067694 0 3055
0.05350000 0.05348950 36016.22202602 0 -554.01526964 0 16195.14395986 0 1495.08225742 0 -9751.00325618 0 3009
0.05450000 0.05448610 35403.21157070 0 -358.28780798 0 15862.40805141 0 1294.22068069 0 -6531.81661555 0 3336
0.05550000 0.05550870 36493.80896661 0 644.15009988 0 16169.63420687 0 354.00106036 0 -9038.07220755 0 3349
0.05650000 0.05647670 35752.58427457 0 384.38095792 0 14815.62088344 0 53.13714820 0 -4832.23486880 0 3324
0.05750000 0.05747970 35880.35486341 0 -420.44620303 0 14705.70712168 0 2711.44273554 0 -5323.70798797 0 3639
0.05850000 0.05849280 35572.13050022 0 337.89331503 0 14359.88360083 0 1134.05270556 0 -3350.42877412 0 3846
0.05950000 0.05951020 35499.15042430 0 170.66246568 0 11831.97799239 0 2291.86275499 0 -2282.92325025 0 3787
0.06050000 0.06049470 35020.89801189 0 -11.11748308 0 13118.11319051 0 2245.86756124 0 -1434.42450131 0 3930
0.06150000 0.06148310 35138.02105166 0 1084.25544950 0 11895.19781500 0 -1090.77485507 0 -67.96774219 0 4083
0.06250000 0.06249100 33243.86643685 0 1339.00693397 0 12391.30705449 0 -920.43625234 0 -299.29705877 0 4303
0.06350000 0.06350600 30921.36979589 0 983.73482244 0 13147.28303848 0 419.79625889 0 2902.16695826 0 4470
0.06450000 0.06451750 30396.09070842 0 841.67211721 0 12868.78308311 0 1193.57915958 0 636.15223776 0 4479
0.06550000 0.06550280 28637.47052031 0 718.11951057 0 11931.68785296 0 2252.66646497 0 1142.87020714 0 4636
0.06650000 0.06648880 29277.87623210 0 91.63691104 0 13121.21872566 0 857.91628426 0 4648.99720401 0 4653
0.06750000 0.06749660 28527.66767052 0 -106.60692139 0 11042.67296157 0 898.73743463 0 3502.27835154 0 5220
0.06850000 0.06852730 28110.74957724 0 195.79733621 0 10262.20761472 0 1107.34621243 0 4110.88560168 0 5029
0.06950000 0.06949320 28346.32660042 0 198.25625457 0 10779.75613792 0 -614.16726717 0 2630.00007635 0 5040
0.07050000 0.07048030 28044.31330752 0 731.34243557 0 11138.22362328 0 -698.62895017 0 2315.84192279 0 5475
0.07150000 0.07148790 26964.47437264 0 666.06408681 0 12464.84169026 0 -618.45734215 0 1862.82198344 0 5509
0.07250000 0.07249820 26333.38526629 0 1117.40481894 0 14990.19632340 0 -1551.35899074 0 1703.94058716 0 5916
0.07350000 0.07351270 25131.32134104 0 476.77950145 0 14293.89097899 0 -166.91142287 0 1005.83181412 0 5721
0.07450000 0.07449140 25566.98355716 0 -144.20441536 0 14405.69024423 0 1184.55092527 0 645.89030868 0 6028
0.07550000 0.07549160 25030.50236078 0 -393.34375417 0 13532.36939653 0 1331.50928483 0 1925.45397261 0 6183
0.07650000 0.07648840 25730.02415230 0 434.14161302 0 13308.10539423 0 922.05556709 0 574.82900983 0 6330
0.07750000 0.07749960 24771.96655992 0 544.70420980 0 12753.43463485 0 658.08397061 0 3492.71773977 0 6583
0.07850000 0.07848650 24270.53354589 0 345.29114339 0 12482.92034129 0 449.23340471 0 1458.68094904 0 6549
0.07950000 0.07947320 24335.74978394 0 303.53722336 0 12829.52024592 0 998.13785080 0 5574.70177490 0 6828
0.08050000 0.08048110 23400.98370515 0 217.76677912 0 11757.55606087 0 1066.55279005 0 2801.33688680 0 7147
0.08150000 0.08149960 23362.71907568 0 -50.44121095 0 11300.04418676 0 1326.86207331 0 5779.04598748 0 7386
0.08250000 0.08250610 22923.28585259 0 215.78367311 0 10675.43233942 0 294.07199589 0 4357.78673694 0 7227
0.08350000 0.08350160 23124.59107720 0 196.34745957 0 10165.85838683 0 184.23476339 0 4008.93531933 0 7798
0.08450000 0.08449610 22764.34900032 0 135.28043830 0 10517.18314136 0 588.13179145 0 4088.76975496 0 7371
0.08550000 0.08548940 22181.95024857 0 259.51071707 0 9107.99111311 0 -102.25728668 0 803.24333803 0 8256
0.08650000 0.08650700 21740.40969806 0 1028.35803512 0 10506.99033137 0 -1398.85503270 0 2129.03289259 0 8037
0.08750000 0.08749060 20203.16980103 0 906.01880543 0 10506.33595075 0 -999.22146074 0 -203.80518040 0 8155
0.08850000 0.08849210 19897.82914905 0 396.56463776 0 11563.79285019 0 -603.33227687 0 -251.36201468 0 8718
0.08950000 0.08949900 18944.20803544 0 329.86328844 0 10748.52332731 0 771.73879309 0 -2382.96584672 0 8571
0.09050000 0.09049190 19113.90334875 0 183.82771646 0 10960.56483057 0 858.04494215 0 -1149.30310137 0 8932
0.09150000 0.09150830 18649.51493253 0 -365.26417086 0 9479.33547813 0 1309.63744445 0 -1764.84234960 0 9285
0.09250000 0.09250820 18850.82015714 0 -46.66044374 0 8677.64158032 0 1315.62669080 0 -874.14714188 0 9204
0.09350000 0.09350330 19378.98295581 0 19.43432803 0 7354.21777806 0 1017.96669270 0 182.85945497 0 9349
0.09450000 0.09448040 18431.79473643 0 -116.13370501 0 6639.62304989 0 523.17841477 0 -756.88768038 0 9564
0.09550000 0.09549270 19052.23629372 0 333.91490268 0 6964.50639089 0 -324.58609693 0 -88.86721734 0 10155
0.09650000 0.09649430 18508.65673129 0 233.83903262 0 6512.08537618 0 114.88483623 0 -605.68915622 0 9913
0.09750000 0.09749140 17773.75402150 0 490.62131524 0 7399.00403134 0 -497.34258059 0 -48.94412119 0 10476
0.09850000 0.09850240 17716.85618115 0 205.35351150 0 6956.93110338 0 166.44781084 0 -1312.36587890 0 10575
0.09950000 0.09950330 17664.83846746 0 -107.88462728 0 7411.10452721 0 763.06325884 0 268.65540896 0 10882
0.10050000 0.10051200 17277.53387003 0 238.74688727 0 5823.32204569 0 1164.39822041 0 31.54536054 0 10875
0.10150000 0.10150300 17175.05121023 0 309.07505800 0 6103.55222779 0 313.87643716 0 830.32804097 0 11118
0.10250000 0.10250800 16861.94672038 0 172.84299500 0 5862.74015965 0 323.90620656 0 1330.22270599 0 11575
0.10350000 0.10349800 16074.47173706 0 339.97402358 0 5961.08580299 0 697.19042193 0 1843.00201449 0 11364
0.10450000 0.10450100 16211.78075528 0 142.81579750 0 5656.72117634 0 -13.73167821 0 2285.70714068 0 12093
0.10550000 0.10551000 16036.98349137 0 -9.66716490 0 5352.75583277 0 387.61847831 0 2062.60771407 0 12067
0.10650000 0.10649700 16045.08006515 0 -200.76730156 0 5745.32874875 0 458.46349881 0 2980.45971752 0 12054
0.10750000 0.10749900 15924.07510644 0 182.65981342 0 5048.97903956 0 -193.34285432 0 1015.32698783 0 12807
0.10850000 0.10850100 16180.94722776 0 302.84956915 0 6005.35077001 0 -701.95298190 0 2158.60202365 0 12736
0.10950000 0.10950300 15731.53192742 0 306.03717915 0 5923.35355097 0 -331.30736228 0 589.37733287 0 12933
0.11050000 0.11050200 15597.66118025 0 142.94778275 0 6902.89479185 0 -264.90991175 0 1563.85876970 0 13428
0.11150000 0.11150900 15298.86433447 0 193.14210366 0 6406.06462455 0 387.00291687 0 964.92415242 0 13453
0.11250000 0.11250000 15248.17756442 0 198.23185394 0 7076.39438571 0 177.70648486 0 1332.26348622 0 13668
0.11350000 0.11349100 14798.54044014 0 73.00503111 0 6621.16729817 0 533.71727011 0 1794.45584545 0 13791
0.11450000 0.11448600 14720.12567771 0 327.07052505 0 6947.24848844 0 245.05223273 0 1272.03828679 0 14205
0.11550000 0.11549300 14467.46821123 0 190.78744254 0 6516.62167573 0 -134.51070923 0 2071.17011811 0 14776
0.11650000 0.11649800 13968.03161265 0 118.56156802 0 6704.51764323 0 134.61607560 0 1917.52376679 0 14553
0.11750000 0.11747300 14177.87705891 0 110.68903642 0 6421.17083479 0 515.38352155 0 1421.01524420 0 14568
0.11850000 0.11849100 14158.35655228 0 -43.39231164 0 5993.68283082 0 224.10539818 0 1800.97746926 0 16015
0.11950000 0.11950300 13952.39302496 0 63.85135536 0 5285.62081764 0 681.02389325 0 711.85298429 0 15270
0.12050000 0.12050700 13754.74789534 0 315.54233494 0 5926.35926534 0 -49.98680461 0 2683.81456394 0 15999
0.12150000 0.12150000 13415.46818069 0 193.19866876 0 5257.62663655 0 324.12692138 0 1513.69328590 0 15670
0.12250000 0.12250700 13208.39553367 0 137.71606515 0 5500.90095041 0 311.84120252 0 2130.30838024 0 16887
0.12350000 0.12352200 13116.78224688 0 145.60967002 0 5075.05444358 0 -214.61798831 0 741.65281225 0 16407
0.12450000 0.12449800 12748.22177229 0 231.71950488 0 5405.62756862 0 -617.41366052 0 1216.22738375 0 16306
0.12550000 0.12549900 12649.95376733 0 139.67366141 0 5453.19771234 0 -205.55869864 0 448.12317590 0 17523
0.12650000 0.12650100 12562.99878325 0 -185.25515351 0 5244.31720021 0 370.09882361 0 241.61396168 0 17154
0.12750000 0.12750600 12814.21439413 0 -88.88196863 0 4952.52999090 0 488.17016072 0 -837.33435008 0 18007
0.12850000 0.12850300 12841.94238650 0 76.73688615 0 4649.21902795 0 266.35176735 0 -759.34105314 0 17496
0.12950000 0.12949900 12605.36715559 0 165.78012079 0 4067.59665999 0 -24.47982443 0 -181.07266314 0 18405
0.13050000 0.13049000 12649.62103142 0 84.11441762 0 4505.67675705 0 490.40725514 0 313.93632962 0 18100
0.13150000 0.13148800 12505.65729503 0 -99.02974837 0 4441.93564819 0 312.03086198 0 224.19080039 0 19059
0.13250000 0.13249300 12370.89925211 0 98.54073749 0 3939.12732574 0 213.80833093 0 589.35736872 0 18957
0.13350000 0.13349100 12491.23873900 0 89.88328189 0 4224.11563132 0 34.40622388 0 737.92949744 0 19468
0.13450000 0.13450700 12473.04917600 0 -91.65388057 0 3972.88892925 0 235.26979702 0 710.24808809 0 19953
0.13550000 0.13551000 12605.69989150 0 -28.24173661 0 3996.05843967 0 16.54507122 0 809.03405195 0 19956
0.13650000 0.13649900 12384.65233632 0 240.03568435 0 3482.90203047 0 -149.18879927 0 423.14690949 0 19723
0.13750000 0.13749600 12257.10357142 0 272.81460781 0 3881.25346006 0 -50.13886492 0 -85.75680207 0 20946
0.13850000 0.13851100 11849.72390751 0 106.24956302 0 4059.81063973 0 324.55836894 0 444.27009408 0 20955
0.13950000 0.13949800 11709.53117809 0 91.64290029 0 3330.40916363 0 479.77190639 0 43.75987391 0 20506
0.14050000 0.14048300 11450.10808147 0 265.64747635 0 3187.59891172 0 -0.32325183 0 45.50540649 0 21447
0.14150000 0.14148400 11077.41059042 0 258.74320625 0 2924.08316343 0 105.82621203 0 99.19156893 0 21771
0.14250000 0.14249400 10704.23617790 0 266.06783271 0 3334.62381847 0 -195.32706946 0 25.84481804 0 22470
0.14350000 0.14350900 10477.01082602 0 172.29065339 0 3077.49659962 0 -71.44926892 0 -531.86947669 0 22519
0.14450000 0.14449900 10138.92896064 0 156.12412472 0 3303.18027512 0 -89.70027714 0 -470.74589031 0 22218
0.14550000 0.14550500 9964.32024709 0 91.42218547 0 3215.90364633 0 17.01544889 0 -774.47055490 0 23559
0.14650000 0.14650700 10133.31681499 0 -66.77122387 0 2936.58294239 0 308.98854666 0 -788.21365704 0 23044
0.14750000 0.14750500 10059.12779860 0 92.95565436 0 3183.73917518 0 -229.80960077 0 -998.88761571 0 23649
0.14850000 0.14849900 10007.47609441 0 251.92988396 0 2955.11633249 0 -42.09087059 0 -671.66957775 0 23640
0.14950000 0.14949500 9700.82668119 0 124.51310430 0 3054.99256101 0 218.76720509 0 -465.32451324 0 24457
0.15050000 0.15050000 9709.45563241 0 23.35085149 0 2895.92261438 0 594.73770836 0 424.35584996 0 24591
0.15150000 0.15149900 9511.22266936 0 1.46521366 0 2867.09659351 0 426.51530600 0 324.71475481 0 25020
0.15250000 0.15250500 9588.41740012 0 74.78195178 0 2513.78651472 0 276.87953150 0 609.48345470 0 25297
0.15350000 0.15350100 9423.41366312 0 38.24377802 0 2339.53271947 0 195.84946483 0 891.18432951 0 25452
0.15450000 0.15450400 9374.70112612 0 107.81963286 0 2308.77683033 0 -39.36177067 0 1064.36006042 0 26061
0.15550000 0.15549900 9270.96516107 0 134.41643405 0 2574.89900991 0 -267.97884594 0 463.71739881 0 26128
0.15650000 0.15649500 9052.04711570 0 157.36079318 0 2668.85253926 0 -362.45477067 0 425.15885262 0 26331
0.15750000 0.15749700 8893.15462822 0 180.36504477 0 2705.76404270 0 -140.81494557 0 -94.51707307 0 27345
0.15850000 0.15849900 8879.76755350 0 24.04416222 0 3139.28565782 0 -17.45865312 0 240.47933223 0 26980
0.15950000 0.15949700 8855.55547057 0 -148.57989256 0 2517.66843366 0 334.88205506 0 -265.72067825 0 27777
0.16050000 0.16050000 9008.30343494 0 -171.35677461 0 2395.09961618 0 566.20782245 0 235.83322983 0 28224
0.16150000 0.16150500 9253.80707939 0 51.42821657 0 2184.96579880 0 -13.45151457 0 -94.57463638 0 28075
0.16250000 0.16249700 8993.62978137 0 123.62137207 0 2163.24923518 0 -88.11711969 0 -234.29709905 0 28590
0.16350000 0.16349900 8942.15553634 0 265.39237882 0 2343.22608805 0 -320.90160130 0 132.92799542 0 29163
0.16450000 0.16449100 8664.69815348 0 185.77754888 0 2554.44684274 0 -64.45981842 0 48.33909640 0 28996
0.16550000 0.16550500 8450.30531647 0 179.57646067 0 2797.34405590 0 -143.53672531 0 361.12271792 0 30777
0.16650000 0.16650700 8278.30303420 0 67.66595073 0 2576.19667995 0 459.05687785 0 -68.32166229 0 29211
0.16750000 0.16749900 8264.80504751 0 -2.69807784 0 2777.22462464 0 286.35585017 0 698.96501344 0 30922
0.16850000 0.16850800 8219.57514636 0 118.34196232 0 2252.55555300 0 -38.14062989 0 601.83385616 0 30867
0.16950000 0.16949900 8085.41602807 0 92.34475123 0 2819.22698748 0 -150.36779351 0 542.01237630 0 30852
0.17050000 0.17049200 8127.78440041 0 62.38454456 0 2699.59733720 0 -112.69321571 0 284.21635828 0 31257
0.17150000 0.17149500 7896.38875848 0 53.80428369 0 2632.09631257 0 23.38357053 0 -148.74071491 0 32608
0.17250000 0.17250900 7922.84126321 0 105.65984408 0 2880.62785379 0 -278.36353365 0 239.76284091 0 32361
0.17350000 0.17350400 7925.86915997 0 -64.54843709 0 2533.01865023 0 415.34979804 0 -125.82962938 0 32508
0.17450000 0.17449800 7977.22140184 0 -13.23268525 0 2678.16914469 0 344.16982338 0 166.68959893 0 32791
0.17550000 0.17549800 7951.01290345 0 45.04046351 0 2082.76041892 0 42.12724972 0 -22.60385938 0 33633
0.17650000 0.17650100 7928.36467929 0 116.88568816 0 2266.37518440 0 -15.49162934 0 299.73737929 0 33984
0.17750000 0.17750300 7648.05685881 0 156.77850534 0 2461.35842675 0 -151.09870338 0 -67.37946511 0 34069
0.17850000 0.17849800 7581.57622431 0 75.31898753 0 2134.82249740 0 31.39651667 0 71.22023570 0 34536
