### header ###
fiducial parameters:
Omega_m = 0.31
Omega_nu = 0
Omega_de = 0.69
Omega_k = 0
H_0 = 100
w_de = -1
zeff = 0
beta = 0
fgrowth = 0
b_1 = 2
gamma = 0.55
Lx = 3500 Ly = 3500 Lz = 3500
nx = 700 ny = 700 nz = 700
xoffset = 1379.75464 yoffset = 22.6059522 zoffset = 368.141391
bins = 400 dk = 0.001
kx_ny = 0.628318531 ky_ny = 0.628318531 kz_ny = 0.628318531
############################
A(data) = 3.33924045 (not used)
A(ran) = 3.34575884 (used)
Ngal = 188452
weighted Ngal = 0
Nran = 9399747
weighted Nran = 0
SN(data) = 6670.97636
SN(ran) = 133.078839
SN(data+ran) = 6804.0552
############################
13 columns: k_central k_mean P_0(k) sigma^{lin}_{P_0(k)} P^img_1(k) sigma^{lin}_{P_1(k)} P_2(k) sigma^{lin}_{P_2(k)} P^img_3(k) sigma^{lin}_{P_3(k)} P_4(k) sigma^{lin}_{P_4(k)} N_modes
### header ###
0.00050000 0 0 0 0 0 0 0 0 0 0 0 0
0.00150000 0.00179520 26356.23313200 0 -29094.87148246 0 -28549.18459260 0 12313.44685192 0 28978.52482647 0 3
0.00250000 0.00253879 38930.65584811 0 -17119.26248958 0 -8875.71926662 0 -46007.17223698 0 -17525.20029789 0 6
0.00350000 0.00331552 52687.62198284 0 -5247.88856563 0 -24548.81167732 0 -21102.00040172 0 18925.79664851 0 7
0.00450000 0.00420575 57641.72692370 0 -3318.70795085 0 -15923.96419447 0 -22041.20295929 0 2829.09815276 0 24
0.00550000 0.00557378 66368.72433044 0 -6210.07208328 0 -6305.44528584 0 -1962.43202323 0 11278.30544074 0 45
0.00650000 0.00659388 75282.05384591 0 -7008.54953398 0 -1353.08166290 0 3079.60392704 0 -12037.27604791 0 40
0.00750000 0.00754703 73703.55469624 0 6789.46512066 0 8595.64436128 0 2483.03062559 0 1121.23128189 0 57
0.00850000 0.00846663 79937.80558886 0 2933.27776570 0 19500.20973846 0 -9889.03320220 0 17398.98247662 0 75
0.00950000 0.00948925 62429.68573428 0 9235.34023647 0 34734.41239472 0 -1783.48665167 0 22284.10017246 0 112
0.01050000 0.01054430 56828.18762755 0 5828.70127621 0 23813.24349571 0 12659.82493261 0 16792.40491552 0 105
0.01150000 0.01145670 60346.09347558 0 -377.39572208 0 47052.18481344 0 4221.95284792 0 22965.21057705 0 144
0.01250000 0.01249090 54819.57186022 0 1092.43298901 0 25192.65566016 0 13539.57867454 0 7079.97684232 0 169
0.01350000 0.01339930 68223.06154821 0 -5299.08553074 0 21195.16645608 0 11921.26212783 0 2948.08451363 0 180
0.01450000 0.01448870 68524.52028126 0 -10468.47060437 0 8353.77862943 0 12406.72381825 0 13923.22317698 0 267
0.01550000 0.01550050 84940.15723645 0 -11666.49733393 0 2065.87961717 0 23217.20257171 0 -5444.12511323 0 238
0.01650000 0.01653350 94816.09173506 0 -7998.68286794 0 -16890.56200851 0 -3251.67275649 0 -6520.34831791 0 315
0.01750000 0.01747870 101170.57120260 0 7263.02595676 0 -37875.99393030 0 -17868.14010753 0 -6861.13643534 0 297
0.01850000 0.01844180 78033.55798482 0 12818.87269685 0 719.66562342 0 -15467.00688020 0 -5195.83757835 0 388
0.01950000 0.01947590 78043.76188602 0 6607.38094036 0 12238.13762464 0 -11833.64167194 0 -9820.30105471 0 399
0.02050000 0.02045430 67139.45160637 0 3744.54336648 0 16138.80067936 0 3553.60841101 0 -8294.96201202 0 462
0.02150000 0.02154770 60831.77698995 0 3633.08792834 0 15778.00404263 0 1390.08189591 0 -2217.77355937 0 571
0.02250000 0.02255340 60230.19046748 0 463.07521850 0 20713.69759656 0 -3431.01741114 0 -369.10172500 0 510
0.02350000 0.02348930 56217.94997146 0 2093.67415672 0 16999.92121042 0 2196.86665313 0 -2392.21590497 0 555
0.02450000 0.02439640 59882.37053118 0 847.67356388 0 24153.74324202 0 -1580.67302427 0 -5241.30039464 0 592
0.02550000 0.02547300 56168.15049716 0 201.45384665 0 20531.69105464 0 284.71657126 0 845.11926122 0 837
0.02650000 0.02652900 59894.68175979 0 -1193.43497402 0 25933.21488040 0 4546.44799703 0 -5616.53776979 0 723
0.02750000 0.02749970 57934.75634707 0 -618.44514183 0 19268.73645815 0 3069.20038430 0 -106.20863650 0 826
0.02850000 0.02848090 58336.14676463 0 3819.49767545 0 26629.63113677 0 -6273.04789955 0 -4320.56467998 0 831
0.02950000 0.02946900 55463.19401913 0 3442.53007358 0 28368.50899432 0 -582.27785770 0 1295.35198278 0 996
0.03050000 0.03053250 51232.12420732 0 1641.28641559 0 32455.28233383 0 2088.81621246 0 4448.79000790 0 1041
0.03150000 0.03150510 49104.16716084 0 586.31616251 0 27960.57477056 0 2432.68768264 0 -4198.78333749 0 1036
0.03250000 0.03246190 50686.65914141 0 743.57491668 0 34228.54290191 0 4072.87606974 0 4912.96769138 0 1059
0.03350000 0.03345080 49339.07871220 0 330.54872441 0 26414.24009204 0 4648.74210648 0 988.31659590 0 1302
0.03450000 0.03451200 45913.56253474 0 1470.74817132 0 24879.99481819 0 1802.94061112 0 3551.66745155 0 1339
0.03550000 0.03553350 45425.99351690 0 1266.37068515 0 25172.13694581 0 -1659.66452894 0 -1427.50359442 0 1365
0.03650000 0.03647120 43287.49983331 0 785.35656471 0 20864.42696309 0 4013.51598367 0 -4655.57428380 0 1308
0.03750000 0.03744890 44486.12548750 0 -1334.55936399 0 21361.64532228 0 1953.59233926 0 -992.06209311 0 1579
0.03850000 0.03847530 45080.72455590 0 -995.62680381 0 14740.86621600 0 5827.33705899 0 -5489.55465593 0 1662
0.03950000 0.03950240 44954.61764660 0 -127.62751240 0 12439.55376122 0 2092.12138915 0 -4745.05806078 0 1683
0.04050000 0.04050350 43805.90237867 0 2124.89587613 0 8943.73048630 0 -353.21025801 0 -5166.22408250 0 1822
0.04150000 0.04152450 41987.27881507 0 691.74353510 0 8004.96048541 0 2273.15190574 0 1198.57019821 0 1887
0.04250000 0.04250150 39715.13620826 0 843.99017737 0 9287.55759170 0 -220.75252934 0 -5620.46405351 0 1920
0.04350000 0.04349210 39965.02087550 0 1010.04979632 0 9883.58742450 0 -2102.81330300 0 -2535.99109101 0 2005
0.04450000 0.04448520 37396.41057426 0 737.08545735 0 10578.46200450 0 -318.14543886 0 -4112.62691960 0 2151
0.04550000 0.04548030 39970.89920988 0 -1173.52627550 0 8139.84053150 0 1996.98110172 0 -1771.46379418 0 2274
0.04650000 0.04648670 39153.25617086 0 -780.38105376 0 7134.65644328 0 1948.11328797 0 -4585.02318002 0 2311
0.04750000 0.04749250 40211.46727169 0 1838.57662691 0 9678.72192567 0 -2498.83558124 0 -5193.18678228 0 2568
0.04850000 0.04851840 37253.55595757 0 1729.86071442 0 11121.58682786 0 -3530.13943827 0 -3870.33972226 0 2493
0.04950000 0.04949480 36942.78061908 0 1803.16243505 0 14878.95161801 0 -1377.60429935 0 -4981.27837339 0 2644
0.05050000 0.05050630 33939.83904535 0 737.05329288 0 15429.18589861 0 -494.84151568 0 -2182.11536118 0 2829
0.05150000 0.05149060 34475.54385795 0 235.09233787 0 20287.79563375 0 430.12327237 0 -3201.45181671 0 2784
0.05250000 0.05249300 33868.07900109 0 58.84090714 0 15394.69227610 0 2503.72679909 0 -2776.60351761 0 3055
0.05350000 0.05348950 34587.67585909 0 -519.67470565 0 16987.83180575 0 1797.73883975 0 -2380.05995312 0 3009
0.05450000 0.05448610 34273.46224955 0 73.95654490 0 14918.43627915 0 -239.90702647 0 591.06763129 0 3336
0.05550000 0.05550870 35150.99775209 0 1125.32393356 0 16412.75324398 0 89.10878361 0 -3602.02148569 0 3349
0.05650000 0.05647670 33510.38789951 0 -86.21375938 0 16879.58172353 0 -603.59624736 0 -2674.77523843 0 3324
0.05750000 0.05747970 33331.70871668 0 756.81447848 0 16915.40628967 0 280.59840983 0 -2759.02397045 0 3639
0.05850000 0.05849280 32870.09309969 0 309.22811651 0 15120.62879951 0 -67.81168905 0 -5062.28847590 0 3846
0.05950000 0.05951020 33487.09638592 0 -439.39440390 0 16423.84444093 0 1553.26667661 0 -3241.38012572 0 3787
0.06050000 0.06049470 32692.74486049 0 -226.57097126 0 12897.95293109 0 1477.68016941 0 -5282.48200891 0 3930
0.06150000 0.06148310 33442.84251010 0 245.73434135 0 12940.43221540 0 2125.91626625 0 -2723.87596732 0 4083
0.06250000 0.06249100 32877.30237771 0 261.80881308 0 12740.34702245 0 -1.82555556 0 -3422.46609830 0 4303
0.06350000 0.06350600 31904.49349338 0 936.55730710 0 13593.37097974 0 -179.77721133 0 -2680.59811683 0 4470
0.06450000 0.06451750 30561.68227886 0 1382.93916508 0 14481.33220742 0 -631.00814062 0 -647.87119646 0 4479
0.06550000 0.06550280 29548.61234961 0 864.79948109 0 14708.70174485 0 -717.53944097 0 -414.32386232 0 4636
0.06650000 0.06648880 28870.27474425 0 145.35457249 0 15744.17589194 0 1405.62066284 0 731.65631644 0 4653
0.06750000 0.06749660 29533.08467388 0 -314.29568440 0 14031.91690707 0 1788.55532867 0 1358.90454129 0 5220
0.06850000 0.06852730 28930.49994368 0 196.48277218 0 14972.67223222 0 490.28414286 0 2185.66454421 0 5029
0.06950000 0.06949320 29677.60297012 0 149.44722416 0 13016.51782646 0 537.27310785 0 1759.48530147 0 5040
0.07050000 0.07048030 28348.43392784 0 324.57167837 0 14809.52072511 0 -424.44568865 0 676.14487572 0 5475
0.07150000 0.07148790 29078.01286309 0 518.02433554 0 15583.90809604 0 -8.60036921 0 1154.26086640 0 5509
0.07250000 0.07249820 28019.69085029 0 572.52536823 0 14713.69278348 0 -766.78546454 0 -1501.21568934 0 5916
0.07350000 0.07351270 26887.50146582 0 699.19238298 0 14503.40368934 0 -321.05022334 0 -1362.81973382 0 5721
0.07450000 0.07449140 26674.32866048 0 271.78534474 0 15887.80689242 0 1287.49941534 0 -1492.77528846 0 6028
0.07550000 0.07549160 26294.89881288 0 -65.12928307 0 13051.56600882 0 1386.52162169 0 -63.35291697 0 6183
0.07650000 0.07648840 26256.63418341 0 319.74146210 0 13875.30920617 0 2498.63593969 0 -356.81378790 0 6330
0.07750000 0.07749960 26208.94203653 0 139.71358972 0 11356.38746725 0 1260.52562436 0 1090.46762891 0 6583
0.07850000 0.07848650 25007.32175916 0 181.80690038 0 12301.91200709 0 1349.51029748 0 4588.71654860 0 6549
0.07950000 0.07947320 24916.15212024 0 503.60910687 0 11195.67602347 0 1064.06614370 0 4814.15621777 0 6828
0.08050000 0.08048110 24867.12902973 0 132.45772867 0 11175.93369291 0 1805.74668394 0 6232.52066590 0 7147
0.08150000 0.08149960 24150.74861885 0 197.69282176 0 8843.75443701 0 1400.38561788 0 7876.22496243 0 7386
0.08250000 0.08250610 24390.31847293 0 6.25825224 0 10178.31380101 0 1040.47516779 0 8535.62989459 0 7227
0.08350000 0.08350160 24083.53596534 0 424.61982044 0 8098.78092040 0 -242.69757162 0 7653.08117103 0 7798
0.08450000 0.08449610 23483.50221044 0 936.67931027 0 10465.05451571 0 -930.50816829 0 6482.20569160 0 7371
0.08550000 0.08548940 22109.85746840 0 900.70279473 0 9058.56873951 0 -1611.76164932 0 4330.95713152 0 8256
0.08650000 0.08650700 21473.66641145 0 48.86315545 0 10979.83023967 0 829.44850905 0 5035.82487998 0 8037
0.08750000 0.08749060 21170.65491083 0 125.10759246 0 9660.76527781 0 462.34985422 0 2112.51810033 0 8155
0.08850000 0.08849210 20856.10856538 0 91.98273456 0 8483.90055203 0 610.27869352 0 1912.31090422 0 8718
0.08950000 0.08949900 20622.52795765 0 153.40789059 0 7682.01810387 0 623.29754050 0 415.28214173 0 8571
0.09050000 0.09049190 20314.08177052 0 363.07587770 0 7449.13624155 0 -320.57773835 0 969.36728592 0 8932
0.09150000 0.09150830 19873.76125167 0 2.95237681 0 6603.59884220 0 672.37719611 0 -488.80901366 0 9285
0.09250000 0.09250820 19819.41438663 0 337.08143941 0 7695.71573210 0 -142.80914279 0 -429.17386591 0 9204
0.09350000 0.09350330 19515.29376631 0 187.42126427 0 6380.55487157 0 38.04202915 0 307.87942697 0 9349
0.09450000 0.09448040 19271.28743345 0 147.35764265 0 6872.98183368 0 1401.78310870 0 -153.32914309 0 9564
0.09550000 0.09549270 18839.50713625 0 272.27224828 0 6923.24713825 0 -302.61443577 0 960.12499150 0 10155
0.09650000 0.09649430 18721.94044860 0 534.08438873 0 7257.45817589 0 502.09737673 0 929.68741971 0 9913
0.09750000 0.09749140 17936.57279270 0 428.68696237 0 8017.75972669 0 -201.11334690 0 2378.81773906 0 10476
0.09850000 0.09850240 17408.29908205 0 168.35993320 0 7404.91563931 0 -16.36151191 0 1712.09261691 0 10575
0.09950000 0.09950330 17619.03182407 0 51.31286812 0 7758.05935015 0 433.97302683 0 1802.85188154 0 10882
0.10050000 0.10051200 17366.59618153 0 50.60059145 0 7933.54426826 0 -76.91467804 0 1455.15394841 0 10875
0.10150000 0.10150300 17102.95843007 0 403.91477398 0 7535.27047705 0 -113.74909766 0 1334.72573195 0 11118
0.10250000 0.10250800 16793.40312324 0 358.86344110 0 7747.42289227 0 -607.51698548 0 388.06545354 0 11575
0.10350000 0.10349800 16600.97085619 0 27.28600817 0 7805.99550336 0 175.36402407 0 -670.50500207 0 11364
0.10450000 0.10450100 16808.93079897 0 91.49627466 0 8138.14357836 0 183.24986510 0 -915.82453265 0 12093
0.10550000 0.10551000 16199.91317454 0 77.01860255 0 6677.79894978 0 704.73021761 0 -1057.35596955 0 12067
0.10650000 0.10649700 16433.60469424 0 -139.64926078 0 6736.85957353 0 589.10338031 0 627.57097868 0 12054
0.10750000 0.10749900 16471.09293993 0 24.90472819 0 6251.20933276 0 766.37619937 0 -1110.82773915 0 12807
0.10850000 0.10850100 16183.60911503 0 290.97644282 0 5696.83803570 0 365.80209391 0 50.55766852 0 12736
0.10950000 0.10950300 15991.17684798 0 286.23939260 0 5570.26529612 0 -121.46302514 0 39.27559207 0 12933
0.11050000 0.11050200 15286.66401783 0 224.87401813 0 5760.49041498 0 295.07907657 0 400.97338855 0 13428
0.11150000 0.11150900 15051.53064252 0 293.34219513 0 5550.93333984 0 291.70402534 0 741.44984335 0 13453
0.11250000 0.11250000 14725.00580437 0 174.94477682 0 5019.19917575 0 502.33472834 0 289.73311964 0 13668
0.11350000 0.11349100 14287.79082067 0 222.84432908 0 5481.74645328 0 589.19765548 0 1605.98313571 0 13791
0.11450000 0.11448600 14437.30015553 0 44.08162953 0 4985.62612259 0 411.02755858 0 674.66641916 0 14205
0.11550000 0.11549300 14160.46387970 0 327.73821510 0 5088.86298378 0 -536.92373514 0 1176.75381381 0 14776
0.11650000 0.11649800 13690.75168895 0 229.07758177 0 5285.23262575 0 -274.85982453 0 1051.15377221 0 14553
0.11750000 0.11747300 13558.98826920 0 187.70741715 0 5457.62309992 0 10.08935131 0 1165.90662320 0 14568
0.11850000 0.11849100 13417.79733205 0 25.76296501 0 5517.48228985 0 420.05468378 0 1423.49967232 0 16015
0.11950000 0.11950300 13502.53407674 0 -50.38032028 0 4964.47521001 0 610.65690334 0 576.26531984 0 15270
0.12050000 0.12050700 13555.66091012 0 -174.28485060 0 4746.24481886 0 430.77987123 0 1572.79827444 0 15999
0.12150000 0.12150000 13619.98985242 0 -20.30975620 0 4176.36802846 0 393.99258919 0 893.03545028 0 15670
0.12250000 0.12250700 13848.13577364 0 82.63329918 0 4279.51616008 0 -88.99942441 0 1761.63699368 0 16887
0.12350000 0.12352200 13308.32721817 0 268.98481751 0 4088.05991836 0 167.90630324 0 1050.91863884 0 16407
0.12450000 0.12449800 13383.30370954 0 162.43501579 0 4078.48821539 0 -360.82658296 0 1166.13953833 0 16306
0.12550000 0.12549900 12858.02462207 0 52.14271148 0 3825.28728026 0 80.36703491 0 268.42582118 0 17523
0.12650000 0.12650100 13175.89832661 0 70.51028818 0 4290.58517463 0 83.35478154 0 843.13615521 0 17154
0.12750000 0.12750600 12924.34997982 0 -70.14804969 0 3281.41934671 0 182.83949081 0 -21.74939357 0 18007
0.12850000 0.12850300 12943.42683858 0 81.84027860 0 3682.96504102 0 295.71792951 0 -57.92699251 0 17496
0.12950000 0.12949900 12713.72814978 0 168.74590685 0 3408.09190705 0 -429.64080530 0 -426.66614628 0 18405
0.13050000 0.13049000 12693.32034739 0 320.43355279 0 4215.00975863 0 -117.53230494 0 -381.26987717 0 18100
0.13150000 0.13148800 12389.97611086 0 242.59331437 0 3997.78866640 0 -727.10448921 0 -405.93115359 0 19059
0.13250000 0.13249300 11841.51642177 0 234.75294725 0 4059.72191015 0 24.92713241 0 -1071.43957143 0 18957
0.13350000 0.13349100 11971.72707394 0 228.69604459 0 4985.99213209 0 -213.95917121 0 -890.29148815 0 19468
0.13450000 0.13450700 11621.46707432 0 137.49978681 0 4530.23266709 0 -65.69792874 0 -1089.94079706 0 19953
0.13550000 0.13551000 11542.71957598 0 30.12668553 0 5003.28330813 0 386.42173815 0 -1042.96957798 0 19956
0.13650000 0.13649900 11328.77038685 0 45.60223264 0 4311.81372559 0 259.00274025 0 -857.95510345 0 19723
0.13750000 0.13749600 11358.93844255 0 67.69168230 0 4218.83622157 0 563.28972853 0 -685.62008527 0 20946
0.13850000 0.13851100 11424.59832849 0 140.96911321 0 3757.44242853 0 436.50847445 0 30.69178202 0 20955
0.13950000 0.13949800 11117.92673287 0 52.54720743 0 3694.94353372 0 172.17197759 0 -523.64757240 0 20506
0.14050000 0.14048300 10881.46241393 0 188.98401392 0 3622.57347364 0 43.98258515 0 150.27684569 0 21447
0.14150000 0.14148400 10781.86346534 0 119.49988328 0 3501.74597408 0 -108.68984817 0 85.29030632 0 21771
0.14250000 0.14249400 10590.49595319 0 20.97445164 0 3551.31253325 0 381.40518978 0 348.19481875 0 22470
0.14350000 0.14350900 10678.22732105 0 -8.27954525 0 3252.94824414 0 401.27728735 0 340.72046113 0 22519
0.14450000 0.14449900 10611.75777774 0 64.20716096 0 3171.39467298 0 31.99887958 0 33.68895617 0 22218
0.14550000 0.14550500 10560.49426545 0 204.08689680 0 3447.12182911 0 -313.68455945 0 302.42810367 0 23559
0.14650000 0.14650700 10153.48061104 0 211.90729977 0 3664.34292134 0 -298.24228594 0 160.34210692 0 23044
0.14750000 0.14750500 10296.72341962 0 -76.18765008 0 3632.66646286 0 345.98877968 0 643.23951261 0 23649
0.14850000 0.14849900 10124.64349897 0 -26.64416060 0 3314.08292172 0 359.11632039 0 -338.29148900 0 23640
0.14950000 0.14949500 10375.81474506 0 143.42581334 0 3172.09341839 0 194.76141841 0 384.99984671 0 24457
0.15050000 0.15050000 9891.93909580 0 173.53175833 0 3058.26446411 0 110.88634882 0 246.98210100 0 24591
0.15150000 0.15149900 9756.54885466 0 96.96002011 0 2607.27421380 0 472.66577650 0 983.49414347 0 25020
0.15250000 0.15250500 9628.10170280 0 57.38274747 0 2643.56461021 0 360.30640582 0 371.06597598 0 25297
0.15350000 0.15350100 9468.05573083 0 237.30724990 0 2328.97389998 0 -121.30109366 0 358.50741368 0 25452
0.15450000 0.15450400 8946.24818801 0 356.70176681 0 2745.37070700 0 -204.39966856 0 688.55037950 0 26061
0.15550000 0.15549900 8676.44373105 0 185.15089626 0 2305.05018816 0 -315.89947148 0 291.08291831 0 26128
0.15650000 0.15649500 8510.40851273 0 35.67849508 0 2862.50483797 0 226.25265391 0 503.98731669 0 26331
0.15750000 0.15749700 8601.53378686 0 -77.88648871 0 2367.93727485 0 169.97148411 0 -533.98013147 0 27345
0.15850000 0.15849900 8563.75717006 0 11.78029301 0 2544.96386935 0 155.98881212 0 370.14762487 0 26980
0.15950000 0.15949700 8533.38947281 0 140.73730720 0 2270.35692410 0 -258.37941499 0 -224.11538025 0 27777
0.16050000 0.16050000 8530.21739048 0 11.38866285 0 2480.44637670 0 20.79921073 0 356.27919221 0 28224
0.16150000 0.16150500 8526.85675781 0 -104.02666533 0 2148.99704710 0 506.46841744 0 -35.79029434 0 28075
0.16250000 0.16249700 8489.87870718 0 130.57666167 0 2286.50570686 0 6.61752939 0 100.25166554 0 28590
0.16350000 0.16349900 8560.05271027 0 108.19018975 0 2218.46121358 0 -135.65421163 0 237.37934268 0 29163
0.16450000 0.16449100 8277.51555922 0 98.81602100 0 2313.67913938 0 -39.84390500 0 -10.91729807 0 28996
0.16550000 0.16550500 8298.64428940 0 71.19417139 0 2244.70298556 0 74.89486016 0 202.00729738 0 30777
0.16650000 0.16650700 8155.93385827 0 30.18569070 0 2041.63426064 0 99.39719972 0 -28.46710974 0 29211
0.16750000 0.16749900 8283.24970804 0 -35.78685607 0 2009.10377999 0 316.14569605 0 196.81218073 0 30922
0.16850000 0.16850800 8206.77590508 0 38.30477960 0 1760.38368842 0 -49.09252140 0 -42.20566448 0 30867
0.16950000 0.16949900 8174.44506598 0 61.32622255 0 1982.77327843 0 -46.98874317 0 281.75189432 0 30852
0.17050000 0.17049200 8124.41267654 0 81.23015186 0 1951.77338296 0 48.29595164 0 24.21474483 0 31257
0.17150000 0.17149500 8195.04141871 0 -26.06342553 0 1815.00783339 0 15.99727701 0 -113.66147721 0 32608
0.17250000 0.17250900 8163.08768030 0 83.39559715 0 2047.72332776 0 -107.24033964 0 59.23519919 0 32361
0.17350000 0.17350400 8023.46060192 0 162.74667842 0 1951.55155902 0 -158.01073732 0 -150.67612878 0 32508
0.17450000 0.17449800 7859.42179906 0 142.05383227 0 2256.08255363 0 146.93728629 0 655.23464211 0 32791
0.17550000 0.17549800 7822.46593082 0 -12.13731864 0 2093.29705602 0 290.33537163 0 59.73064296 0 33633
0.17650000 0.17650100 7768.38525450 0 12.47848386 0 1995.08450705 0 418.29561994 0 625.27288267 0 33984
0.17750000 0.17750300 7788.11649388 0 28.61750637 0 1742.92614443 0 205.08510453 0 870.27187766 0 34069
0.17850000 0.17849800 7741.15636600 0 -33.23676807 0 1573.25301351 0 136.69456591 0 931.29564327 0 34536
