### header ###
fiducial parameters:
Omega_m = 0.31
Omega_nu = 0
Omega_de = 0.69
Omega_k = 0
H_0 = 100
w_de = -1
zeff = 0
beta = 0
fgrowth = 0
b_1 = 2
gamma = 0.55
Lx = 3500 Ly = 3500 Lz = 3500
nx = 700 ny = 700 nz = 700
xoffset = 1379.75464 yoffset = 22.6059522 zoffset = 368.141391
bins = 400 dk = 0.001
kx_ny = 0.628318531 ky_ny = 0.628318531 kz_ny = 0.628318531
############################
A(data) = 3.35270257 (not used)
A(ran) = 3.35148922 (used)
Ngal = 187734
weighted Ngal = 0
Nran = 9399747
weighted Nran = 0
SN(data) = 6704.26429
SN(ran) = 133.306767
SN(data+ran) = 6837.57106
############################
13 columns: k_central k_mean P_0(k) sigma^{lin}_{P_0(k)} P^img_1(k) sigma^{lin}_{P_1(k)} P_2(k) sigma^{lin}_{P_2(k)} P^img_3(k) sigma^{lin}_{P_3(k)} P_4(k) sigma^{lin}_{P_4(k)} N_modes
### header ###
0.00050000 0 0 0 0 0 0 0 0 0 0 0 0
0.00150000 0.00179520 116330.01919143 0 -83002.52512960 0 -169533.38183236 0 183329.72171626 0 -47685.04851131 0 3
0.00250000 0.00253879 183542.67269766 0 -64423.77203360 0 -26475.90714707 0 -149969.61953539 0 53870.83087327 0 6
0.00350000 0.00331552 207745.88267807 0 -16268.90041956 0 -113220.04756715 0 -98322.35182630 0 -13270.06258870 0 7
0.00450000 0.00420575 195756.29877704 0 24435.45964451 0 -30453.98675649 0 -118183.35820148 0 11066.06429594 0 24
0.00550000 0.00557378 142964.41954289 0 33321.83755139 0 9297.82804007 0 -58717.57302768 0 -9244.90084824 0 45
0.00650000 0.00659388 94468.93727058 0 25110.58080275 0 81451.31032442 0 15239.97007867 0 -27296.21207336 0 40
0.00750000 0.00754703 87320.10627760 0 3588.24621908 0 39240.10024296 0 19697.63304413 0 -26025.04999113 0 57
0.00850000 0.00846663 81131.21838049 0 -10766.69070791 0 29435.37122877 0 37686.88902234 0 -11981.04367938 0 75
0.00950000 0.00948925 97355.31036438 0 -9963.83223442 0 -26735.33024369 0 29624.14340082 0 -3163.75283828 0 112
0.01050000 0.01054430 106967.27437562 0 -7244.62566102 0 -3674.90174084 0 -4672.19998803 0 -10385.99646386 0 105
0.01150000 0.01145670 95487.66371027 0 9714.97904849 0 -28883.02962074 0 -25977.91240410 0 -566.09912872 0 144
0.01250000 0.01249090 93337.41335792 0 8854.95654593 0 -5059.61549743 0 -3802.19540821 0 17164.40366116 0 169
0.01350000 0.01339930 77595.78844128 0 4939.89711757 0 1407.23997759 0 -582.14587246 0 23486.94048150 0 180
0.01450000 0.01448870 81942.98308513 0 -2655.80929165 0 -4195.11215130 0 21245.96413811 0 39118.31890047 0 267
0.01550000 0.01550050 77510.82987265 0 1149.64692847 0 -18287.60917611 0 23224.30093776 0 19365.78443144 0 238
0.01650000 0.01653350 77933.62630032 0 543.82911436 0 -5518.56922715 0 1265.72739573 0 57453.06566361 0 315
0.01750000 0.01747870 76638.83996858 0 -151.13530433 0 -8437.87208469 0 12367.79371696 0 41971.97296328 0 297
0.01850000 0.01844180 73533.19391111 0 3599.94743186 0 -4712.13938824 0 -5333.19096136 0 64467.13861367 0 388
0.01950000 0.01947590 70980.66584545 0 1161.82506272 0 1428.21343102 0 -456.09220090 0 32898.70838782 0 399
0.02050000 0.02045430 67719.85394267 0 3684.61762937 0 2242.96166764 0 -8708.65256699 0 26794.88997130 0 462
0.02150000 0.02154770 65331.03194396 0 1469.21758614 0 13659.47451355 0 -6774.14817767 0 19639.40426016 0 571
0.02250000 0.02255340 65876.05336200 0 1968.99801182 0 14982.98704538 0 -5612.95531318 0 4535.74499198 0 510
0.02350000 0.02348930 66675.95048590 0 -1327.07280605 0 15374.61720963 0 873.32195682 0 7640.60357446 0 555
0.02450000 0.02439640 67058.15313274 0 461.79196702 0 16798.72689778 0 -1745.63239648 0 -16983.28441500 0 592
0.02550000 0.02547300 67294.39562774 0 875.14978608 0 16668.62715758 0 1527.26891097 0 -154.12438191 0 837
0.02650000 0.02652900 62402.84503766 0 1935.02567557 0 19857.23536822 0 -5816.42332119 0 -11308.69532038 0 723
0.02750000 0.02749970 64864.31437638 0 3157.41976483 0 21699.48318132 0 -1861.08066552 0 -4392.56873057 0 826
0.02850000 0.02848090 59157.44989864 0 354.29830443 0 18453.20074654 0 6333.32855496 0 -13738.99839567 0 831
0.02950000 0.02946900 60718.75769304 0 -521.11877949 0 18338.62868207 0 4369.23285219 0 2736.78612056 0 996
0.03050000 0.03053250 59062.84198867 0 1062.22500501 0 14863.75667819 0 1698.69445100 0 -4207.15719119 0 1041
0.03150000 0.03150510 58559.07982329 0 2271.07785191 0 16654.20860154 0 1027.41971986 0 -320.47791758 0 1036
0.03250000 0.03246190 53434.72500927 0 -16.45822715 0 11003.27703001 0 3350.87242200 0 1628.56481270 0 1059
0.03350000 0.03345080 52618.41291388 0 1589.98962971 0 11283.18556740 0 757.46664086 0 -970.63611885 0 1302
0.03450000 0.03451200 53112.30391398 0 961.31285869 0 13264.18425432 0 428.97976996 0 -719.69778789 0 1339
0.03550000 0.03553350 50318.09866682 0 1357.27413534 0 9856.11452966 0 -1304.31366991 0 -4853.76288207 0 1365
0.03650000 0.03647120 47610.51566782 0 952.62623324 0 11591.63175453 0 -1782.57717352 0 -2253.26538961 0 1308
0.03750000 0.03744890 48776.08955511 0 -378.11775900 0 9928.93932882 0 3592.02831724 0 -968.89036445 0 1579
0.03850000 0.03847530 48244.82122129 0 -138.45141150 0 8902.78178717 0 1922.28189028 0 -2567.80064386 0 1662
0.03950000 0.03950240 48835.76019469 0 259.16578085 0 7139.63639071 0 2337.24793290 0 -3323.99845179 0 1683
0.04050000 0.04050350 46625.50646685 0 1400.69617139 0 9260.59489192 0 -299.61537612 0 1966.34721575 0 1822
0.04150000 0.04152450 45127.97305490 0 1644.49177151 0 10778.59156224 0 -618.89766267 0 4715.37801775 0 1887
0.04250000 0.04250150 43714.62182779 0 630.39590654 0 12457.96514815 0 1333.87170978 0 5379.29706707 0 1920
0.04350000 0.04349210 43105.93693927 0 200.26708858 0 9685.09936391 0 2880.89404251 0 6509.04638822 0 2005
0.04450000 0.04448520 43763.20127042 0 373.53709466 0 12588.84127214 0 -71.05198224 0 7860.27582122 0 2151
0.04550000 0.04548030 42607.72037235 0 1759.78476379 0 12648.51191172 0 -3687.51243177 0 5803.49098555 0 2274
0.04650000 0.04648670 40271.91429506 0 1794.37820707 0 17999.57079136 0 -5011.02496360 0 311.40199112 0 2311
0.04750000 0.04749250 38901.04235226 0 2329.80573975 0 20882.83835002 0 -5699.65519972 0 -639.17791629 0 2568
0.04850000 0.04851840 36221.52008154 0 966.86400276 0 22643.12221767 0 -2298.19582844 0 -5901.73680812 0 2493
0.04950000 0.04949480 37988.79140327 0 -455.70733637 0 24827.31163269 0 2840.61081520 0 -5923.37573336 0 2644
0.05050000 0.05050630 36782.73464712 0 -65.03334422 0 22650.44240766 0 2350.96774352 0 -9509.42589545 0 2829
0.05150000 0.05149060 37667.25760374 0 410.38759652 0 17398.20609283 0 2141.44394198 0 -7649.06615774 0 2784
0.05250000 0.05249300 36383.78429289 0 389.35646887 0 20129.41334133 0 1489.29265262 0 -6742.05025370 0 3055
0.05350000 0.05348950 35676.27683956 0 1488.61608960 0 15278.34562012 0 1722.66252760 0 -7451.43211932 0 3009
0.05450000 0.05448610 33492.42016046 0 282.67024542 0 16835.77149558 0 2476.42027221 0 -4308.26454257 0 3336
0.05550000 0.05550870 32745.31713402 0 448.55018698 0 12083.85907509 0 2383.87532487 0 -4577.31479814 0 3349
0.05650000 0.05647670 32966.25377723 0 -294.06201381 0 10961.86250061 0 3757.65316127 0 -1110.97192471 0 3324
0.05750000 0.05747970 32168.90762862 0 -656.15299322 0 7409.97322512 0 3527.24463587 0 780.86906642 0 3639
0.05850000 0.05849280 32552.21939516 0 -85.62492774 0 4823.09572251 0 3028.88388339 0 -1020.32024470 0 3846
0.05950000 0.05951020 32897.15562025 0 11.20177618 0 2631.07592245 0 -89.54699680 0 1939.71725188 0 3787
0.06050000 0.06049470 32420.23415147 0 -366.89901329 0 3839.00709089 0 497.64869763 0 -984.17514296 0 3930
0.06150000 0.06148310 33137.16912220 0 233.24010798 0 3022.18480044 0 -990.85869824 0 1438.50606179 0 4083
0.06250000 0.06249100 32504.52724828 0 113.75131590 0 3107.05463948 0 -347.15779184 0 -2620.50601176 0 4303
0.06350000 0.06350600 32377.31121928 0 509.07041225 0 2396.87420769 0 -1321.20556287 0 -1352.51601185 0 4470
0.06450000 0.06451750 32196.74653296 0 650.83809164 0 4834.98548564 0 -1842.79128175 0 -4594.49506221 0 4479
0.06550000 0.06550280 30786.05719312 0 1224.88960857 0 5748.11263919 0 -2622.97934868 0 -7376.99909660 0 4636
0.06650000 0.06648880 29962.64673168 0 916.23601605 0 7580.28964546 0 -814.67947120 0 -5398.14101068 0 4653
0.06750000 0.06749660 28544.85902579 0 -118.54160386 0 6647.32034057 0 1641.71897228 0 -5338.55910068 0 5220
0.06850000 0.06852730 28913.97406023 0 -249.44212849 0 6167.98099086 0 2275.08177400 0 -4602.88000710 0 5029
0.06950000 0.06949320 29837.64894208 0 119.75941729 0 5756.04284501 0 1041.82940294 0 -3500.60358080 0 5040
0.07050000 0.07048030 28228.42717686 0 982.30405804 0 6023.95070729 0 -1168.59069286 0 -1620.09113823 0 5475
0.07150000 0.07148790 27589.68514461 0 914.56679091 0 8536.56155514 0 -1754.19480053 0 223.15931908 0 5509
0.07250000 0.07249820 26703.83124436 0 37.54248164 0 9007.83760467 0 -30.96728735 0 125.36047175 0 5916
0.07350000 0.07351270 28389.36044458 0 -560.15868363 0 9169.69144173 0 911.56440390 0 405.21022579 0 5721
0.07450000 0.07449140 27702.37170561 0 -45.75274018 0 10061.07984926 0 -131.24546085 0 660.27337288 0 6028
0.07550000 0.07549160 28469.21706261 0 506.89099205 0 10808.78180033 0 -304.06183698 0 933.69245093 0 6183
0.07650000 0.07648840 27578.37212372 0 695.81067703 0 12282.83514834 0 -1110.27317930 0 901.62780055 0 6330
0.07750000 0.07749960 26739.76672247 0 553.15459276 0 12528.94880862 0 -248.03132823 0 214.36843638 0 6583
0.07850000 0.07848650 26357.34225170 0 820.66539019 0 13742.10393082 0 -1021.10882880 0 -476.57431431 0 6549
0.07950000 0.07947320 26000.76026981 0 499.27910358 0 13952.61484889 0 579.05475587 0 1609.01103248 0 6828
0.08050000 0.08048110 24769.19376068 0 277.94317728 0 13130.09168321 0 1576.19218071 0 -473.41221406 0 7147
0.08150000 0.08149960 25062.00136011 0 -316.06473031 0 10735.40244132 0 1989.33926703 0 1141.68344906 0 7386
0.08250000 0.08250610 24433.01958118 0 297.23964173 0 10406.50408702 0 1450.49564569 0 -1847.21666933 0 7227
0.08350000 0.08350160 23870.36316000 0 834.42402001 0 9131.26044431 0 -131.61036123 0 1707.47867898 0 7798
0.08450000 0.08449610 22169.08446011 0 524.89755029 0 8957.80521523 0 506.95975747 0 1372.40252798 0 7371
0.08550000 0.08548940 22172.96637904 0 191.82446946 0 8843.34406273 0 374.68392442 0 330.06625734 0 8256
0.08650000 0.08650700 21879.82604370 0 78.95224183 0 7169.72680803 0 1298.59061229 0 233.80686815 0 8037
0.08750000 0.08749060 21874.39135719 0 -9.41355359 0 7209.75493781 0 819.47752300 0 -573.27180578 0 8155
0.08850000 0.08849210 21343.23393534 0 223.99448621 0 6255.62362915 0 -186.10473919 0 338.90150483 0 8718
0.08950000 0.08949900 21281.89961622 0 301.18256225 0 6649.59403594 0 -264.21116634 0 82.60346386 0 8571
0.09050000 0.09049190 20770.70634888 0 6.52792361 0 6436.88706087 0 921.91470889 0 387.29572447 0 8932
0.09150000 0.09150830 20754.73502527 0 130.92936173 0 5079.42437518 0 980.18896678 0 385.02979294 0 9285
0.09250000 0.09250820 20831.70793209 0 137.00622854 0 5172.57933835 0 714.23648252 0 1659.04342191 0 9204
0.09350000 0.09350330 19983.56410146 0 541.68185863 0 5114.36164557 0 148.40576077 0 812.96144479 0 9349
0.09450000 0.09448040 20075.95377204 0 195.99919599 0 4571.96884121 0 -176.98999354 0 1414.23852287 0 9564
0.09550000 0.09549270 19097.26655333 0 286.16619070 0 5147.82378676 0 330.39012029 0 1746.10931795 0 10155
0.09650000 0.09649430 18854.70207607 0 487.41374109 0 4701.50293037 0 38.89017298 0 887.92906320 0 9913
0.09750000 0.09749140 18501.66927721 0 177.61110057 0 5385.63014053 0 224.16418152 0 2547.54811823 0 10476
0.09850000 0.09850240 18098.39335617 0 115.38837657 0 4150.25935084 0 424.83942614 0 589.00466865 0 10575
0.09950000 0.09950330 17830.98459775 0 418.67937536 0 5084.17140747 0 -147.58501219 0 1791.48340467 0 10882
0.10050000 0.10051200 17050.71889244 0 486.23585597 0 4037.11805077 0 -269.03583701 0 266.20869091 0 10875
0.10150000 0.10150300 16679.38561862 0 448.22521491 0 5485.36218349 0 -421.94573286 0 1204.12688788 0 11118
0.10250000 0.10250800 16316.14891856 0 291.64302375 0 5329.90796706 0 4.16842673 0 649.97297828 0 11575
0.10350000 0.10349800 15698.81289642 0 142.38878642 0 5778.30287728 0 582.22461996 0 709.37299265 0 11364
0.10450000 0.10450100 15862.96261126 0 -160.68815227 0 4498.97767409 0 891.23423989 0 1421.21488575 0 12093
0.10550000 0.10551000 16145.89904541 0 -226.48445992 0 4476.15199077 0 1043.12707298 0 1407.09579203 0 12067
0.10650000 0.10649700 16160.87216129 0 27.40634766 0 3411.88509641 0 230.86326448 0 1895.82938556 0 12054
0.10750000 0.10749900 15901.89271254 0 373.56260441 0 3726.70872178 0 -655.95556991 0 1213.62095247 0 12807
0.10850000 0.10850100 15434.39876118 0 430.83421809 0 4392.97910486 0 -365.63350771 0 2563.49725945 0 12736
0.10950000 0.10950300 15069.38746961 0 292.91629316 0 4242.56029185 0 115.04344035 0 1191.12800506 0 12933
0.11050000 0.11050200 14727.88951558 0 113.68476872 0 4155.74949333 0 138.04436458 0 1479.84295282 0 13428
0.11150000 0.11150900 14839.35604490 0 80.71418938 0 4501.77265572 0 146.55685823 0 1046.30026443 0 13453
0.11250000 0.11250000 14599.89710279 0 65.77157429 0 3806.37678946 0 203.04986989 0 1184.82820519 0 13668
0.11350000 0.11349100 14499.29994647 0 -62.61956703 0 3723.95810494 0 759.33661667 0 1295.40743876 0 13791
0.11450000 0.11448600 14507.17469631 0 32.92810006 0 3237.95294587 0 450.63200465 0 1282.83002143 0 14205
0.11550000 0.11549300 14418.44512072 0 148.73406020 0 2996.00957564 0 -253.87971638 0 1019.84886883 0 14776
0.11650000 0.11649800 14109.11163783 0 149.94078242 0 3476.30276828 0 257.14607389 0 1238.72033116 0 14553
0.11750000 0.11747300 13896.49339234 0 90.80518218 0 3269.85122829 0 -336.19414366 0 1391.55702511 0 14568
0.11850000 0.11849100 13823.95696430 0 237.80524465 0 3658.89714364 0 -324.39200098 0 709.17556935 0 16015
0.11950000 0.11950300 14001.63793941 0 18.12656500 0 3757.65316127 0 23.49470432 0 565.79633904 0 15270
0.12050000 0.12050700 13754.08242352 0 -107.53758372 0 3994.53894569 0 -4.95621227 0 826.83320481 0 15999
0.12150000 0.12150000 14006.96171394 0 129.84907915 0 3784.43840190 0 53.37294704 0 450.61536785 0 15670
0.12250000 0.12250700 13840.81558366 0 272.29997628 0 4065.95516284 0 112.81078240 0 1731.94585945 0 16887
0.12350000 0.12352200 13373.65436820 0 284.39270831 0 4509.55867598 0 -83.92098715 0 932.65986050 0 16407
0.12450000 0.12449800 13235.79079013 0 289.45694884 0 4383.35194591 0 105.27021033 0 1690.13204695 0 16306
0.12550000 0.12549900 12777.61344420 0 51.58626613 0 4368.20137088 0 387.53529433 0 1188.14447308 0 17523
0.12650000 0.12650100 12849.70622436 0 11.37391156 0 4279.46070409 0 119.18378417 0 2286.42806848 0 17154
0.12750000 0.12750600 12888.74723762 0 -2.82869887 0 3840.07184579 0 589.29082153 0 1797.99393728 0 18007
0.12850000 0.12850300 12974.26036609 0 -113.43521679 0 3133.11895231 0 362.60339271 0 1284.70443371 0 17496
0.12950000 0.12949900 13070.75377954 0 -73.25125568 0 2968.76959593 0 463.68634346 0 2069.06279069 0 18405
0.13050000 0.13049000 13004.76115770 0 87.37267855 0 2747.45585203 0 79.57279430 0 917.15325804 0 18100
0.13150000 0.13148800 12838.28229151 0 192.12504090 0 2601.81734490 0 -437.74736115 0 1301.75160342 0 19059
0.13250000 0.13249300 12646.51549627 0 244.39674299 0 2834.10028259 0 -327.17700054 0 539.69875262 0 18957
0.13350000 0.13349100 12227.82281148 0 209.94083055 0 3316.03497238 0 -168.33775080 0 949.81683305 0 19468
0.13450000 0.13450700 12212.18422378 0 36.28229984 0 2936.92676950 0 323.27068097 0 617.83512600 0 19953
0.13550000 0.13551000 12257.76904324 0 -52.08636820 0 3034.40729947 0 419.38033901 0 727.98291201 0 19956
0.13650000 0.13649900 12103.49049369 0 16.85983939 0 2779.55377600 0 353.77590906 0 909.67668218 0 19723
0.13750000 0.13749600 12269.74753594 0 128.72775914 0 2708.88066904 0 172.24850685 0 931.53964960 0 20946
0.13850000 0.13851100 11801.47720079 0 146.43152771 0 2555.33413849 0 -202.57849402 0 753.20429387 0 20955
0.13950000 0.13949800 11808.57556683 0 291.27146866 0 3047.73891821 0 -170.23212724 0 1166.32808868 0 20506
0.14050000 0.14048300 11348.06906954 0 311.78574653 0 3255.06666276 0 -413.43767568 0 955.62196554 0 21447
0.14150000 0.14148400 11022.93063101 0 227.30742674 0 3223.88930814 0 -46.28556128 0 573.63005144 0 21771
0.14250000 0.14249400 10902.66878250 0 32.54390100 0 3598.47230267 0 30.52674501 0 396.51694562 0 22470
0.14350000 0.14350900 10844.75055203 0 -14.08615286 0 3082.74273577 0 214.43942004 0 -311.53730372 0 22519
0.14450000 0.14449900 10874.73005738 0 4.71155155 0 2555.95524552 0 181.33219715 0 -53.51846355 0 22218
0.14550000 0.14550500 10820.78247543 0 -58.53368098 0 2598.85599532 0 216.33601471 0 -221.24608760 0 23559
0.14650000 0.14650700 10722.44792329 0 171.31573718 0 2194.44877219 0 161.96918551 0 -134.41310670 0 23044
0.14750000 0.14750500 10640.46179544 0 52.57482451 0 1921.00640263 0 196.18220074 0 -215.19251231 0 23649
0.14850000 0.14849900 10611.05903233 0 30.35239139 0 1760.26168526 0 65.59666611 0 -338.48225759 0 23640
0.14950000 0.14949500 10363.68097560 0 176.07940627 0 2305.10564414 0 -121.68706732 0 83.58614391 0 24457
0.15050000 0.15050000 10184.89088080 0 182.05867055 0 1644.68032186 0 51.10024988 0 -139.02371727 0 24591
0.15150000 0.15149900 10107.94015637 0 171.14049627 0 2489.79625572 0 -179.09510272 0 -262.73381891 0 25020
0.15250000 0.15250500 10040.62768209 0 169.97592059 0 2479.00452109 0 -288.80256822 0 -89.40480766 0 25297
0.15350000 0.15350100 9630.10920945 0 207.09372030 0 3055.54712086 0 -195.73189814 0 -98.95066813 0 25452
0.15450000 0.15450400 9653.61145578 0 85.72652310 0 3059.29594543 0 -268.54227875 0 -74.99357181 0 26061
0.15550000 0.15549900 9673.15414480 0 -36.06823974 0 3329.69932702 0 337.13134980 0 -382.31355881 0 26128
0.15650000 0.15649500 9707.83631766 0 -64.96047505 0 3143.62231582 0 257.43999060 0 15.75937083 0 26331
0.15750000 0.15749700 9739.19113143 0 106.94631201 0 3208.22853805 0 -212.63155493 0 -394.87988495 0 27345
0.15850000 0.15849900 9710.96403520 0 143.62212752 0 3313.20671716 0 -379.82469421 0 -64.75406788 0 26980
0.15950000 0.15949700 9339.60857898 0 235.84432103 0 3556.35902786 0 -270.07286393 0 -415.23666783 0 27777
0.16050000 0.16050000 9266.56195588 0 228.85353959 0 3753.36086805 0 -66.16264989 0 -416.07072584 0 28224
0.16150000 0.16150500 9064.60235065 0 19.08074067 0 3674.39154578 0 162.28195727 0 -797.63673797 0 28075
0.16250000 0.16249700 8863.23057885 0 124.63399835 0 3766.08247095 0 419.21951665 0 -455.13724885 0 28590
0.16350000 0.16349900 8962.71861548 0 -74.38388872 0 3145.70746085 0 326.74222562 0 -38.42423180 0 29163
0.16450000 0.16449100 8841.24782650 0 -28.87737311 0 2874.69406342 0 436.63713234 0 -445.42357856 0 28996
0.16550000 0.16550500 8842.58986133 0 102.32072833 0 2903.73081703 0 114.15281723 0 -72.48962319 0 30777
0.16650000 0.16650700 8813.97457321 0 41.63979161 0 2281.90286013 0 129.41541335 0 -134.90333760 0 29211
0.16750000 0.16749900 8695.89769050 0 74.78261725 0 2653.23613395 0 53.05185689 0 114.72734123 0 30922
0.16850000 0.16850800 8746.83955808 0 38.79822696 0 2143.19635109 0 106.34805285 0 -422.89957580 0 30867
0.16950000 0.16949900 8627.33191096 0 37.39019950 0 2350.21354213 0 78.07060258 0 90.92108519 0 30852
0.17050000 0.17049200 8491.68657229 0 120.53912843 0 2465.62853757 0 -21.92341445 0 -268.61880801 0 31257
0.17150000 0.17149500 8413.12762430 0 139.56718592 0 2278.88605456 0 -15.58446266 0 147.74361631 0 32608
0.17250000 0.17250900 8209.38233636 0 91.65543334 0 2525.88701059 0 155.04162390 0 -18.27551977 0 32361
0.17350000 0.17350400 8247.93533695 0 81.57974639 0 2161.36373169 0 235.71011754 0 344.06112965 0 32508
0.17450000 0.17449800 8057.29984381 0 72.31149857 0 2440.25187896 0 82.04158383 0 554.72732449 0 32791
0.17550000 0.17549800 7969.29119602 0 128.84421671 0 2136.64145370 0 -6.07858594 0 278.77058058 0 33633
0.17650000 0.17650100 7826.42548813 0 131.86878612 0 2379.92685876 0 -82.02505794 0 507.46884341 0 33984
0.17750000 0.17750300 7591.70248712 0 175.73557917 0 2502.69531778 0 -184.42996845 0 -119.79601824 0 34069
0.17850000 0.17849800 7564.29613946 0 79.52554580 0 2593.62095036 0 -108.91122846 0 212.11803252 0 34536
