### header ###
fiducial parameters:
Omega_m = 0.31
Omega_nu = 0
Omega_de = 0.69
Omega_k = 0
H_0 = 100
w_de = -1
zeff = 0
beta = 0
fgrowth = 0
b_1 = 2
gamma = 0.55
Lx = 3500 Ly = 3500 Lz = 3500
nx = 700 ny = 700 nz = 700
xoffset = 1379.75464 yoffset = 22.6059522 zoffset = 368.141391
bins = 400 dk = 0.001
kx_ny = 0.628318531 ky_ny = 0.628318531 kz_ny = 0.628318531
############################
A(data) = 3.3360597 (not used)
A(ran) = 3.33506083 (used)
Ngal = 187330
weighted Ngal = 0
Nran = 9399747
weighted Nran = 0
SN(data) = 6598.19788
SN(ran) = 132.653321
SN(data+ran) = 6730.85121
############################
13 columns: k_central k_mean P_0(k) sigma^{lin}_{P_0(k)} P^img_1(k) sigma^{lin}_{P_1(k)} P_2(k) sigma^{lin}_{P_2(k)} P^img_3(k) sigma^{lin}_{P_3(k)} P_4(k) sigma^{lin}_{P_4(k)} N_modes
### header ###
0.00050000 0 0 0 0 0 0 0 0 0 0 0 0
0.00150000 0.00179520 8618.38131503 0 -20585.37244787 0 -24198.10802982 0 23049.17093795 0 19312.10303821 0 3
0.00250000 0.00253879 20285.24465845 0 -21712.45988175 0 -20886.38753305 0 -23200.78760023 0 -29409.30691594 0 6
0.00350000 0.00331552 36823.55025189 0 -10623.68081446 0 -28899.99915208 0 -8104.25997169 0 6086.18341337 0 7
0.00450000 0.00420575 46174.31657499 0 -4528.85735867 0 -37267.75268966 0 -20117.76758453 0 9905.92509515 0 24
0.00550000 0.00557378 39831.37195227 0 -4525.68527634 0 -38850.79923008 0 -10065.61614881 0 9504.80086632 0 45
0.00650000 0.00659388 50782.93073092 0 -8866.08101647 0 -47128.04860057 0 -8367.89772315 0 -31664.92363930 0 40
0.00750000 0.00754703 54373.15118306 0 -9123.11950575 0 -53931.83245649 0 -14403.02835696 0 -5016.22673497 0 57
0.00850000 0.00846663 61730.16394275 0 -1523.39808323 0 -31235.80522937 0 -43112.59165744 0 -24846.83213932 0 75
0.00950000 0.00948925 66380.03735133 0 2076.08351836 0 -25703.51619160 0 -31995.99586820 0 -17264.55716960 0 112
0.01050000 0.01054430 62390.31198511 0 -1607.83536560 0 -4764.09055475 0 -6758.40976920 0 -13538.91320273 0 105
0.01150000 0.01145670 71180.86195036 0 -3622.21855534 0 8898.06802847 0 -2266.05353969 0 -3080.57995237 0 144
0.01250000 0.01249090 76297.00927864 0 -3310.34518835 0 13654.59438690 0 9807.06925675 0 1989.43908780 0 169
0.01350000 0.01339930 89906.24067002 0 -5381.18257055 0 11860.14963264 0 10846.64714671 0 -1366.26909607 0 180
0.01450000 0.01448870 86057.92806489 0 2295.82231230 0 35795.39629479 0 -14526.47337900 0 15777.44948279 0 267
0.01550000 0.01550050 86397.09686757 0 11579.87508576 0 51601.57197767 0 -12764.30400786 0 -9175.14831063 0 238
0.01650000 0.01653350 72768.67770547 0 11257.56490245 0 71432.29938518 0 -19920.12245492 0 26255.74688765 0 315
0.01750000 0.01747870 71825.26049306 0 5645.10869313 0 77015.49701695 0 15914.98032494 0 11801.47720079 0 297
0.01850000 0.01844180 73628.46729290 0 -11640.76575701 0 65350.33062665 0 32516.06209310 0 10778.52501506 0 388
0.01950000 0.01947590 83451.05313418 0 -8268.39859532 0 55414.06001665 0 28552.95559957 0 2342.88226095 0 399
0.02050000 0.02045430 90256.61158161 0 475.57499746 0 31423.91192961 0 5586.61372043 0 17237.05100117 0 462
0.02150000 0.02154770 88738.55945531 0 2723.36577226 0 30393.87246903 0 4784.19889481 0 21646.24543597 0 571
0.02250000 0.02255340 78875.82348107 0 5440.89757492 0 32263.62645056 0 -657.12125471 0 9146.97667038 0 510
0.02350000 0.02348930 77682.74342535 0 6272.47115731 0 26849.12592438 0 -3075.43363698 0 15904.66551178 0 555
0.02450000 0.02439640 72912.08688201 0 -2351.77740090 0 27428.53005295 0 17607.60789121 0 25605.80274648 0 592
0.02550000 0.02547300 70432.53889227 0 -2065.24741894 0 17009.90328767 0 12853.58814330 0 21708.57796282 0 837
0.02650000 0.02652900 76574.28920235 0 1947.76946087 0 5173.86591719 0 6007.16972631 0 15357.75859026 0 723
0.02750000 0.02749970 67724.62315736 0 3383.83545933 0 12730.80859308 0 -9937.44627688 0 18722.71683239 0 826
0.02850000 0.02848090 63809.43063464 0 6482.30551237 0 12777.61344420 0 -4226.93279535 0 15806.73024273 0 831
0.02950000 0.02946900 62224.16585483 0 1667.78328510 0 26151.71146028 0 -1998.83333161 0 19844.81322764 0 996
0.03050000 0.03053250 58176.76626448 0 -731.81824792 0 15682.84157282 0 7085.81081192 0 9153.37629102 0 1041
0.03150000 0.03150510 60207.45351373 0 679.46447096 0 22157.54961528 0 4696.47861815 0 14801.09141543 0 1036
0.03250000 0.03246190 56972.59501181 0 125.44809220 0 13889.06229038 0 2940.06557823 0 21432.29624684 0 1059
0.03350000 0.03345080 58066.07611894 0 1078.35382361 0 20182.09652683 0 6001.38012150 0 19425.45507103 0 1302
0.03450000 0.03451200 57659.25101488 0 -141.21866514 0 13357.46122065 0 2203.77646882 0 22119.50680975 0 1339
0.03550000 0.03553350 56033.94701408 0 1282.49728552 0 16098.09598656 0 545.31533475 0 10018.37874101 0 1365
0.03650000 0.03647120 52492.97147640 0 4809.18736154 0 21143.14874240 0 -12109.92338792 0 16578.56663836 0 1308
0.03750000 0.03744890 48040.85410941 0 4804.14086693 0 25748.65736318 0 -7799.61806511 0 7690.92433502 0 1579
0.03850000 0.03847530 45245.53974255 0 1549.16293374 0 31299.35778788 0 30.43391169 0 6805.21462032 0 1662
0.03950000 0.03950240 43180.69160670 0 -251.76906160 0 28563.15950076 0 4693.83891328 0 600.72251823 0 1683
0.04050000 0.04050350 44385.97197906 0 -612.79084963 0 26961.81248537 0 5702.45018135 0 599.20413337 0 1822
0.04150000 0.04152450 44829.73076896 0 -678.66701390 0 21070.72322632 0 4266.41745648 0 6869.47701544 0 1887
0.04250000 0.04250150 43563.55972535 0 158.08615746 0 22224.54044485 0 4412.65488824 0 1608.53411101 0 1920
0.04350000 0.04349210 45358.55903945 0 -295.79445877 0 14739.20253646 0 4265.72980227 0 10925.21718589 0 2005
0.04450000 0.04448520 44668.46476533 0 -288.10715017 0 13526.71288608 0 2107.11668742 0 3823.87869825 0 2151
0.04550000 0.04548030 43517.86399392 0 1880.57898975 0 13786.35780664 0 -2292.55040920 0 7248.98450142 0 2274
0.04650000 0.04648670 41270.23293237 0 1960.20269264 0 14095.02581771 0 -3284.14778116 0 4147.23145408 0 2311
0.04750000 0.04749250 39144.38321330 0 785.82904970 0 17118.37519383 0 -59.77068218 0 4181.78053257 0 2568
0.04850000 0.04851840 38981.45353013 0 88.43188786 0 16143.01533420 0 4472.68044613 0 2651.07335055 0 2493
0.04950000 0.04949480 37556.23472228 0 149.82876133 0 13133.30813033 0 1497.03430809 0 -336.88401611 0 2644
0.05050000 0.05050630 37497.56229043 0 1163.43328628 0 11530.74108328 0 677.16970231 0 3069.24474909 0 2829
0.05150000 0.05149060 36920.70913715 0 -362.67215813 0 10204.57775538 0 1323.11324874 0 -985.45839445 0 2784
0.05250000 0.05249300 36619.47222804 0 -202.70271543 0 12095.17209598 0 522.41423130 0 1292.95628424 0 3055
0.05350000 0.05348950 36583.31492599 0 164.31608279 0 7275.07099664 0 2396.02018553 0 -4808.72153127 0 3009
0.05450000 0.05448610 36492.92167086 0 614.28816122 0 9483.89396008 0 -1534.62237454 0 241.19471443 0 3336
0.05550000 0.05550870 35091.99258433 0 1037.92751985 0 6652.75502707 0 -1479.70985845 0 -1907.63041911 0 3349
0.05650000 0.05647670 35155.10149496 0 437.95254830 0 10746.32727031 0 160.21455816 0 -2585.18054948 0 3324
0.05750000 0.05747970 34043.43082484 0 945.47019297 0 9221.49842268 0 -876.12137493 0 -2777.61281653 0 3639
0.05850000 0.05849280 32565.75065543 0 1414.11651970 0 11341.08161547 0 -483.38541835 0 -4582.31692796 0 3846
0.05950000 0.05951020 31337.40059342 0 940.13310900 0 13432.21588808 0 -113.86222787 0 1916.52555906 0 3787
0.06050000 0.06049470 29541.18124765 0 226.71182946 0 12729.03400157 0 3026.74328238 0 -1650.33683230 0 3930
0.06150000 0.06148310 30980.70769956 0 -405.74149412 0 11620.57977856 0 2082.59405097 0 2753.57819274 0 4083
0.06250000 0.06249100 29862.38231127 0 201.27527838 0 9679.20993834 0 963.44569586 0 1590.88801666 0 4303
0.06350000 0.06350600 30931.24096117 0 367.06870860 0 9583.37090551 0 -15.74140309 0 2268.50469421 0 4470
0.06450000 0.06451750 28929.39082399 0 471.46238164 0 9425.38789618 0 -817.64082078 0 2033.01640061 0 4479
0.06550000 0.06550280 29237.94792309 0 -22.99637684 0 10875.58407955 0 745.19090408 0 80.30680971 0 4636
0.06650000 0.06648880 29439.69679558 0 -153.29476038 0 9437.05583536 0 305.98172317 0 1610.02033140 0 4653
0.06750000 0.06749660 29469.75393931 0 188.24755844 0 8803.18283858 0 679.26261118 0 -1581.52704644 0 5220
0.06850000 0.06852730 28998.04533310 0 919.61328553 0 10102.28364593 0 -1215.71718869 0 562.05195095 0 5029
0.06950000 0.06949320 28050.30255387 0 614.93477800 0 10486.63798497 0 93.27652269 0 1739.92043006 0 5040
0.07050000 0.07048030 27773.90992592 0 299.08965338 0 11083.88784943 0 333.30932333 0 827.22472407 0 5475
0.07150000 0.07148790 27631.94260498 0 -402.24000324 0 9152.88827835 0 2111.56425740 0 3073.93632540 0 5509
0.07250000 0.07249820 27942.05247166 0 -2.25092515 0 9996.05216156 0 1601.84611925 0 2513.97506507 0 5916
0.07350000 0.07351270 27640.03917876 0 353.74929018 0 8938.06288466 0 403.02747823 0 3501.65724451 0 5721
0.07450000 0.07449140 27859.75579030 0 241.54297802 0 10474.90349860 0 -594.25745953 0 2117.60895973 0 6028
0.07550000 0.07549160 26519.16281517 0 655.75149189 0 8778.37183100 0 -391.32848368 0 2684.32475900 0 6183
0.07650000 0.07648840 26123.76164397 0 434.84146755 0 11150.09120402 0 -988.29219527 0 789.51576356 0 6330
0.07750000 0.07749960 25862.89669174 0 525.16152078 0 10030.62342244 0 276.80854784 0 981.60087615 0 6583
0.07850000 0.07848650 25179.56804776 0 169.06976980 0 10062.74352880 0 -12.41714954 0 463.64530603 0 6549
0.07950000 0.07947320 24903.39724375 0 400.70941806 0 10606.27872645 0 491.38438959 0 1038.05506862 0 6828
0.08050000 0.08048110 24255.56043001 0 493.92871017 0 10633.13051426 0 468.22042477 0 -96.26227291 0 7147
0.08150000 0.08149960 23848.51350201 0 193.91072360 0 9311.78076583 0 711.50804807 0 1043.19140192 0 7386
0.08250000 0.08250610 23541.06552260 0 -154.25969451 0 9267.57125480 0 1717.97095129 0 1314.27356477 0 7227
0.08350000 0.08350160 24011.55409715 0 -385.51226001 0 7528.00574305 0 1592.74024655 0 1904.01468890 0 7798
0.08450000 0.08449610 23948.66701045 0 216.21179331 0 7013.45184303 0 930.90523314 0 2973.89372892 0 7371
0.08550000 0.08548940 23532.08165307 0 1026.06992119 0 6890.12882416 0 -1255.16857624 0 1365.52598587 0 8256
0.08650000 0.08650700 21692.38481527 0 1157.26658077 0 8686.02652521 0 -1515.24605348 0 1879.49205245 0 8037
0.08750000 0.08749060 20581.26870500 0 943.90633420 0 9417.45769036 0 -438.38732322 0 259.87894481 0 8155
0.08850000 0.08849210 19917.68239159 0 250.29836889 0 9899.83602803 0 449.76910952 0 1390.12626070 0 8718
0.08950000 0.08949900 19468.37800322 0 -48.37436640 0 8528.09897187 0 521.90070888 0 -309.55419771 0 8571
0.09050000 0.09049190 19545.46182201 0 124.32677219 0 9265.17555626 0 602.83871861 0 -126.71470689 0 8932
0.09150000 0.09150830 19084.06802896 0 272.94659306 0 8028.35181977 0 -235.45834737 0 -488.25667205 0 9285
0.09250000 0.09250820 19271.06560951 0 154.76212574 0 7376.04525366 0 392.86572358 0 -1176.63181065 0 9204
0.09350000 0.09350330 18640.30923906 0 -8.96420484 0 7548.59100458 0 -41.30816483 0 -1771.63016213 0 9349
0.09450000 0.09448040 18853.81478031 0 52.96856200 0 7076.97112795 0 649.11119228 0 -2583.09540445 0 9564
0.09550000 0.09549270 18828.41593930 0 -144.04802948 0 6324.05631432 0 949.94438182 0 -1242.18078461 0 10155
0.09650000 0.09649430 18687.22500215 0 -266.42386013 0 4605.80808310 0 1392.52195924 0 -1583.70092104 0 9913
0.09750000 0.09749140 18724.38051193 0 495.99389105 0 4970.07626447 0 181.43201792 0 -903.31809897 0 10476
0.09850000 0.09850240 17893.64986051 0 615.86200206 0 5099.69908320 0 -146.02780814 0 -717.44183843 0 10575
0.09950000 0.09950330 17247.80946221 0 453.71646652 0 4988.87584330 0 193.02675521 0 444.31556799 0 10882
0.10050000 0.10051200 16820.46564380 0 408.19486688 0 5521.26438801 0 -328.85066216 0 92.90042020 0 10875
0.10150000 0.10150300 16189.37653744 0 293.20355516 0 5144.66279563 0 51.96813604 0 -227.36288272 0 11118
0.10250000 0.10250800 16084.89746219 0 336.95610889 0 6278.57131563 0 -477.89305763 0 853.22581707 0 11575
0.10350000 0.10349800 15419.53655727 0 231.66072154 0 5449.64852931 0 283.78601984 0 -1056.10820989 0 11364
0.10450000 0.10450100 15519.02459389 0 160.74693561 0 6572.14420765 0 -15.27956565 0 -183.71236801 0 12093
0.10550000 0.10551000 15029.23733666 0 249.72606313 0 5427.89869210 0 -116.27123585 0 -902.21008839 0 12067
0.10650000 0.10649700 15052.52885025 0 -35.87236920 0 6219.58833026 0 657.63366801 0 -104.08422864 0 12054
0.10750000 0.10749900 14937.18040199 0 -2.76759747 0 4976.98608017 0 25.34482688 0 -1338.07527342 0 12807
0.10850000 0.10850100 14882.05715316 0 142.20578167 0 5390.78754711 0 233.57617125 0 -760.90602103 0 12736
0.10950000 0.10950300 14813.73537995 0 4.67367512 0 5124.89828267 0 38.18111276 0 -1190.97272830 0 12933
0.11050000 0.11050200 14820.83374600 0 -54.91218335 0 4131.84796391 0 534.91844674 0 -936.67820115 0 13428
0.11150000 0.11150900 14936.07128229 0 45.89016011 0 4724.77226156 0 394.48282010 0 -977.38289395 0 13453
0.11250000 0.11250000 14915.33074400 0 119.14607410 0 3657.23346410 0 31.75864425 0 -1153.83940092 0 13668
0.11350000 0.11349100 14275.03594418 0 257.43555413 0 4804.25177890 0 -309.81594995 0 -915.42081308 0 13791
0.11450000 0.11448600 14588.91681781 0 213.47448590 0 4542.10024783 0 30.96529094 0 -386.94746089 0 14205
0.11550000 0.11549300 14403.02835696 0 -134.03378776 0 4845.79940266 0 660.65380094 0 636.31860571 0 14776
0.11650000 0.11649800 14316.51702077 0 -40.55451799 0 4344.57712138 0 206.10216729 0 -57.67588781 0 14553
0.11750000 0.11747300 14349.56878767 0 155.87790015 0 4647.34461567 0 526.71428835 0 939.22806733 0 14568
0.11850000 0.11849100 14429.53631767 0 199.57388877 0 4394.17695413 0 -26.12775447 0 1931.52085734 0 16015
0.11950000 0.11950300 13956.49676783 0 175.65350431 0 4759.36570485 0 -47.80971357 0 1204.13797908 0 15270
0.12050000 0.12050700 13882.96213206 0 293.12148031 0 5048.85703639 0 -281.75854903 0 1514.68040243 0 15999
0.12150000 0.12150000 13488.67008055 0 176.97002939 0 5428.08724244 0 -666.20050853 0 234.66199943 0 15670
0.12250000 0.12250700 13359.79037201 0 49.26876052 0 5771.48179116 0 -94.91546886 0 1172.90516847 0 16887
0.12350000 0.12352200 13691.74989667 0 90.46091143 0 5681.82055503 0 -161.97584023 0 -265.32139516 0 16407
0.12450000 0.12449800 13230.79975150 0 96.37318487 0 5664.79556771 0 -122.93593609 0 -718.51213894 0 16306
0.12550000 0.12549900 13382.41641379 0 76.73455700 0 5837.98460806 0 151.43809401 0 -141.34510479 0 17523
0.12650000 0.12650100 13112.90032794 0 -48.76510927 0 5749.21066769 0 542.13327035 0 -194.74810897 0 17154
0.12750000 0.12750600 13339.49348160 0 86.37047799 0 5170.03945425 0 640.90703389 0 -88.81519963 0 18007
0.12850000 0.12850300 13172.34914359 0 -25.58007117 0 4929.63776039 0 458.05534276 0 -177.84401571 0 17496
0.12950000 0.12949900 13142.84655970 0 138.33717218 0 4272.58416199 0 446.50829762 0 1422.37946143 0 18405
0.13050000 0.13049000 12923.24086013 0 127.73287877 0 4293.12505873 0 508.37721244 0 291.94914079 0 18100
0.13150000 0.13148800 12732.02862474 0 153.08291852 0 4089.57941234 0 325.62312384 0 1863.98655912 0 19059
0.13250000 0.13249300 12554.23673766 0 166.10952933 0 3506.29336483 0 533.51762856 0 1368.82007136 0 18957
0.13350000 0.13349100 12051.91642788 0 211.69213055 0 3616.32912976 0 62.36568953 0 1906.58784660 0 19468
0.13450000 0.13450700 11908.50725134 0 292.33067796 0 3439.13616731 0 3.55237729 0 1655.59405966 0 19953
0.13550000 0.13551000 11589.30260317 0 110.23707015 0 3624.65861866 0 158.42443897 0 2083.17079321 0 19956
0.13650000 0.13649900 11271.76163454 0 189.01285103 0 3626.22247743 0 -237.06546181 0 1610.70798561 0 19723
0.13750000 0.13749600 11219.96574479 0 203.84621783 0 3397.48872277 0 -91.43793497 0 843.29143197 0 20946
0.13850000 0.13851100 10971.03492049 0 133.98165913 0 3861.08966401 0 -124.57521500 0 904.76993665 0 20955
0.13950000 0.13949800 10860.02313023 0 148.23828369 0 3489.11310076 0 -373.15333925 0 504.41654601 0 20506
0.14050000 0.14048300 10691.09310951 0 80.07677829 0 4005.76323700 0 227.05343833 0 413.42436624 0 21447
0.14150000 0.14148400 10635.60385118 0 16.00215713 0 3352.80229027 0 27.19062388 0 -7.88116055 0 21771
0.14250000 0.14249400 10622.15022928 0 -57.44785280 0 3245.28422705 0 538.90905940 0 -31.34039522 0 22470
0.14350000 0.14350900 10783.31641214 0 -75.08884520 0 2930.15004816 0 272.55618293 0 -380.63324247 0 22519
0.14450000 0.14449900 10589.99684933 0 183.28092045 0 2916.61878788 0 -470.20796726 0 -69.87930999 0 22218
0.14550000 0.14550500 10472.21942894 0 217.14567209 0 2827.82266512 0 -139.41080004 0 -458.62210293 0 23559
0.14650000 0.14650700 10382.23654810 0 -43.01742919 0 3177.45046651 0 31.62066976 0 -379.53743221 0 23044
0.14750000 0.14750500 10295.17065205 0 97.31516023 0 2964.03365484 0 -119.61744997 0 -698.33281521 0 23649
0.14850000 0.14849900 10438.51328141 0 189.87574616 0 3384.74493748 0 -21.16388928 0 -1116.18478728 0 23640
0.14950000 0.14949500 9942.31531234 0 126.53502950 0 3420.74696277 0 -413.54526029 0 -1078.45808086 0 24457
0.15050000 0.15050000 9980.57994181 0 181.85902900 0 4002.63551946 0 -208.72190801 0 -1205.44674032 0 24591
0.15150000 0.15149900 9760.29767922 0 133.75207136 0 3856.05426059 0 -111.12602958 0 -1066.12910633 0 25020
0.15250000 0.15250500 9617.26560338 0 105.72694582 0 3884.02625930 0 147.85120092 0 -1289.41819241 0 25297
0.15350000 0.15350100 9472.53657440 0 168.69155998 0 3949.69723643 0 169.91935549 0 -971.30824538 0 25452
0.15450000 0.15450400 9366.99274424 0 77.00573676 0 3894.76253794 0 258.44707129 0 -1131.88992216 0 26061
0.15550000 0.15549900 9145.32408204 0 52.02880488 0 3273.93278877 0 388.21851206 0 -689.20032364 0 26128
0.15650000 0.15649500 9218.13779000 0 -62.41737451 0 3217.91115298 0 560.69660668 0 -443.31292378 0 26331
0.15750000 0.15749700 9197.70780522 0 -42.87279998 0 2673.58848035 0 451.72005107 0 -375.41483430 0 27345
0.15850000 0.15849900 9160.16410355 0 41.47098360 0 2265.70971258 0 544.66095413 0 192.65409099 0 26980
0.15950000 0.15949700 9159.86464123 0 44.65537715 0 2306.08166947 0 235.63580652 0 596.56664673 0 27777
0.16050000 0.16050000 8956.91791948 0 68.78405429 0 1757.43343004 0 265.01971460 0 723.75827510 0 28224
0.16150000 0.16150500 9009.59001378 0 146.96501428 0 2068.24204212 0 59.16410462 0 840.23137073 0 28075
0.16250000 0.16249700 8730.52440737 0 107.87664161 0 1827.64070672 0 -195.19286597 0 796.59971105 0 28590
0.16350000 0.16349900 8702.60786465 0 115.36952154 0 2206.01689061 0 37.76086731 0 1382.83934431 0 29163
0.16450000 0.16449100 8654.44988750 0 19.08207161 0 1975.71927717 0 0.27813838 0 844.09665286 0 28996
0.16550000 0.16550500 8514.86717391 0 150.07498591 0 2547.11556155 0 -226.59759013 0 734.99143936 0 30777
0.16650000 0.16650700 8490.35562865 0 139.21892233 0 2373.43850854 0 -273.64090199 0 279.04675138 0 29211
0.16750000 0.16749900 8213.31971128 0 108.20449740 0 2948.02905764 0 -120.51029132 0 789.66993120 0 30922
0.16850000 0.16850800 8275.46368778 0 85.89011826 0 2854.26407864 0 -238.41747872 0 316.78565812 0 30867
0.16950000 0.16949900 8213.60808240 0 74.56522979 0 3006.14692965 0 256.43290992 0 459.80775188 0 30852
0.17050000 0.17049200 8141.39329907 0 -4.86544191 0 3017.74832166 0 57.37897647 0 281.21951686 0 31257
0.17150000 0.17149500 8161.71237188 0 25.49023247 0 2816.99765689 0 233.15581489 0 626.44189483 0 32608
0.17250000 0.17250900 8129.22625602 0 50.20829582 0 2536.23509735 0 386.53708660 0 867.01439312 0 32361
0.17350000 0.17350400 8175.47654729 0 20.62995906 0 2469.88755720 0 153.99350579 0 1118.49175624 0 32508
0.17450000 0.17449800 7852.67835131 0 119.91469405 0 2342.30551871 0 297.45813831 0 1130.18187783 0 32791
0.17550000 0.17549800 7880.45070847 0 95.10024820 0 2301.73392027 0 82.74975675 0 1293.93230957 0 33633
0.17650000 0.17650100 7769.42782702 0 34.33013827 0 2200.14964742 0 -76.82317566 0 1364.06194787 0 33984
0.17750000 0.17750300 7669.21886259 0 100.80278711 0 2204.23120790 0 119.63741412 0 1090.22029522 0 34069
0.17850000 0.17849800 7570.87321925 0 94.23990405 0 2089.38186350 0 -175.64019487 0 1092.39527894 0 34536
