### header ###
fiducial parameters:
Omega_m = 0.31
Omega_nu = 0
Omega_de = 0.69
Omega_k = 0
H_0 = 100
w_de = -1
zeff = 0
beta = 0
fgrowth = 0
b_1 = 2
gamma = 0.55
Lx = 3500 Ly = 3500 Lz = 3500
nx = 700 ny = 700 nz = 700
xoffset = 1379.75464 yoffset = 22.6059522 zoffset = 368.141391
bins = 400 dk = 0.001
kx_ny = 0.628318531 ky_ny = 0.628318531 kz_ny = 0.628318531
############################
A(data) = 3.33150499 (not used)
A(ran) = 3.32616212 (used)
Ngal = 186309
weighted Ngal = 0
Nran = 9399747
weighted Nran = 0
SN(data) = 6677.71441
SN(ran) = 132.299372
SN(data+ran) = 6810.01379
############################
13 columns: k_central k_mean P_0(k) sigma^{lin}_{P_0(k)} P^img_1(k) sigma^{lin}_{P_1(k)} P_2(k) sigma^{lin}_{P_2(k)} P^img_3(k) sigma^{lin}_{P_3(k)} P_4(k) sigma^{lin}_{P_4(k)} N_modes
### header ###
0.00050000 0 0 0 0 0 0 0 0 0 0 0 0
0.00150000 0.00179520 43215.40705315 0 -37882.42682453 0 -50801.78576573 0 52442.72835422 0 101131.41927737 0 3
0.00250000 0.00253879 62782.82944511 0 -27597.89263035 0 3428.00060557 0 -96005.95534366 0 -44199.75078230 0 6
0.00350000 0.00331552 75700.74653070 0 -1921.97133676 0 -44474.47973071 0 -10779.81159390 0 27520.47607566 0 7
0.00450000 0.00420575 80901.74151563 0 9328.65047639 0 15212.57482221 0 -58395.04102042 0 -11564.23649806 0 24
0.00550000 0.00557378 69294.02752553 0 10382.20327450 0 61613.59546283 0 -24509.65975209 0 18419.15077191 0 45
0.00650000 0.00659388 65477.87939156 0 8225.14292723 0 69511.19316178 0 36846.39811760 0 -44096.15900280 0 40
0.00750000 0.00754703 62411.60708325 0 2411.73641160 0 88145.73497843 0 19041.92148056 0 16309.05055251 0 57
0.00850000 0.00846663 62727.92802022 0 7622.96857132 0 70552.87837916 0 24194.44793482 0 -9255.67040047 0 75
0.00950000 0.00948925 59421.86403389 0 4141.48621406 0 100505.09938571 0 14657.57132692 0 35464.76771376 0 112
0.01050000 0.01054430 61744.24976288 0 -2097.88881156 0 69389.41181929 0 28498.16508664 0 11906.95448376 0 105
0.01150000 0.01145670 59611.74532564 0 -5349.25101454 0 60386.35452051 0 18750.88847263 0 -1152.34208933 0 144
0.01250000 0.01249090 80415.61435339 0 -5984.96515002 0 55169.94277182 0 18640.30923906 0 14174.43878786 0 169
0.01350000 0.01339930 82773.27008868 0 -3120.67462934 0 41330.56904377 0 15178.52484758 0 11200.66706210 0 180
0.01450000 0.01448870 84521.79728756 0 4623.99764609 0 46771.68844262 0 -4286.86962365 0 12608.80542665 0 267
0.01550000 0.01550050 77684.29619292 0 7648.54487148 0 31851.58848394 0 -3963.83851254 0 -15189.06148468 0 238
0.01650000 0.01653350 68617.13177578 0 5906.39511084 0 54390.00980242 0 10248.15506819 0 18316.66811211 0 315
0.01750000 0.01747870 63880.63611904 0 4861.40471677 0 60609.39849114 0 2264.71150486 0 1883.15214744 0 297
0.01850000 0.01844180 66969.97811700 0 -466.93606416 0 55871.01733092 0 20894.26228288 0 22316.59737952 0 388
0.01950000 0.01947590 63091.16472027 0 -3505.60571062 0 37359.14415252 0 17927.58892317 0 9242.05041062 0 399
0.02050000 0.02045430 70197.40551697 0 -3549.70430969 0 35566.58490174 0 6095.20055649 0 16956.99827823 0 462
0.02150000 0.02154770 72153.22718681 0 170.35413041 0 26656.80456930 0 1987.37612517 0 7575.24315085 0 571
0.02250000 0.02255340 70547.33278068 0 3911.19969182 0 30532.95607876 0 4435.70239550 0 15815.82502423 0 510
0.02350000 0.02348930 63874.20322481 0 2962.01505699 0 30994.79351969 0 -10119.90755788 0 2213.51453974 0 555
0.02450000 0.02439640 64781.68495912 0 -401.55678551 0 21946.92778523 0 9113.93599467 0 -6985.63512108 0 592
0.02550000 0.02547300 64644.04320499 0 -2038.67291105 0 20763.94071874 0 4528.84626747 0 -4436.90024477 0 837
0.02650000 0.02652900 65995.39464116 0 1448.94287812 0 16436.82114136 0 -1746.34223309 0 -14941.17323289 0 723
0.02750000 0.02749970 64109.33660012 0 1452.29241960 0 19216.82965643 0 -1766.33966119 0 -7350.36913272 0 826
0.02850000 0.02848090 61499.24522229 0 2423.77036029 0 19119.55985919 0 -2377.67534578 0 -22569.25484600 0 831
0.02950000 0.02946900 57154.37972979 0 2501.39764773 0 17829.65365412 0 1299.08971615 0 -7613.98470179 0 996
0.03050000 0.03053250 53639.13576902 0 1290.12802902 0 12434.67363456 0 3730.12481044 0 -4899.52516068 0 1041
0.03150000 0.03150510 55200.11082752 0 -815.89839374 0 16274.55693000 0 6338.46377915 0 -7811.21945712 0 1036
0.03250000 0.03246190 55288.39675523 0 2255.37271703 0 13571.85405766 0 3090.11838174 0 6606.20527348 0 1059
0.03350000 0.03345080 49880.99459509 0 2750.99394386 0 12963.83464096 0 -1504.40995406 0 -2869.53665684 0 1302
0.03450000 0.03451200 47392.79547172 0 1461.78648418 0 17227.84530770 0 -625.48028806 0 13088.38878269 0 1339
0.03550000 0.03553350 48363.38611666 0 506.46730832 0 20186.08935773 0 2391.16224126 0 6409.86890510 0 1365
0.03650000 0.03647120 47463.55730825 0 -438.88088148 0 16474.53121098 0 1220.99659844 0 11468.07582052 0 1308
0.03750000 0.03744890 48098.52833354 0 339.45606468 0 24851.26861810 0 3493.17247884 0 13430.66312051 0 1579
0.03850000 0.03847530 48157.20076540 0 272.10366209 0 18277.51618688 0 -1248.54713166 0 8490.27799027 0 1662
0.03950000 0.03950240 48270.99644608 0 2014.84902001 0 24241.03096200 0 -1762.32464789 0 12815.98898564 0 1683
0.04050000 0.04050350 46077.71224957 0 1333.25060275 0 25059.00673694 0 -3159.69346020 0 4389.60738099 0 1822
0.04150000 0.04152450 43872.78229627 0 1364.98251722 0 24822.32059406 0 679.36021371 0 8376.36030642 0 1887
0.04250000 0.04250150 44184.88857839 0 -518.91606778 0 25642.95825626 0 5651.65249933 0 800.20989566 0 1920
0.04350000 0.04349210 44834.72180759 0 -1443.27527648 0 22032.21908977 0 4182.77874030 0 4148.54021532 0 2005
0.04450000 0.04448520 44794.01711479 0 180.97173325 0 17758.11543380 0 2484.66103154 0 -1151.93171504 0 2151
0.04550000 0.04548030 43778.72894615 0 2620.30637021 0 16793.40312324 0 -4887.01429052 0 1144.17896838 0 2274
0.04650000 0.04648670 39890.82076792 0 2509.48313031 0 17663.95117171 0 -1419.71757416 0 -6338.40832317 0 2311
0.04750000 0.04749250 38255.20195396 0 1550.44951259 0 19682.43810432 0 978.69498255 0 -5307.95848830 0 2568
0.04850000 0.04851840 36721.28941602 0 -400.46319349 0 16649.43938685 0 3108.42994791 0 -5643.07900409 0 2493
0.04950000 0.04949480 35777.87220361 0 211.70433087 0 18397.96658574 0 3294.55132389 0 -6389.47219392 0 2644
0.05050000 0.05050630 35406.64984175 0 1216.58230205 0 10503.71842827 0 1637.39340547 0 -580.54430362 0 2829
0.05150000 0.05149060 33217.35847614 0 749.37117621 0 14853.99642488 0 3380.20863793 0 -146.81971960 0 2784
0.05250000 0.05249300 32495.32155481 0 648.37140944 0 12246.12328644 0 1404.43390477 0 5166.22408250 0 3055
0.05350000 0.05348950 32887.72810284 0 -263.12977464 0 13671.00935838 0 2007.44010045 0 4019.72705396 0 3009
0.05450000 0.05448610 32337.38291027 0 141.59687496 0 11442.23333163 0 1899.37856858 0 5250.63918247 0 3336
0.05550000 0.05550870 32791.23468939 0 460.29909191 0 13425.00661007 0 -2350.90119634 0 6684.40930316 0 3349
0.05650000 0.05647670 31146.96474182 0 990.51819850 0 12329.52908749 0 -1494.43896800 0 1474.76318461 0 3324
0.05750000 0.05747970 31194.21324082 0 1051.43105214 0 15654.44810863 0 -531.67205339 0 4774.90447177 0 3639
0.05850000 0.05849280 30480.27289326 0 73.65053877 0 14906.67961038 0 1110.93865112 0 3918.77497934 0 3846
0.05950000 0.05951020 30268.54194352 0 -172.14535871 0 14657.68223889 0 2049.53119287 0 4240.68587956 0 3787
0.06050000 0.06049470 30122.58179168 0 149.19101751 0 13523.38552700 0 1437.37475970 0 2529.25873447 0 3930
0.06150000 0.06148310 29627.91440779 0 692.99684036 0 13724.69075161 0 -726.15175540 0 4136.10698354 0 4083
0.06250000 0.06249100 29236.50606748 0 183.95526522 0 12365.35365363 0 321.20993658 0 4118.34997722 0 4303
0.06350000 0.06350600 29249.70459185 0 -237.37490621 0 13284.03749686 0 2179.85275701 0 4213.32389669 0 4470
0.06450000 0.06451750 29684.81224813 0 -45.13540416 0 11745.13392029 0 -442.27367863 0 1823.54805505 0 4479
0.06550000 0.06550280 30000.13497737 0 294.47016986 0 12392.08343828 0 230.27321280 0 3770.49676734 0 4636
0.06650000 0.06648880 29161.97322399 0 176.97113851 0 11288.73116587 0 -519.67359653 0 1295.05252046 0 4653
0.06750000 0.06749660 29163.63690353 0 -215.91122187 0 11704.20740355 0 1522.94334416 0 2083.55898510 0 5220
0.06850000 0.06852730 29909.63081027 0 201.87309389 0 11862.70060794 0 906.99815812 0 1748.15009819 0 5029
0.06950000 0.06949320 29324.45925928 0 272.25339325 0 10522.18527119 0 663.86581158 0 2370.08896706 0 5040
0.07050000 0.07048030 28571.58881044 0 323.98606317 0 10884.97832336 0 265.27813949 0 722.37742108 0 5475
0.07150000 0.07148790 28795.74190076 0 534.00785947 0 9987.93340539 0 -768.92939291 0 761.72455137 0 5509
0.07250000 0.07249820 27383.05614547 0 42.72550888 0 10600.56676002 0 1277.16241978 0 2219.67015405 0 5916
0.07350000 0.07351270 27692.61145229 0 222.77445454 0 8531.88107003 0 1685.56247381 0 1417.76552350 0 5721
0.07450000 0.07449140 27328.37654451 0 100.99743762 0 9004.88734628 0 1304.33585231 0 3642.14943625 0 6028
0.07550000 0.07549160 26790.67531646 0 777.85115173 0 8658.49817439 0 -367.72087098 0 2336.59355228 0 6183
0.07650000 0.07648840 26006.74951616 0 611.30019276 0 10311.60780593 0 148.89044607 0 5354.76333942 0 6330
0.07750000 0.07749960 24972.27357680 0 156.46351535 0 8867.75578721 0 739.95585912 0 4309.44020944 0 6583
0.07850000 0.07848650 25800.78598883 0 -224.34164067 0 10253.68957547 0 293.34774072 0 6114.51033037 0 6549
0.07950000 0.07947320 25916.68899694 0 -200.73291885 0 8335.68888721 0 1741.10718813 0 3219.47501175 0 6828
0.08050000 0.08048110 25817.20096032 0 514.97314726 0 9784.60958293 0 -1818.46828684 0 4015.46803433 0 7147
0.08150000 0.08149960 25076.75265205 0 563.70453929 0 8221.67138258 0 -708.30158303 0 1970.30677306 0 7386
0.08250000 0.08250610 24625.67367217 0 323.29286336 0 11095.30069109 0 -137.07832132 0 1364.10631266 0 7227
0.08350000 0.08350160 23824.33469266 0 572.91356012 0 9279.84920982 0 -628.87641256 0 -987.46368286 0 7798
0.08450000 0.08449610 23347.19139995 0 431.31668516 0 9572.29079975 0 1162.17998102 0 -14.18464269 0 7371
0.08550000 0.08548940 22675.95216064 0 172.00782787 0 8760.59264230 0 415.00264357 0 -2371.61955224 0 8256
0.08650000 0.08650700 22143.46379516 0 385.50116881 0 7433.09837076 0 1006.77123850 0 -1140.05304311 0 8037
0.08750000 0.08749060 21405.78828613 0 607.71440879 0 6737.30322141 0 -451.04792453 0 -3245.99406365 0 8155
0.08850000 0.08849210 20460.81830614 0 513.24846614 0 7602.25021542 0 -221.07861053 0 -657.19002013 0 8718
0.08950000 0.08949900 20378.18888888 0 94.05723204 0 7153.72221083 0 1180.61355035 0 -1730.49291265 0 8571
0.09050000 0.09049190 20447.84160571 0 -202.58736698 0 6771.81902631 0 810.02893232 0 -281.33819267 0 8932
0.09150000 0.09150830 20159.47048506 0 89.02293775 0 5370.00264403 0 1528.10075074 0 -273.32480287 0 9285
0.09250000 0.09250820 20134.62620389 0 186.08810240 0 6414.58266381 0 466.77413269 0 2640.92490534 0 9204
0.09350000 0.09350330 19913.24591281 0 348.34011343 0 5869.81634330 0 899.66244046 0 3646.97410692 0 9349
0.09450000 0.09448040 19558.21669850 0 471.63429519 0 7331.84683382 0 78.53232911 0 5017.43567544 0 9564
0.09550000 0.09549270 18927.79306396 0 647.08704883 0 6683.20036270 0 -603.63395743 0 4864.55461670 0 10155
0.09650000 0.09649430 18326.76110133 0 532.43512774 0 9504.82304872 0 -724.62671582 0 4978.88267484 0 9913
0.09750000 0.09749140 17557.80841691 0 453.15747019 0 9044.80456409 0 -1471.02545124 0 4154.52946167 0 10476
0.09850000 0.09850240 17318.68221071 0 395.27362244 0 9907.27822118 0 53.93549255 0 3803.06052158 0 10575
0.09950000 0.09950330 17379.79470590 0 -342.87104422 0 9572.71226524 0 700.29041147 0 2820.53574872 0 10882
0.10050000 0.10051200 17605.50056379 0 -281.72638456 0 9454.73520330 0 815.13421027 0 1912.36636021 0 10875
0.10150000 0.10150300 18102.94074692 0 107.53958014 0 8398.52051792 0 125.44920132 0 943.41499418 0 11118
0.10250000 0.10250800 17570.89602931 0 158.91245163 0 8572.37503008 0 -447.41888489 0 1085.75387021 0 11575
0.10350000 0.10349800 17166.62190055 0 422.47145560 0 7780.29720003 0 61.80458587 0 476.40461900 0 11364
0.10450000 0.10450100 16976.85152077 0 153.40899971 0 7956.31449560 0 525.75268158 0 740.20430193 0 12093
0.10550000 0.10551000 16799.61419353 0 217.31204005 0 7834.95461859 0 361.40332520 0 -86.96374612 0 12067
0.10650000 0.10649700 16225.97748737 0 146.59789566 0 6803.41784642 0 933.04805239 0 188.39063488 0 12054
0.10750000 0.10749900 16251.26541641 0 146.72322619 0 6707.98918788 0 554.77279839 0 868.25327982 0 12807
0.10850000 0.10850100 15734.30472666 0 76.80032780 0 5567.05994021 0 224.69988633 0 430.40387965 0 12736
0.10950000 0.10950300 15453.14288402 0 351.75287473 0 5967.07504934 0 232.84415225 0 -33.85232950 0 12933
0.11050000 0.11050200 14974.00317586 0 283.38008203 0 5818.26445989 0 -575.52775524 0 -418.00835794 0 13428
0.11150000 0.11150900 14994.41097824 0 217.54606430 0 5670.30789260 0 -82.95882581 0 -957.87458764 0 13453
0.11250000 0.11250000 14578.93474056 0 -26.44562818 0 5848.89834586 0 206.70885576 0 -1601.25828581 0 13668
0.11350000 0.11349100 14647.70016164 0 -28.21833419 0 5336.59595882 0 21.47244638 0 -1096.48903974 0 13791
0.11450000 0.11448600 15107.98483499 0 -17.63589044 0 5126.40668545 0 738.63933404 0 -1528.61094580 0 14205
0.11550000 0.11549300 14646.92377785 0 22.49627477 0 5196.13704067 0 -83.59579325 0 -851.42017021 0 14776
0.11650000 0.11649800 14896.80844510 0 157.30644632 0 5073.21330489 0 284.28512370 0 -690.55344967 0 14553
0.11750000 0.11747300 14802.20053513 0 54.12759208 0 5509.49662804 0 34.78376822 0 -481.17272456 0 14568
0.11850000 0.11849100 14321.61897136 0 305.36394350 0 5423.57312529 0 45.27282409 0 -155.09375253 0 16015
0.11950000 0.11950300 14412.89952225 0 230.40076156 0 5392.67305059 0 322.11054177 0 308.14117921 0 15270
0.12050000 0.12050700 13985.88843974 0 0.01019534 0 5428.55307272 0 389.96315734 0 1133.22086579 0 15999
0.12150000 0.12150000 14088.37109954 0 -0.11621023 0 4708.86748514 0 1383.54918091 0 891.27860468 0 15670
0.12250000 0.12250700 13647.16328494 0 192.84929606 0 4543.15391154 0 278.30031382 0 1741.21810010 0 16887
0.12350000 0.12352200 13367.77603381 0 216.16521028 0 3885.60120926 0 -85.82079827 0 1476.26049620 0 16407
0.12450000 0.12449800 13140.51740835 0 317.73950105 0 4601.80416100 0 -263.35381682 0 1927.80530636 0 16306
0.12550000 0.12549900 13020.06700949 0 200.03639168 0 4204.63948948 0 -54.70488888 0 1561.51852714 0 17523
0.12650000 0.12650100 12596.82693394 0 18.39053548 0 4161.22854462 0 202.23244868 0 1220.14257627 0 17154
0.12750000 0.12750600 12611.68913785 0 -3.83457061 0 4141.10911336 0 180.67670741 0 1014.72695407 0 18007
0.12850000 0.12850300 12829.18751001 0 -112.11092787 0 3544.83527423 0 641.79211141 0 1072.40006909 0 17496
0.12950000 0.12949900 12651.28471096 0 130.23394369 0 3926.20608129 0 -32.42023415 0 1394.20782118 0 18405
0.13050000 0.13049000 12797.57759871 0 169.71860482 0 3188.89658177 0 -249.16373944 0 1133.96397599 0 18100
0.13150000 0.13148800 12504.88091124 0 64.69816825 0 4266.90546915 0 89.97367515 0 1593.88263984 0 19059
0.13250000 0.13249300 12435.45001835 0 112.08763636 0 3498.44079739 0 147.50959205 0 781.49904641 0 18957
0.13350000 0.13349100 12435.00637047 0 69.24289711 0 3982.12789631 0 2.43928694 0 1082.58511524 0 19468
0.13450000 0.13450700 12098.83219097 0 293.49969012 0 3954.96555498 0 -442.45890162 0 569.66162118 0 19953
0.13550000 0.13551000 11769.97820145 0 199.03263836 0 4006.86126550 0 -105.98348521 0 1074.81462266 0 19956
0.13650000 0.13649900 11715.52042444 0 14.78212547 0 3728.74950202 0 460.18485258 0 167.56691261 0 19723
0.13750000 0.13749600 11719.95690322 0 -44.71404958 0 3592.58287709 0 770.07622267 0 664.52462867 0 20946
0.13850000 0.13851100 11707.97841051 0 5.16859760 0 2973.23934830 0 417.13326250 0 703.20850539 0 20955
0.13950000 0.13949800 11554.69806869 0 85.83776781 0 2656.35276030 0 291.04631736 0 840.47094058 0 20506
0.14050000 0.14048300 11357.71841089 0 193.79093868 0 2512.03410561 0 1.12557903 0 887.77267733 0 21447
0.14150000 0.14148400 11172.27359791 0 134.63603975 0 2703.36834416 0 -98.69590334 0 840.57187047 0 21771
0.14250000 0.14249400 10851.87110047 0 120.12542679 0 2669.37382551 0 42.39698763 0 872.10525252 0 22470
0.14350000 0.14350900 10893.13035312 0 79.17073841 0 2619.17506813 0 -17.71508159 0 1209.78339832 0 22519
0.14450000 0.14449900 10970.85746133 0 -28.32370056 0 2364.92046928 0 134.12695381 0 581.96619507 0 22218
0.14550000 0.14550500 11013.28128966 0 -25.80012052 0 2386.88103924 0 0.42212430 0 342.86217126 0 23559
0.14650000 0.14650700 10882.19443293 0 165.72355568 0 2850.03833260 0 -230.44623547 0 376.04481429 0 23044
0.14750000 0.14750500 10793.24303341 0 174.02309836 0 3039.12105818 0 -352.74553686 0 743.51613334 0 23649
0.14850000 0.14849900 10636.75733566 0 213.57985227 0 3586.92636665 0 -381.79781815 0 -119.58306726 0 23640
0.14950000 0.14949500 10408.58923204 0 197.67951233 0 3476.92387531 0 -72.69081750 0 486.84143532 0 24457
0.15050000 0.15050000 10260.94321827 0 122.03644002 0 3906.15319721 0 42.30382158 0 49.54925689 0 24591
0.15150000 0.15149900 10120.22920259 0 55.26909807 0 3590.48664087 0 140.34135146 0 281.37035714 0 25020
0.15250000 0.15250500 10204.97703847 0 -43.36491639 0 3678.18473514 0 317.81824855 0 205.42116780 0 25297
0.15350000 0.15350100 10065.12813615 0 99.65706647 0 3166.68091428 0 249.39887282 0 37.16682280 0 25452
0.15450000 0.15450400 9954.47126420 0 21.40656467 0 2957.75603736 0 158.12275841 0 433.33306477 0 26061
0.15550000 0.15549900 9901.91008186 0 61.26954653 0 2556.90908846 0 399.73893833 0 -296.84035864 0 26128
0.15650000 0.15649500 9805.19484447 0 261.67904608 0 2651.84973434 0 -205.61193639 0 71.29343760 0 26331
0.15750000 0.15749700 9263.97770699 0 268.55226083 0 2582.67393897 0 -120.55909259 0 -384.42199535 0 27345
0.15850000 0.15849900 9046.57915561 0 197.49207110 0 2942.89383345 0 71.25561662 0 194.40317275 0 26980
0.15950000 0.15949700 8794.85334967 0 68.44765829 0 2447.98244323 0 81.95207787 0 -150.65505551 0 27777
0.16050000 0.16050000 8776.15359161 0 84.96300510 0 2473.82493212 0 460.61186366 0 318.81423804 0 28224
0.16150000 0.16150500 8672.99436880 0 -10.72776061 0 2495.12003026 0 256.18003063 0 420.31532691 0 28075
0.16250000 0.16249700 8711.19245109 0 -15.76158907 0 1812.66759084 0 475.95320728 0 346.35146182 0 28590
0.16350000 0.16349900 8720.07649984 0 48.37381184 0 2211.20757078 0 30.16295375 0 957.45644951 0 29163
0.16450000 0.16449100 8593.55921626 0 56.56321893 0 1716.95056118 0 -128.06117820 0 975.27556653 0 28996
0.16550000 0.16550500 8731.95517178 0 -31.60458753 0 1901.59680797 0 187.04416357 0 705.73397094 0 30777
0.16650000 0.16650700 8716.53840802 0 74.59284687 0 1734.17519004 0 -209.30641409 0 435.22744121 0 29211
0.16750000 0.16749900 8559.15432332 0 188.36845249 0 2146.06897110 0 -183.42288777 0 381.96529522 0 30922
0.16850000 0.16850800 8396.22464015 0 128.48375281 0 2236.49549982 0 -180.55359512 0 282.08795758 0 30867
0.16950000 0.16949900 8235.50210518 0 162.87533630 0 2185.73109139 0 129.55294419 0 511.65909762 0 30852
0.17050000 0.17049200 8128.84915532 0 167.56025790 0 2582.28574708 0 2.16016588 0 426.54636135 0 31257
0.17150000 0.17149500 7967.38351015 0 57.15193967 0 2260.67430917 0 99.34806572 0 578.23511642 0 32608
0.17250000 0.17250900 7919.03698265 0 -30.51343557 0 2169.84849736 0 416.35687872 0 780.85575699 0 32361
0.17350000 0.17350400 7879.17522082 0 0.51852122 0 1875.69886310 0 165.27214396 0 842.46513779 0 32508
0.17450000 0.17449800 7872.18776674 0 77.52380657 0 1683.87661188 0 36.97749607 0 744.94800687 0 32791
0.17550000 0.17549800 7847.53203593 0 63.97413491 0 1881.06700242 0 22.16553528 0 526.46695466 0 33633
0.17650000 0.17650100 7734.71238057 0 42.90762634 0 1627.36696342 0 -32.48545039 0 478.18475611 0 33984
0.17750000 0.17750300 7676.82742370 0 43.36325271 0 1755.30392022 0 -264.61710415 0 258.45150777 0 34069
0.17850000 0.17849800 7586.15688865 0 108.62596288 0 1530.18589576 0 33.77812939 0 25.97314319 0 34536
