### header ###
fiducial parameters:
Omega_m = 0.31
Omega_nu = 0
Omega_de = 0.69
Omega_k = 0
H_0 = 100
w_de = -1
zeff = 0
beta = 0
fgrowth = 0
b_1 = 2
gamma = 0.55
Lx = 3500 Ly = 3500 Lz = 3500
nx = 700 ny = 700 nz = 700
xoffset = 1379.75464 yoffset = 22.6059522 zoffset = 368.141391
bins = 400 dk = 0.001
kx_ny = 0.628318531 ky_ny = 0.628318531 kz_ny = 0.628318531
############################
A(data) = 3.37827837 (not used)
A(ran) = 3.37499746 (used)
Ngal = 189309
weighted Ngal = 0
Nran = 9399747
weighted Nran = 0
SN(data) = 6604.0165
SN(ran) = 134.241816
SN(data+ran) = 6738.25832
############################
13 columns: k_central k_mean P_0(k) sigma^{lin}_{P_0(k)} P^img_1(k) sigma^{lin}_{P_1(k)} P_2(k) sigma^{lin}_{P_2(k)} P^img_3(k) sigma^{lin}_{P_3(k)} P_4(k) sigma^{lin}_{P_4(k)} N_modes
### header ###
0.00050000 0 0 0 0 0 0 0 0 0 0 0 0
0.00150000 0.00179520 22270.45800021 0 -12511.42471744 0 16051.29113544 0 -54966.97386767 0 79160.31268279 0 3
0.00250000 0.00253879 43086.30552067 0 -19066.32211384 0 -48077.23323540 0 23073.23883533 0 4951.22122966 0 6
0.00350000 0.00331552 54749.25367157 0 -20056.21144147 0 -14188.85734389 0 -39614.87178784 0 -3858.39450315 0 7
0.00450000 0.00420575 63914.24244580 0 -9820.94434414 0 -46101.00376317 0 -16309.93784827 0 -11171.94086201 0 24
0.00550000 0.00557378 62151.74033875 0 5104.60139225 0 -21866.84934327 0 -30790.60458387 0 -2409.68454017 0 45
0.00650000 0.00659388 55796.48448742 0 11259.56131790 0 -18425.14001827 0 -49297.15398773 0 -17222.07788529 0 40
0.00750000 0.00754703 47065.93789766 0 6018.67129754 0 17811.68591506 0 -3649.50289983 0 4277.00954957 0 57
0.00850000 0.00846663 47986.83998027 0 -3073.45940393 0 10385.10916810 0 12433.23177896 0 4435.39184199 0 75
0.00950000 0.00948925 57315.64573342 0 -13987.21938337 0 -7822.39938364 0 29400.54487035 0 24914.71026464 0 112
0.01050000 0.01054430 67741.48177672 0 -2919.20303677 0 594.58908632 0 3240.02699970 0 -3894.21906929 0 105
0.01150000 0.01145670 73829.88342948 0 5515.57460397 0 5868.21921094 0 -5117.65573106 0 46609.64605521 0 144
0.01250000 0.01249090 66161.76259538 0 101.11855349 0 3508.63360739 0 20371.31234677 0 39627.84848827 0 169
0.01350000 0.01339930 66132.37092347 0 -4472.64717254 0 25459.73168268 0 22113.73938734 0 89429.09737731 0 180
0.01450000 0.01448870 80577.65674081 0 -10121.90397333 0 -15655.11358045 0 37376.44641975 0 70078.28606174 0 267
0.01550000 0.01550050 84909.43462090 0 -9064.50252987 0 -1655.19477657 0 17202.77920260 0 49960.74030115 0 238
0.01650000 0.01653350 90444.60736988 0 6518.99519188 0 -23534.63262837 0 -18325.09742179 0 65602.65535722 0 315
0.01750000 0.01747870 76417.90332538 0 11297.27138752 0 14345.24322086 0 -20669.11098483 0 46202.93186312 0 297
0.01850000 0.01844180 73581.21879390 0 6768.14784012 0 18614.24492623 0 -18063.89973366 0 52006.17884234 0 388
0.01950000 0.01947590 69595.92990646 0 -5848.46578918 0 18378.22425517 0 23226.29735321 0 22279.77460565 0 399
0.02050000 0.02045430 80231.94413193 0 -8408.22531525 0 10884.64558746 0 10556.53470814 0 26215.26401879 0 462
0.02150000 0.02154770 82462.16201428 0 607.75988269 0 -3983.10392164 0 -1172.76098291 0 15402.12337806 0 571
0.02250000 0.02255340 83472.57005626 0 4210.30709112 0 12501.55355216 0 -5287.25122360 0 21389.70605056 0 510
0.02350000 0.02348930 77600.44674400 0 2505.55684659 0 16075.58085675 0 -11197.33970302 0 9917.88140546 0 555
0.02450000 0.02439640 77458.14668715 0 1391.29083638 0 13901.81716687 0 4469.00925994 0 1080.84379732 0 592
0.02550000 0.02547300 75669.58026728 0 1456.68453359 0 14502.07274571 0 -4287.06926520 0 1526.92508386 0 837
0.02650000 0.02652900 73867.48258713 0 1281.56562497 0 17090.97993736 0 -5999.26170288 0 -16238.28871598 0 723
0.02750000 0.02749970 72031.00219645 0 1947.09289785 0 19748.20890222 0 1315.16086053 0 -8469.84800549 0 826
0.02850000 0.02848090 71866.40883373 0 386.60807026 0 22566.81478267 0 -8914.54954713 0 -24780.28495763 0 831
0.02950000 0.02946900 71968.66966960 0 2769.95989064 0 20182.09652683 0 -4282.05604418 0 -21199.49202289 0 996
0.03050000 0.03053250 66798.73003612 0 2834.90993997 0 26574.50788794 0 -2512.37793271 0 -22790.85696102 0 1041
0.03150000 0.03150510 64135.17908901 0 781.00770638 0 19017.74267121 0 514.81121579 0 -23649.20469285 0 1036
0.03250000 0.03246190 63969.03295872 0 -551.18257794 0 21747.50806411 0 12892.40733261 0 -14027.03678042 0 1059
0.03350000 0.03345080 63409.26024874 0 -89.61176939 0 15135.49100342 0 5185.80004511 0 -21611.52998952 0 1302
0.03450000 0.03451200 61843.29415162 0 2064.54867353 0 17663.72934777 0 1315.74869397 0 -7231.93733171 0 1339
0.03550000 0.03553350 60136.35894129 0 2778.96594256 0 11009.98720417 0 4174.52688977 0 -3970.51541310 0 1365
0.03650000 0.03647120 54058.71574958 0 2232.62467209 0 15034.45019922 0 -801.09719142 0 1964.58371544 0 1308
0.03750000 0.03744890 51741.43197118 0 3962.06392103 0 12172.47773870 0 -1138.18972202 0 2470.05392516 0 1579
0.03850000 0.03847530 46655.00905073 0 2243.50513629 0 20310.53258749 0 719.45821804 0 3532.93441990 0 1662
0.03950000 0.03950240 43779.39441796 0 1244.52102717 0 16194.81122395 0 -417.87859094 0 6814.89723526 0 1683
0.04050000 0.04050350 43190.56277198 0 546.50985667 0 19832.28017509 0 3520.06863144 0 4816.47427793 0 1822
0.04150000 0.04152450 45227.35017955 0 -1026.19636084 0 16696.46606192 0 1147.38432429 0 4352.25222966 0 1887
0.04250000 0.04250150 44102.03733719 0 -51.71703134 0 16948.34714461 0 -658.82929904 0 1835.94801323 0 1920
0.04350000 0.04349210 45116.10547416 0 1006.72354636 0 19090.61183516 0 -2280.92683480 0 2626.00724545 0 2005
0.04450000 0.04448520 44321.75394873 0 819.52521515 0 19459.83778156 0 -1217.95761048 0 -1019.61928105 0 2151
0.04550000 0.04548030 44764.29270697 0 436.63491410 0 21760.48476453 0 414.38819126 0 1006.47288531 0 2274
0.04650000 0.04648670 43454.42234738 0 212.58940839 0 22116.95583445 0 2213.01543588 0 1546.06848979 0 2311
0.04750000 0.04749250 43176.92059974 0 1659.05451311 0 23700.22419881 0 1922.35952866 0 5541.28399850 0 2568
0.04850000 0.04851840 41489.28407209 0 475.14354990 0 22470.43228119 0 2918.78157129 0 6455.90846364 0 2493
0.04950000 0.04949480 41691.58750443 0 535.31551159 0 23671.94164659 0 2461.09223802 0 11184.80665047 0 2644
0.05050000 0.05050630 39964.02266777 0 1227.03020958 0 21517.47663940 0 609.58549371 0 9199.61549110 0 2829
0.05150000 0.05149060 38156.71212506 0 1946.21669329 0 24121.24603496 0 -416.27591298 0 10683.06308292 0 2784
0.05250000 0.05249300 34810.38709381 0 1369.57427276 0 21961.78998915 0 -729.03768484 0 6891.17139667 0 3055
0.05350000 0.05348950 36204.10690233 0 -320.69752328 0 25320.75898491 0 1608.81139093 0 8332.58335206 0 3009
0.05450000 0.05448610 35140.23929105 0 -650.90352970 0 19450.96482401 0 2200.43801854 0 861.25917102 0 3336
0.05550000 0.05550870 36017.55296966 0 -8.04901472 0 20771.37182069 0 817.27370216 0 1557.48133145 0 3349
0.05650000 0.05647670 37113.69596405 0 -507.68512175 0 15238.63913504 0 1502.96809845 0 -1615.89866578 0 3324
0.05750000 0.05747970 36378.90416623 0 -215.43319128 0 14828.15393599 0 610.50384482 0 -3523.99491516 0 3639
0.05850000 0.05849280 36466.74644606 0 437.19612866 0 13898.15707188 0 391.47156013 0 -3348.14398755 0 3846
0.05950000 0.05951020 35944.90562965 0 412.31746479 0 12882.31434339 0 720.50079055 0 -4793.31585870 0 3787
0.06050000 0.06049470 34899.89305319 0 1118.40302667 0 13830.83350640 0 -748.56817355 0 -4398.42488256 0 3930
0.06150000 0.06148310 33435.85505602 0 1431.14150702 0 13255.20038479 0 -392.82135879 0 -2815.74435164 0 4083
0.06250000 0.06249100 31686.99512122 0 739.49335621 0 13812.97667932 0 1086.44817914 0 -4642.51994500 0 4303
0.06350000 0.06350600 31894.40050416 0 586.61118835 0 14221.35455095 0 836.81417295 0 -938.92749589 0 4470
0.06450000 0.06451750 30516.87384319 0 515.23379039 0 15081.25505035 0 -75.04503497 0 -1627.37805462 0 4479
0.06550000 0.06550280 29967.97050622 0 388.16971079 0 15466.78505627 0 385.76957577 0 104.75258417 0 4636
0.06650000 0.06648880 30003.01868858 0 156.82508837 0 14519.04227704 0 1244.66521273 0 301.11046947 0 4653
0.06750000 0.06749660 30191.79086063 0 -297.68772609 0 14975.44503146 0 1776.05554971 0 787.13448358 0 5220
0.06850000 0.06852730 29808.81183001 0 -29.27388340 0 14429.53631767 0 1351.37361857 0 3227.95977742 0 5029
0.06950000 0.06949320 30451.87942907 0 -264.45295443 0 10711.20144958 0 2497.80409992 0 2864.15742632 0 5040
0.07050000 0.07048030 30360.93161410 0 -198.42040428 0 10845.58239180 0 1177.98493667 0 5222.47863342 0 5475
0.07150000 0.07148790 30691.22745921 0 329.34865690 0 10484.47520156 0 1741.62847439 0 3663.85490868 0 5509
0.07250000 0.07249820 29317.47180521 0 715.69719315 0 9188.04737268 0 -329.73130319 0 4887.64648875 0 5916
0.07350000 0.07351270 28476.31542865 0 1049.87495720 0 9400.35506466 0 263.47138351 0 4626.97008687 0 5721
0.07450000 0.07449140 27445.72140822 0 774.82103673 0 10492.90451124 0 890.46229259 0 5051.53001486 0 6028
0.07550000 0.07549160 26323.73592494 0 437.43791676 0 9825.10354299 0 108.08515612 0 6420.69391333 0 6183
0.07650000 0.07648840 25907.15056757 0 596.22171051 0 9226.61146447 0 518.25281420 0 2985.48402973 0 6330
0.07750000 0.07749960 25433.55645788 0 209.22877571 0 10691.52566619 0 -625.98826488 0 5360.41984986 0 6583
0.07850000 0.07848650 24162.17255170 0 451.40506107 0 8368.70738052 0 384.08038648 0 2560.66900422 0 6549
0.07950000 0.07947320 24908.72101829 0 -112.28949614 0 10483.48808504 0 -424.87380885 0 3302.09333782 0 6828
0.08050000 0.08048110 24918.70309554 0 -37.16870830 0 10095.14091509 0 -595.28339525 0 -364.84159625 0 7147
0.08150000 0.08149960 24614.13882734 0 480.70356693 0 9318.65730794 0 -116.05052103 0 -134.10144406 0 7386
0.08250000 0.08250610 23916.28071536 0 611.45879688 0 9597.63418478 0 -971.37035608 0 -1907.23113602 0 7227
0.08350000 0.08350160 23815.57264707 0 108.22701253 0 10179.98857174 0 355.54384585 0 -1117.08317423 0 7798
0.08450000 0.08449610 23174.72328740 0 94.20019757 0 9148.32979641 0 1787.08019948 0 -307.31044856 0 7371
0.08550000 0.08548940 23345.52772041 0 -18.19266853 0 8290.01533818 0 1477.62471343 0 -417.99393939 0 8256
0.08650000 0.08650700 22843.20741062 0 393.41362871 0 7618.85373725 0 617.91165526 0 428.04921854 0 8037
0.08750000 0.08749060 22679.94499154 0 291.90033952 0 7231.31622468 0 644.29206720 0 688.81324087 0 8155
0.08850000 0.08849210 21549.08655070 0 249.10939258 0 7439.71981534 0 476.21495953 0 2535.79144947 0 8718
0.08950000 0.08949900 21587.01844426 0 252.51328092 0 6760.39509346 0 1079.08916997 0 1508.52478812 0 8571
0.09050000 0.09049190 21641.25439734 0 87.39120085 0 6359.23759104 0 193.63898928 0 2133.48046257 0 8932
0.09150000 0.09150830 21262.04637368 0 267.25126342 0 6412.89680187 0 -267.73483961 0 1974.92071099 0 9285
0.09250000 0.09250820 20554.20618445 0 456.10994682 0 6696.15488073 0 696.64029856 0 2517.94571358 0 9204
0.09350000 0.09350330 20373.30876222 0 -124.20587814 0 5448.15121772 0 411.33478474 0 2632.09631257 0 9349
0.09450000 0.09448040 20559.41904701 0 -17.89742087 0 5852.66935282 0 1386.66580725 0 2996.49758830 0 9564
0.09550000 0.09549270 20120.20764786 0 423.97653102 0 5076.07483370 0 -446.00919376 0 2066.36762983 0 10155
0.09650000 0.09649430 19498.43514694 0 694.71153941 0 6320.93968797 0 -780.44316446 0 2620.59474134 0 9913
0.09750000 0.09749140 18734.91714903 0 488.16461512 0 6554.89739640 0 -900.47320695 0 2132.72626117 0 10476
0.09850000 0.09850240 18599.60454626 0 214.13441212 0 6388.88436048 0 324.76022872 0 662.22209619 0 10575
0.09950000 0.09950330 18234.37143076 0 1.62503781 0 7387.55791609 0 -363.19011703 0 803.26108394 0 10882
0.10050000 0.10051200 18067.67074062 0 135.45346097 0 5969.00491761 0 660.22457162 0 260.84609719 0 10875
0.10150000 0.10150300 18180.46821359 0 118.49723908 0 6905.60104390 0 472.64248499 0 495.54913405 0 11118
0.10250000 0.10250800 17807.13852431 0 42.28541019 0 5241.11184429 0 587.59719576 0 896.03450993 0 11575
0.10350000 0.10349800 17640.10509827 0 222.63248722 0 5786.64345739 0 580.00970793 0 445.70862232 0 11364
0.10450000 0.10450100 17763.99376818 0 142.57622765 0 5220.26039403 0 432.69864830 0 1348.87809925 0 12093
0.10550000 0.10551000 16979.51340803 0 193.54027763 0 4480.96557025 0 481.39565762 0 532.49502020 0 12067
0.10650000 0.10649700 16930.04666964 0 401.35270749 0 4745.18006395 0 183.93973755 0 2040.00385469 0 12054
0.10750000 0.10749900 16198.69314288 0 217.65364891 0 4369.51013212 0 140.79941790 0 1958.49464831 0 12807
0.10850000 0.10850100 16013.02650597 0 76.67488636 0 4228.52992771 0 804.69850306 0 2038.48436070 0 12736
0.10950000 0.10950300 15969.54901393 0 181.48192830 0 3936.07724658 0 -7.68998158 0 1850.12256293 0 12933
0.11050000 0.11050200 15849.32043901 0 280.59619159 0 3951.77129026 0 -148.82944449 0 1806.30124379 0 13428
0.11150000 0.11150900 15168.09912245 0 129.36772120 0 4216.32961106 0 51.46226654 0 2760.04436057 0 13453
0.11250000 0.11250000 15301.63713371 0 399.42283922 0 4399.31217832 0 -739.42902726 0 1193.32406205 0 13668
0.11350000 0.11349100 14761.60675430 0 96.84267524 0 4792.75020766 0 136.29971930 0 1814.59745911 0 13791
0.11450000 0.11448600 14670.99167523 0 235.07237372 0 5350.43777261 0 -470.95218658 0 444.13921795 0 14205
0.11550000 0.11549300 14547.21391729 0 -27.12673858 0 4595.61527310 0 343.19047069 0 1493.03038599 0 14776
0.11650000 0.11649800 14759.83216279 0 -282.44176677 0 4512.13183367 0 1080.22490853 0 835.22813178 0 14553
0.11750000 0.11747300 14820.16827418 0 -82.17689643 0 4091.68673976 0 487.57012696 0 1761.68135847 0 14568
0.11850000 0.11849100 14866.30765349 0 265.93141099 0 3161.30168376 0 466.62329241 0 1495.15989580 0 16015
0.11950000 0.11950300 14487.09962983 0 190.80851582 0 3412.18455873 0 -94.59049679 0 1384.49193265 0 15270
0.12050000 0.12050700 13963.15148600 0 592.42630291 0 3815.95958363 0 -728.77593260 0 1269.28766995 0 15999
0.12150000 0.12150000 13530.37298108 0 490.83315711 0 4110.33104183 0 -394.89097614 0 687.21832675 0 15670
0.12250000 0.12250700 12811.88524277 0 163.57075435 0 4593.49685449 0 95.50563145 0 1780.19256617 0 16887
0.12350000 0.12352200 12764.96947968 0 154.04008882 0 4102.37865362 0 222.60697747 0 328.66876653 0 16407
0.12450000 0.12449800 12747.77812441 0 -17.79172176 0 4259.85146789 0 326.74777121 0 1198.50365103 0 16306
0.12550000 0.12549900 12638.75165841 0 76.18310269 0 3855.57733913 0 -2.57946858 0 800.28198844 0 17523
0.12650000 0.12650100 12801.79225355 0 -108.90934296 0 4209.65271050 0 515.78502288 0 1762.79047816 0 17154
0.12750000 0.12750600 12788.59372918 0 -127.84489986 0 3484.88735472 0 504.99550649 0 1243.65591380 0 18007
0.12850000 0.12850300 13066.87186061 0 48.67016862 0 3458.03556691 0 66.19936175 0 1202.78485305 0 17496
0.12950000 0.12949900 12843.71697801 0 196.56817439 0 3849.93191988 0 -440.20184304 0 1336.62232662 0 18405
0.13050000 0.13049000 12762.19668044 0 123.56813432 0 3878.46956963 0 -244.06178885 0 1092.71470542 0 18100
0.13150000 0.13148800 12793.14111993 0 80.70165632 0 4207.37901513 0 51.92000024 0 1527.36873174 0 19059
0.13250000 0.13249300 12409.38570552 0 85.00925539 0 4382.52010614 0 19.66757590 0 1059.62301020 0 18957
0.13350000 0.13349100 12649.51011945 0 194.48968409 0 4389.59628979 0 53.25160935 0 964.60694419 0 19468
0.13450000 0.13450700 12210.29872030 0 193.09108415 0 4838.47921268 0 -110.53775250 0 1061.82350368 0 19953
0.13550000 0.13551000 12216.17705468 0 136.06569504 0 4585.54446627 0 201.83871118 0 2118.08588120 0 19956
0.13650000 0.13649900 11929.80234948 0 -43.74246073 0 4529.10136500 0 495.39052993 0 1579.70809014 0 19723
0.13750000 0.13749600 12233.14658601 0 -10.02712970 0 4431.86484136 0 353.23576777 0 1324.21127724 0 20946
0.13850000 0.13851100 11904.62533241 0 84.15700782 0 3523.81745601 0 454.56827044 0 1961.37835952 0 20955
0.13950000 0.13949800 11962.07773260 0 77.78212055 0 3715.44006569 0 10.29243113 0 2062.07533661 0 20506
0.14050000 0.14048300 11782.62216597 0 -10.27979825 0 3486.77285820 0 369.18047250 0 2022.75704343 0 21447
0.14150000 0.14148400 11812.79022167 0 78.08457749 0 3418.30689944 0 173.44968347 0 1239.04197587 0 21771
0.14250000 0.14249400 11627.56723264 0 86.61182244 0 2789.23639093 0 -80.31401899 0 1612.63785388 0 22470
0.14350000 0.14350900 11637.88204580 0 27.18352551 0 3171.40576418 0 231.96905681 0 1433.35974641 0 22519
0.14450000 0.14449900 11421.16005743 0 163.16370742 0 2633.91526887 0 -126.12576434 0 695.90606132 0 22218
0.14550000 0.14550500 11226.06590311 0 165.42742072 0 2846.89952387 0 37.05979275 0 805.08225848 0 23559
0.14650000 0.14650700 11061.63890836 0 133.53135654 0 2551.43003717 0 -168.61392161 0 198.16752499 0 23044
0.14750000 0.14750500 10634.15090438 0 315.75972240 0 2809.63310212 0 -139.40303620 0 125.21517707 0 23649
0.14850000 0.14849900 10471.54286592 0 213.79391237 0 2916.98479738 0 -185.03111133 0 -281.71085689 0 23640
0.14950000 0.14949500 10107.20813737 0 249.90463140 0 2776.95843591 0 89.08970675 0 127.50329100 0 24457
0.15050000 0.15050000 9961.99109573 0 -39.71912904 0 2576.24104474 0 283.03625492 0 -162.55480071 0 24591
0.15150000 0.15149900 9949.40258719 0 -2.87496025 0 2596.84848867 0 153.54874879 0 -630.35154176 0 25020
0.15250000 0.15250500 9844.74605279 0 171.85920583 0 2382.92148193 0 -186.20123261 0 -700.59098291 0 25297
0.15350000 0.15350100 9652.04759701 0 63.89328008 0 2606.07636453 0 -142.43315121 0 -741.75263302 0 25452
0.15450000 0.15450400 9596.65815945 0 131.97082513 0 2246.96558974 0 149.49935278 0 -671.07952607 0 26061
0.15550000 0.15549900 9617.93107520 0 1.23163306 0 2378.77337427 0 51.62331072 0 -662.90753216 0 26128
0.15650000 0.15649500 9521.84803603 0 50.00632512 0 2253.74231108 0 131.02030955 0 -779.86198574 0 26331
0.15750000 0.15749700 9545.48337673 0 149.93412771 0 2514.86236083 0 -223.10719045 0 -901.92282639 0 27345
0.15850000 0.15849900 9362.23462075 0 6.27212733 0 2264.65604887 0 -46.07837772 0 -916.67744569 0 26980
0.15950000 0.15949700 9495.70608483 0 -18.34517249 0 2491.55975604 0 -21.48497943 0 -1092.75130637 0 27777
0.16050000 0.16050000 9475.44246800 0 73.08178220 0 2215.08948971 0 1.95708607 0 -1085.17269149 0 28224
0.16150000 0.16150500 9297.30675382 0 196.75561562 0 2432.67659144 0 -192.56868877 0 -1443.18654690 0 28075
0.16250000 0.16249700 9131.33808268 0 116.83577777 0 2166.08858159 0 117.19291431 0 -1232.58689925 0 28590
0.16350000 0.16349900 9023.98638742 0 24.60293672 0 2376.82132361 0 415.00597093 0 -616.91455665 0 29163
0.16450000 0.16449100 9008.96890675 0 9.93898795 0 2093.68524792 0 530.55738810 0 -808.82553745 0 28996
0.16550000 0.16550500 9060.74261411 0 -41.98761155 0 1866.16043372 0 253.53810752 0 -157.70240205 0 30777
0.16650000 0.16650700 8910.01324758 0 121.22012793 0 1539.21413008 0 147.50293733 0 -301.70384851 0 29211
0.16750000 0.16749900 8939.33837231 0 60.58943434 0 1710.42893737 0 -154.59021218 0 655.67274439 0 30922
0.16850000 0.16850800 8786.53495196 0 89.87640535 0 1898.21399290 0 49.28262452 0 257.07952670 0 30867
0.16950000 0.16949900 8775.04447192 0 125.60891456 0 1911.39033487 0 26.57938801 0 858.19134595 0 30852
0.17050000 0.17049200 8605.78171529 0 173.32546207 0 2322.20826984 0 -251.52172791 0 137.91903405 0 31257
0.17150000 0.17149500 8464.55750455 0 261.79217629 0 2437.43471493 0 -298.71477093 0 580.96022351 0 32608
0.17250000 0.17250900 8169.60930411 0 103.71211898 0 2722.37865573 0 -21.87849510 0 654.97399898 0 32361
0.17350000 0.17350400 8101.58699322 0 47.52577892 0 2587.99771350 0 139.01151695 0 360.58257662 0 32508
0.17450000 0.17449800 8018.05918901 0 55.89586161 0 2581.77555202 0 208.01096229 0 384.77469541 0 32791
0.17550000 0.17549800 7973.41712129 0 83.34790500 0 2474.37949197 0 66.49128206 0 404.84754364 0 33633
0.17650000 0.17650100 7887.12760903 0 -11.39343207 0 2057.46139868 0 252.03081385 0 346.76405435 0 33984
0.17750000 0.17750300 7951.53418971 0 -104.28043191 0 1825.61101768 0 366.63726104 0 347.38848873 0 34069
0.17850000 0.17849800 7953.95207065 0 34.09877590 0 1503.62247907 0 303.22777897 0 345.66491673 0 34536
