### header ###
fiducial parameters:
Omega_m = 0.31
Omega_nu = 0
Omega_de = 0.69
Omega_k = 0
H_0 = 100
w_de = -1
zeff = 0
beta = 0
fgrowth = 0
b_1 = 2
gamma = 0.55
Lx = 3500 Ly = 3500 Lz = 3500
nx = 700 ny = 700 nz = 700
xoffset = 1379.75464 yoffset = 22.6059522 zoffset = 368.141391
bins = 400 dk = 0.001
kx_ny = 0.628318531 ky_ny = 0.628318531 kz_ny = 0.628318531
############################
A(data) = 3.40463733 (not used)
A(ran) = 3.41057275 (used)
Ngal = 191585
weighted Ngal = 0
Nran = 9399747
weighted Nran = 0
SN(data) = 6612.67353
SN(ran) = 135.656837
SN(data+ran) = 6748.33037
############################
13 columns: k_central k_mean P_0(k) sigma^{lin}_{P_0(k)} P^img_1(k) sigma^{lin}_{P_1(k)} P_2(k) sigma^{lin}_{P_2(k)} P^img_3(k) sigma^{lin}_{P_3(k)} P_4(k) sigma^{lin}_{P_4(k)} N_modes
### header ###
0.00050000 0 0 0 0 0 0 0 0 0 0 0 0
0.00150000 0.00179520 60468.31846595 0 -68386.10214335 0 -91194.37228358 0 97332.12976276 0 114727.34123241 0 3
0.00250000 0.00253879 65757.93211450 0 -41710.66436318 0 -6529.86456489 0 -123840.97776477 0 -76147.94359166 0 6
0.00350000 0.00331552 90451.70573593 0 -191.16121588 0 -79965.75540517 0 -1945.97268696 0 10729.14700624 0 7
0.00450000 0.00420575 93004.56653750 0 11059.08793306 0 -27787.55209817 0 -60460.55462809 0 -7323.96099279 0 24
0.00550000 0.00557378 65864.51851717 0 16012.02829824 0 -4243.18139888 0 -23225.07732155 0 17788.28348950 0 45
0.00650000 0.00659388 48625.91474843 0 2245.00244788 0 16828.34039363 0 26166.57366419 0 17902.30099413 0 40
0.00750000 0.00754703 40918.86381305 0 -1304.59094984 0 -1040.85781408 0 33742.74847558 0 20948.83097186 0 57
0.00850000 0.00846663 59297.08806822 0 -14079.83087789 0 -18436.00939127 0 28721.20905727 0 29066.36710630 0 75
0.00950000 0.00948925 60774.76823763 0 -10984.08925929 0 -15961.89608803 0 4433.49524731 0 20130.41154905 0 112
0.01050000 0.01054430 81645.84991889 0 -4006.59507677 0 -32960.26453088 0 -24291.38499615 0 15375.94815326 0 105
0.01150000 0.01145670 80276.53074366 0 7170.80265413 0 13952.50393693 0 -39929.63995724 0 12363.13541424 0 144
0.01250000 0.01249090 75164.59807023 0 11492.80918972 0 31350.04455794 0 -31514.19427277 0 2305.22764731 0 169
0.01350000 0.01339930 65301.19662417 0 5879.08858395 0 75875.54379461 0 -10508.02181269 0 -185.59898061 0 180
0.01450000 0.01448870 65370.51660510 0 809.79934454 0 64966.13156437 0 15939.49187020 0 -1332.81804607 0 267
0.01550000 0.01550050 78449.92151826 0 -3136.01375472 0 85345.09683703 0 21384.38227602 0 7672.01384422 0 238
0.01650000 0.01653350 78320.04360200 0 -4527.39332067 0 49311.79436771 0 28719.76720167 0 18516.08783324 0 315
0.01750000 0.01747870 86353.73028750 0 -4812.55908541 0 55606.27045976 0 19578.06994103 0 30998.23179074 0 297
0.01850000 0.01844180 80273.31429655 0 5452.46569334 0 36617.36490062 0 5708.23978616 0 20292.56484844 0 388
0.01950000 0.01947590 81888.74713206 0 1097.29536976 0 33289.00760843 0 4556.68517181 0 23327.33815741 0 399
0.02050000 0.02045430 74068.12233993 0 4128.55387842 0 35175.06564947 0 8542.00733284 0 18946.64809877 0 462
0.02150000 0.02154770 70431.87342045 0 1828.22854016 0 28667.30584010 0 -741.56962827 0 9369.64354031 0 571
0.02250000 0.02255340 69122.11397283 0 4480.59956075 0 23085.99371182 0 -1406.80742091 0 3615.73020512 0 510
0.02350000 0.02348930 63425.89704417 0 1997.12528728 0 26978.11654489 0 -3900.99579063 0 -7167.83021335 0 555
0.02450000 0.02439640 59654.22460995 0 2687.35265577 0 29438.25493997 0 -9254.43927761 0 -15535.43956538 0 592
0.02550000 0.02547300 58233.22045695 0 4616.52217935 0 33649.58242121 0 -5340.32260099 0 -13438.31604641 0 837
0.02650000 0.02652900 53219.77761241 0 614.31367097 0 35596.19839760 0 2431.62292773 0 -15797.74637320 0 723
0.02750000 0.02749970 54033.31690856 0 -78.12506036 0 36112.71543947 0 6723.47249882 0 -14469.57553865 0 826
0.02850000 0.02848090 54837.65051125 0 310.46922145 0 33630.39465049 0 7857.93557866 0 -10917.10952092 0 831
0.02950000 0.02946900 55027.42089103 0 1571.93316108 0 40630.82542830 0 2586.16766601 0 1038.06394157 0 996
0.03050000 0.03053250 51514.06243375 0 314.18144507 0 31049.25129670 0 -318.62125121 0 2830.61764675 0 1041
0.03150000 0.03150510 54512.12388082 0 1265.76066932 0 36759.77586943 0 4488.05284510 0 -733.77140770 0 1036
0.03250000 0.03246190 50665.91860311 0 -75.47370973 0 32115.66988327 0 2106.83940750 0 1461.89739615 0 1059
0.03350000 0.03345080 53891.12776369 0 261.43503975 0 38562.98266928 0 -944.88125041 0 1559.17828459 0 1302
0.03450000 0.03451200 52135.94584663 0 -122.19060766 0 35447.79818243 0 1591.91949798 0 -680.77323220 0 1339
0.03550000 0.03553350 53595.76918896 0 -388.44920896 0 32711.37807136 0 2039.70439237 0 -5458.69894602 0 1365
0.03650000 0.03647120 52983.09146954 0 1259.61614621 0 31518.63075155 0 -25.60480454 0 -7929.20761025 0 1308
0.03750000 0.03744890 53178.29653583 0 562.75069636 0 35919.17405273 0 424.30372133 0 -5154.71142007 0 1579
0.03850000 0.03847530 49806.90539947 0 1781.95606649 0 28524.67304735 0 787.57924058 0 -12777.39162026 0 1662
0.03950000 0.03950240 50088.39997802 0 2961.61577390 0 33567.61847577 0 -4085.89713495 0 -10879.69891362 0 1683
0.04050000 0.04050350 44360.12949017 0 2428.60612216 0 31347.82631855 0 1892.43547929 0 -11566.34382548 0 1822
0.04150000 0.04152450 42931.91605915 0 210.54751903 0 32130.86482309 0 6085.68430950 0 -1313.59700176 0 1887
0.04250000 0.04250150 42309.25626248 0 69.62487793 0 28228.09444095 0 7485.23808761 0 -6213.26634800 0 1920
0.04350000 0.04349210 42382.23633840 0 388.97936817 0 24777.73398233 0 6200.87748101 0 -2906.80307858 0 2005
0.04450000 0.04448520 41737.39414783 0 753.72114365 0 23694.78951230 0 1563.41512182 0 2059.31362857 0 2151
0.04550000 0.04548030 39009.07061053 0 579.80119343 0 18791.92590134 0 820.71197322 0 3603.95135396 0 2274
0.04650000 0.04648670 40866.62427542 0 527.26330260 0 21503.39081927 0 438.12557097 0 873.96191889 0 2311
0.04750000 0.04749250 38466.82199173 0 1231.87706265 0 18605.37196867 0 -1670.89991145 0 -2033.11622138 0 2568
0.04850000 0.04851840 36551.15045484 0 1564.26914399 0 23634.45340091 0 -509.82128628 0 -492.42807123 0 2493
0.04950000 0.04949480 36199.67042355 0 1253.93745338 0 21471.89181994 0 -862.86073986 0 -3269.10811809 0 2644
0.05050000 0.05050630 35096.09632720 0 -492.54896527 0 21157.67821040 0 3760.14868058 0 -2650.78497943 0 2829
0.05150000 0.05149060 34363.96641665 0 24.87389466 0 21084.03266266 0 2312.00436864 0 -2422.09558955 0 2784
0.05250000 0.05249300 34624.27680902 0 697.03736341 0 18850.15468532 0 934.76607880 0 -712.81348195 0 3055
0.05350000 0.05348950 34683.17106482 0 -440.39704810 0 17015.22706221 0 3241.73504403 0 -929.63640021 0 3009
0.05450000 0.05448610 33962.46508712 0 -703.80188443 0 12765.30221559 0 4655.76283415 0 2134.47867029 0 3336
0.05550000 0.05550870 35056.61166606 0 -251.11024451 0 10842.93159573 0 1533.32470450 0 -1112.31395954 0 3349
0.05650000 0.05647670 34719.10654293 0 397.91110907 0 8297.64608168 0 -21.62151207 0 -1971.18297762 0 3324
0.05750000 0.05747970 33567.84029970 0 598.64846440 0 9194.45808452 0 -1301.27468195 0 -2169.95940933 0 3639
0.05850000 0.05849280 32508.85281509 0 1356.99685542 0 8252.58254848 0 -1798.65940909 0 -7031.68577081 0 3846
0.05950000 0.05951020 31412.37708479 0 1328.93612714 0 9624.47488140 0 -2138.79314590 0 -7664.95984296 0 3787
0.06050000 0.06049470 28855.74527625 0 984.37256627 0 10918.28518780 0 -1539.61341317 0 -9841.60724405 0 3930
0.06150000 0.06148310 29189.36848045 0 139.16901195 0 11383.33907584 0 643.36927961 0 -9254.42818642 0 4083
0.06250000 0.06249100 28715.66345880 0 -253.51037953 0 10883.83593008 0 2128.78888626 0 -9870.88800399 0 4303
0.06350000 0.06350600 29165.41149505 0 193.86968618 0 9515.32641223 0 1178.22894301 0 -6510.39951424 0 4470
0.06450000 0.06451750 28706.12502942 0 -454.41632105 0 8635.26211678 0 1469.29522452 0 -6193.19128152 0 4479
0.06550000 0.06550280 29953.10830231 0 -332.56732225 0 7728.12420958 0 938.94302357 0 -3992.93072213 0 4636
0.06650000 0.06648880 30163.17557251 0 -256.06024570 0 7312.35960078 0 294.83174288 0 -4677.00247631 0 4653
0.06750000 0.06749660 30744.24338063 0 -230.70798772 0 7724.89667127 0 785.95659846 0 -2952.31025966 0 5220
0.06850000 0.06852730 30217.18970165 0 -14.88327718 0 7006.77494246 0 334.78556164 0 -2291.47456309 0 5029
0.06950000 0.06949320 30227.39360284 0 531.39810082 0 6957.56330160 0 -429.74062608 0 -3900.37468360 0 5040
0.07050000 0.07048030 30274.75301381 0 347.66465954 0 7180.23017154 0 -121.89003622 0 -2493.23452678 0 5475
0.07150000 0.07148790 29360.72747330 0 334.72123270 0 6559.66661109 0 1038.17485354 0 -3020.08856421 0 5509
0.07250000 0.07249820 28648.56171726 0 479.86285420 0 6822.98271784 0 454.22222510 0 -516.56029755 0 5916
0.07350000 0.07351270 27861.64129378 0 663.25579574 0 7064.49353138 0 891.85867428 0 -31.11224930 0 5721
0.07450000 0.07449140 28009.93059698 0 297.29287948 0 7488.32144037 0 828.69430766 0 -68.32742971 0 6028
0.07550000 0.07549160 26770.15660211 0 553.29212360 0 5944.01645089 0 -295.89095218 0 479.90056427 0 6183
0.07650000 0.07648840 25640.29636899 0 996.25900204 0 8621.16520546 0 -603.89681880 0 1487.86188821 0 6330
0.07750000 0.07749960 25393.07358902 0 286.77842477 0 7924.66021951 0 -636.12672801 0 3225.38661972 0 6583
0.07850000 0.07848650 25053.01749058 0 -149.53817197 0 8516.54194465 0 1837.01276814 0 1935.44714106 0 6549
0.07950000 0.07947320 24868.68179730 0 298.37870766 0 8029.27238912 0 879.64393908 0 3059.81723168 0 6828
0.08050000 0.08048110 24678.13503373 0 556.27343734 0 6843.78980331 0 -244.31244990 0 1926.64073068 0 7147
0.08150000 0.08149960 23508.67922751 0 582.50300900 0 7572.45926041 0 968.08625267 0 4541.27949925 0 7386
0.08250000 0.08250610 22904.09808187 0 271.69328780 0 6409.20343329 0 354.30717739 0 3099.93409104 0 7227
0.08350000 0.08350160 22614.17419364 0 539.20075788 0 7827.81188775 0 608.84016528 0 4643.99507419 0 7798
0.08450000 0.08449610 21646.46725991 0 270.99897887 0 5796.99154414 0 354.75304351 0 4356.15633099 0 7371
0.08550000 0.08548940 21746.62076835 0 141.71333253 0 6360.97890896 0 816.24332997 0 4292.70359325 0 8256
0.08650000 0.08650700 21649.12914717 0 -392.08823068 0 5005.21317640 0 1247.23837042 0 5200.41824269 0 8037
0.08750000 0.08749060 22219.32758228 0 -343.64410065 0 4811.23923297 0 1033.94467103 0 3319.75052336 0 8155
0.08850000 0.08849210 22188.82679068 0 285.74916170 0 3720.54201628 0 -185.05440284 0 4991.49336578 0 8718
0.08950000 0.08949900 21264.04278913 0 895.38678403 0 4769.24796133 0 -1857.55366489 0 2635.65658679 0 8571
0.09050000 0.09049190 20319.07280914 0 1092.96092999 0 6253.78249045 0 -1175.62251172 0 3233.51646709 0 8932
0.09150000 0.09150830 19633.30410184 0 205.10285045 0 6627.57801000 0 -275.50755043 0 2224.86083422 0 9285
0.09250000 0.09250820 19165.47741456 0 66.29873888 0 7201.93564396 0 687.90487184 0 1064.26245788 0 9204
0.09350000 0.09350330 18954.85558451 0 175.32853224 0 7595.45131169 0 -348.32347664 0 862.89290433 0 9349
0.09450000 0.09448040 18817.65747826 0 569.34330382 0 6793.39140438 0 -362.53240905 0 435.23742328 0 9564
0.09550000 0.09549270 18061.79240624 0 437.51888250 0 6638.59156857 0 -47.43704935 0 716.27171716 0 10155
0.09650000 0.09649430 17853.38881558 0 144.16226881 0 7842.43008533 0 150.65838287 0 -66.03820666 0 9913
0.09750000 0.09749140 17437.46893003 0 155.80802561 0 6581.86009618 0 714.38399544 0 613.65707211 0 10476
0.09850000 0.09850240 17164.73639707 0 204.91430010 0 5935.25440530 0 1215.30681440 0 428.74463659 0 10575
0.09950000 0.09950330 16833.44234423 0 26.19895996 0 5362.87100439 0 425.51488004 0 1885.80294352 0 10882
0.10050000 0.10051200 16521.22515013 0 224.28507557 0 5189.52668729 0 664.09096287 0 393.07978368 0 10875
0.10150000 0.10150300 16378.25962147 0 328.41588724 0 4933.68604728 0 151.57895221 0 1649.07243585 0 11118
0.10250000 0.10250800 16039.97811455 0 97.26425164 0 4060.59811471 0 23.76466405 0 2024.87546205 0 11575
0.10350000 0.10349800 15796.85907744 0 98.94955901 0 4563.78353786 0 175.58584801 0 574.05928077 0 11364
0.10450000 0.10450100 15926.40425780 0 -74.28240426 0 4183.57730648 0 328.82293416 0 843.71289745 0 12093
0.10550000 0.10551000 15762.80910281 0 234.40690190 0 4585.28936874 0 -939.43547271 0 178.09356764 0 12067
0.10650000 0.10649700 15915.31306085 0 67.30825962 0 4525.84055310 0 -0.59568711 0 96.73941620 0 12054
0.10750000 0.10749900 15932.83715203 0 -99.34917484 0 4782.51303288 0 -179.13946751 0 -704.02592661 0 12807
0.10850000 0.10850100 15558.39834306 0 338.57098716 0 5012.25608646 0 -136.53374355 0 -753.69452478 0 12736
0.10950000 0.10950300 15500.83503090 0 382.63076704 0 5465.80840327 0 -33.64891695 0 -838.81946136 0 12933
0.11050000 0.11050200 14923.53822974 0 354.03322483 0 5689.60657529 0 -344.00456455 0 -1.30052048 0 13428
0.11150000 0.11150900 14574.27643784 0 137.18146945 0 5471.73110244 0 996.26122028 0 667.72665723 0 13453
0.11250000 0.11250000 14335.26114361 0 31.89839334 0 5576.85346711 0 610.15336299 0 476.31810766 0 13668
0.11350000 0.11349100 14506.62013646 0 92.98526785 0 4784.05470925 0 599.03776541 0 1929.39134752 0 13791
0.11450000 0.11448600 14068.29603306 0 70.70981882 0 4537.87450179 0 600.98648872 0 1431.31896617 0 14205
0.11550000 0.11549300 14284.79619749 0 60.63535189 0 4568.96312684 0 163.46095150 0 2742.04334792 0 14776
0.11650000 0.11649800 13700.29011832 0 263.28505140 0 4774.68264783 0 -195.29712322 0 1389.26114734 0 14553
0.11750000 0.11747300 13742.99122657 0 165.91765163 0 5128.71365442 0 -92.62380575 0 2019.68478188 0 14568
0.11850000 0.11849100 13548.00798422 0 39.22612533 0 4412.75470902 0 171.96235396 0 2216.42043335 0 16015
0.11950000 0.11950300 13665.35284794 0 -58.54987413 0 4942.98047032 0 646.88186169 0 2299.67095764 0 15270
0.12050000 0.12050700 13647.93966873 0 -148.00425944 0 4027.37997985 0 322.72277584 0 1577.13493245 0 15999
0.12150000 0.12150000 13917.23393063 0 66.07491852 0 4140.43255035 0 240.81428638 0 1908.39571170 0 15670
0.12250000 0.12250700 13683.09876305 0 111.09386511 0 3763.17657735 0 -28.22199428 0 1764.35433693 0 16887
0.12350000 0.12352200 13489.33555237 0 236.75823566 0 4132.59107410 0 -395.63963194 0 1745.54366691 0 16407
0.12450000 0.12449800 13300.56338031 0 211.50690756 0 3906.84085142 0 -283.44330185 0 568.53808292 0 16306
0.12550000 0.12549900 13099.92362752 0 163.19365366 0 4395.35262101 0 -403.78167962 0 257.28471385 0 17523
0.12650000 0.12650100 12949.52699690 0 58.25152093 0 3913.97249106 0 329.99971016 0 15.18651051 0 17154
0.12750000 0.12750600 13096.15262055 0 -76.33394296 0 4161.21745343 0 328.21402745 0 -26.12919633 0 18007
0.12850000 0.12850300 12860.13194949 0 90.76835941 0 3539.42277012 0 -64.71081221 0 -469.33841742 0 17496
0.12950000 0.12949900 12824.19647138 0 164.34491990 0 3873.48962220 0 201.12221986 0 62.65971716 0 18405
0.13050000 0.13049000 12700.19688950 0 119.95018588 0 3675.37866231 0 -16.05162387 0 -317.10286635 0 18100
0.13150000 0.13148800 12489.57505945 0 146.84855671 0 3712.96672877 0 60.35419005 0 -57.52482571 0 19059
0.13250000 0.13249300 12292.70631362 0 105.12979578 0 4088.27065110 0 -130.65873653 0 -435.44704691 0 18957
0.13350000 0.13349100 12242.24136751 0 193.52474995 0 3318.13120861 0 -2.64175675 0 -232.98722869 0 19468
0.13450000 0.13450700 12014.20635825 0 -1.67093319 0 4139.75598733 0 54.48062488 0 -571.79889483 0 19953
0.13550000 0.13551000 12009.54805554 0 118.05137296 0 3374.34139474 0 72.80616595 0 -190.86840828 0 19956
0.13650000 0.13649900 11846.17472449 0 126.22336687 0 3465.36684809 0 99.32455238 0 -1167.93631224 0 19723
0.13750000 0.13749600 11895.64146288 0 36.85571472 0 2907.72364793 0 200.26597946 0 -1076.85429378 0 20946
0.13850000 0.13851100 11605.27392677 0 43.10915339 0 3186.88907512 0 16.47852404 0 -786.38915514 0 20955
0.13950000 0.13949800 11469.29585219 0 275.61402592 0 3055.26984093 0 -301.29901982 0 -1425.07462229 0 20506
0.14050000 0.14048300 11242.03722672 0 275.37667431 0 3467.69599945 0 -276.30168013 0 -1286.06865093 0 21447
0.14150000 0.14148400 10899.71852411 0 72.65976215 0 3299.56454491 0 73.78917874 0 -1339.30639629 0 21771
0.14250000 0.14249400 10971.34547400 0 0.57452844 0 3576.78901264 0 568.63679458 0 -704.76792768 0 22470
0.14350000 0.14350900 11062.58166010 0 -47.53764650 0 2924.20516660 0 274.24648134 0 -949.49962482 0 22519
0.14450000 0.14449900 10965.56696039 0 68.94332388 0 3252.62659943 0 377.70183911 0 -20.42299732 0 22218
0.14550000 0.14550500 10828.86795800 0 122.39579480 0 2764.15919463 0 180.01012647 0 394.03806310 0 23559
0.14650000 0.14650700 10872.64491236 0 48.70000394 0 3075.03435389 0 483.07153748 0 1000.70657201 0 23044
0.14750000 0.14750500 10706.96461235 0 121.31329398 0 2933.85450794 0 376.91214589 0 1176.52089868 0 23649
0.14850000 0.14849900 10339.89035815 0 371.13030492 0 2869.41465367 0 -236.06059937 0 1184.79493160 0 23640
0.14950000 0.14949500 10013.11042246 0 243.98193223 0 2915.78694811 0 -51.00076184 0 1813.59925138 0 24457
0.15050000 0.15050000 9816.01985269 0 -45.09070663 0 2985.39530016 0 392.71044682 0 1602.94414774 0 24591
0.15150000 0.15149900 9926.79872781 0 0.03321226 0 2804.43133075 0 136.89309833 0 1450.25163936 0 25020
0.15250000 0.15250500 9810.49643661 0 91.02678430 0 2384.03060163 0 -175.94298455 0 955.04300506 0 25297
0.15350000 0.15350100 9690.67823598 0 112.78749089 0 2419.91062375 0 -213.01863771 0 690.72203587 0 25452
0.15450000 0.15450400 9768.88226566 0 50.78104523 0 2792.85212114 0 -251.31986813 0 254.16143279 0 26061
0.15550000 0.15549900 9805.22811806 0 11.55769269 0 2734.19078048 0 -95.99076040 0 -180.78096466 0 26128
0.15650000 0.15649500 9472.02637934 0 126.50619239 0 2735.82118643 0 -118.48060228 0 -508.27628255 0 26331
0.15750000 0.15749700 9562.45290806 0 227.61132553 0 3219.29755260 0 -552.64328858 0 -610.92531030 0 27345
0.15850000 0.15849900 9227.52094262 0 126.64483235 0 3229.21308267 0 -7.77487360 0 -895.73282938 0 26980
0.15950000 0.15949700 9090.92176100 0 217.86549077 0 3651.63240964 0 -39.14094494 0 -794.73528085 0 27777
0.16050000 0.16050000 8963.18444575 0 72.52223131 0 3414.00351503 0 -160.91219444 0 -1012.64069993 0 28224
0.16150000 0.16150500 8971.80230578 0 34.02047205 0 3733.05288644 0 306.67714122 0 -1059.55868126 0 28075
0.16250000 0.16249700 8822.25969733 0 -57.87652756 0 3154.91315432 0 368.61703969 0 -507.32687609 0 28590
0.16350000 0.16349900 9072.89856596 0 -121.80796136 0 2657.59497435 0 688.22097095 0 -396.01229616 0 29163
0.16450000 0.16449100 9016.47764709 0 -14.16290394 0 2582.69612136 0 301.43987802 0 -342.42517810 0 28996
0.16550000 0.16550500 9211.28343029 0 40.94548269 0 2100.32887489 0 161.01423346 0 -122.67640209 0 30777
0.16650000 0.16650700 8729.47074366 0 207.76695595 0 2496.36224432 0 -133.14094641 0 -270.24366836 0 29211
0.16750000 0.16749900 8915.63648443 0 152.55830490 0 2187.61659487 0 -150.35448407 0 555.45490700 0 30922
0.16850000 0.16850800 8488.69194911 0 16.07524812 0 2213.56999573 0 317.17828649 0 -115.58469076 0 30867
0.16950000 0.16949900 8748.51432882 0 -11.31235542 0 2131.05149043 0 443.61349522 0 574.88446582 0 30852
0.17050000 0.17049200 8463.42620246 0 20.53202379 0 2087.47417762 0 204.72242239 0 432.07310479 0 31257
0.17150000 0.17149500 8575.29201488 0 146.86186615 0 1649.74899887 0 -26.92510062 0 444.97993068 0 32608
0.17250000 0.17250900 8302.90330903 0 127.50550924 0 1950.79735763 0 -107.45739437 0 651.31723135 0 32361
0.17350000 0.17350400 8095.97484757 0 107.02372857 0 1927.72766798 0 -360.73230778 0 71.11897307 0 32508
0.17450000 0.17449800 8182.94092284 0 55.27286908 0 2070.97047657 0 211.67105728 0 307.01542272 0 32791
0.17550000 0.17549800 8089.20921743 0 -1.18438456 0 1820.70870863 0 60.19436590 0 -189.90014679 0 33633
0.17650000 0.17650100 8044.56714971 0 91.24295173 0 1874.05736595 0 -77.90467828 0 -195.84613747 0 33984
0.17750000 0.17750300 8028.38509336 0 60.24871277 0 1742.62668211 0 125.38487238 0 -43.08397637 0 34069
0.17850000 0.17849800 7950.30306685 0 25.76207771 0 1888.75320190 0 40.16865525 0 -31.76674083 0 34536
