### header ###
fiducial parameters:
Omega_m = 0.31
Omega_nu = 0
Omega_de = 0.69
Omega_k = 0
H_0 = 100
w_de = -1
zeff = 0
beta = 0
fgrowth = 0
b_1 = 2
gamma = 0.55
Lx = 3500 Ly = 3500 Lz = 3500
nx = 700 ny = 700 nz = 700
xoffset = 1379.75464 yoffset = 22.6059522 zoffset = 368.141391
bins = 400 dk = 0.001
kx_ny = 0.628318531 ky_ny = 0.628318531 kz_ny = 0.628318531
############################
A(data) = 3.35193598 (not used)
A(ran) = 3.35213462 (used)
Ngal = 188884
weighted Ngal = 0
Nran = 9399747
weighted Nran = 0
SN(data) = 6669.39765
SN(ran) = 133.332438
SN(data+ran) = 6802.73009
############################
13 columns: k_central k_mean P_0(k) sigma^{lin}_{P_0(k)} P^img_1(k) sigma^{lin}_{P_1(k)} P_2(k) sigma^{lin}_{P_2(k)} P^img_3(k) sigma^{lin}_{P_3(k)} P_4(k) sigma^{lin}_{P_4(k)} N_modes
### header ###
0.00050000 0 0 0 0 0 0 0 0 0 0 0 0
0.00150000 0.00179520 75716.71785431 0 -39611.32260482 0 -90999.38904123 0 89869.97245600 0 -80868.24610085 0 3
0.00250000 0.00253879 110695.02566992 0 -11707.31293870 0 19898.05097299 0 -100268.74597874 0 55483.49090954 0 6
0.00350000 0.00331552 90298.31448214 0 28425.29592269 0 727.97182082 0 -55677.80868008 0 53251.49843568 0 7
0.00450000 0.00420575 60858.61768656 0 31612.57318970 0 44432.99865412 0 -27243.41797589 0 35076.13217269 0 24
0.00550000 0.00557378 43849.71260661 0 -7145.14871559 0 36637.66179103 0 48069.02574966 0 -5296.98929452 0 45
0.00650000 0.00659388 53560.38827069 0 -11724.83702987 0 44556.99823600 0 20109.33827485 0 -17150.42875301 0 40
0.00750000 0.00754703 71521.91625652 0 -2150.27253475 0 5599.65696804 0 410.36985061 0 8031.40189893 0 57
0.00850000 0.00846663 68239.14378379 0 5136.22239475 0 28747.93884192 0 -12899.17296275 0 -4932.51038040 0 75
0.00950000 0.00948925 58529.13359153 0 11424.15468061 0 23173.83599165 0 -9817.86099138 0 18665.48625613 0 112
0.01050000 0.01054430 57722.69266142 0 -3393.47370948 0 57034.81662669 0 10928.32272104 0 -2172.28856069 0 105
0.01150000 0.01145670 57990.21233181 0 -1793.15817541 0 28187.05701224 0 24814.55675620 0 -1750.83416785 0 144
0.01250000 0.01249090 66897.77442487 0 -2611.58868941 0 33126.85430904 0 16849.63549177 0 7766.41102145 0 169
0.01350000 0.01339930 62632.21099055 0 -3082.70946218 0 26463.59591846 0 897.23568656 0 21142.92691846 0 180
0.01450000 0.01448870 70861.43547826 0 -1118.33647949 0 12893.18371640 0 9815.14364813 0 20611.54767267 0 267
0.01550000 0.01550050 66236.40635085 0 1914.95060910 0 20239.43801506 0 2257.82387155 0 -6760.19545191 0 238
0.01650000 0.01653350 71511.49053139 0 -849.52468465 0 12133.99128529 0 -3334.20235298 0 15647.23883061 0 315
0.01750000 0.01747870 71638.81747236 0 299.99580418 0 19508.97178405 0 6612.11688146 0 -530.21023363 0 297
0.01850000 0.01844180 68363.03245370 0 1161.33705005 0 9155.88290153 0 -3128.43846720 0 8056.23508890 0 388
0.01950000 0.01947590 65869.62046777 0 2507.07634057 0 22962.77051372 0 -4292.00484784 0 -13253.53670525 0 399
0.02050000 0.02045430 64454.71647308 0 3481.28271571 0 22455.57007728 0 -7179.22087262 0 -1396.12659825 0 462
0.02150000 0.02154770 59074.70956941 0 3323.94299581 0 29208.22351527 0 -1833.46358512 0 -7713.10672891 0 571
0.02250000 0.02255340 60212.44455236 0 991.10159546 0 31132.98983366 0 725.84231100 0 -3142.30246339 0 510
0.02350000 0.02348930 55990.24769811 0 -74.30802493 0 28508.47989980 0 7054.88855483 0 -7025.69652446 0 555
0.02450000 0.02439640 58768.92526955 0 1511.60814088 0 35030.32552930 0 6287.18917566 0 -49.54737139 0 592
0.02550000 0.02547300 59566.38233012 0 -1349.70993902 0 22820.91410475 0 4836.12787892 0 6137.06982497 0 837
0.02650000 0.02652900 55557.13645728 0 502.98910896 0 22893.45053280 0 3066.22794352 0 2070.03881602 0 723
0.02750000 0.02749970 58300.10037455 0 1110.25099691 0 14981.43427781 0 916.44674880 0 1467.54281540 0 826
0.02850000 0.02848090 56301.91033235 0 -1429.94365775 0 16466.10190130 0 2972.77351803 0 -2787.79453533 0 831
0.02950000 0.02946900 57892.16615079 0 537.93192495 0 17337.53724552 0 2179.05419083 0 4281.67894348 0 996
0.03050000 0.03053250 56985.79353618 0 -150.30901016 0 12908.15683228 0 -1313.54154577 0 -8885.15787522 0 1041
0.03150000 0.03150510 59294.31526898 0 -1303.63710690 0 12659.71402064 0 973.96015057 0 -9322.93850996 0 1036
0.03250000 0.03246190 58331.37754994 0 329.51613397 0 11203.88350922 0 -2828.64341369 0 -7323.55061850 0 1059
0.03350000 0.03345080 59116.41246993 0 326.80655456 0 13986.55391156 0 -3092.48080669 0 -12483.58581310 0 1302
0.03450000 0.03451200 61255.68253731 0 105.34163764 0 11913.05464209 0 -154.00348787 0 -9974.94561376 0 1339
0.03550000 0.03553350 58285.90364245 0 1401.99384144 0 14846.12167504 0 80.74302649 0 -15134.93644358 0 1365
0.03650000 0.03647120 57289.69233256 0 2540.93776485 0 15651.56439742 0 -4205.14968454 0 -13844.25385471 0 1308
0.03750000 0.03744890 55545.26887655 0 3508.28978028 0 21780.67074298 0 -5383.25662438 0 -8051.97606927 0 1579
0.03850000 0.03847530 48971.96009321 0 2747.23402809 0 24628.77920731 0 498.89534817 0 -14475.56478500 0 1662
0.03950000 0.03950240 47604.30459753 0 1845.90790809 0 26891.71612066 0 3816.73596741 0 -3947.55663542 0 1683
0.04050000 0.04050350 44594.04283381 0 -308.18110752 0 19206.40393130 0 3747.41598649 0 -8589.48874698 0 1822
0.04150000 0.04152450 46784.22149518 0 -443.77653581 0 21471.55908403 0 9017.30948686 0 5277.80152380 0 1887
0.04250000 0.04250150 44589.82817897 0 856.73729003 0 13200.74260777 0 2926.07957888 0 -2154.30973043 0 1920
0.04350000 0.04349210 44843.26202924 0 1401.65001433 0 11826.87604180 0 2535.76926708 0 9359.36200074 0 2005
0.04450000 0.04448520 41094.65928468 0 125.44698308 0 10487.95783741 0 4493.33225485 0 6978.79185256 0 2151
0.04550000 0.04548030 41205.90399007 0 695.54892478 0 10685.35896069 0 661.18617839 0 10878.09069006 0 2274
0.04650000 0.04648670 40359.42383898 0 -201.48490200 0 7924.61585472 0 4452.59428845 0 6797.27332331 0 2311
0.04750000 0.04749250 39999.07085013 0 515.90037133 0 7440.30764878 0 495.11103177 0 10600.81076635 0 2568
0.04850000 0.04851840 39502.96161064 0 617.69094044 0 3608.73165985 0 1042.49709299 0 10021.15154025 0 2493
0.04950000 0.04949480 38475.69494929 0 849.86518440 0 6926.37485579 0 -33.97888006 0 7006.35347698 0 2644
0.05050000 0.05050630 37952.07954137 0 748.84434435 0 6301.78519084 0 -1132.37793482 0 8096.21885390 0 2829
0.05150000 0.05149060 36550.15224711 0 1074.03380240 0 9940.59617681 0 -3341.79982289 0 5200.75097860 0 2784
0.05250000 0.05249300 35453.89834075 0 583.41137803 0 9316.20615342 0 -1614.73409010 0 2652.55957094 0 3055
0.05350000 0.05348950 35091.88167236 0 868.93649755 0 11536.73032963 0 -1084.15895609 0 748.37629584 0 3009
0.05450000 0.05448610 34722.65572595 0 306.05825243 0 10158.08345777 0 -375.42814374 0 -249.47762032 0 3336
0.05550000 0.05550870 33964.23967863 0 -307.47681652 0 10067.63474666 0 3895.58328652 0 2778.53338588 0 3349
0.05650000 0.05647670 35246.60386979 0 -588.33919684 0 9177.97656585 0 2308.81010392 0 3986.91929339 0 3324
0.05750000 0.05747970 34894.12563077 0 -91.28498736 0 5838.23970559 0 3248.45630938 0 2702.35904524 0 3639
0.05850000 0.05849280 35335.66618128 0 182.86056409 0 8025.09100787 0 -64.74342033 0 5258.19228759 0 3846
0.05950000 0.05951020 33953.70304153 0 862.37494543 0 6417.91002289 0 -2412.02478272 0 4732.03699557 0 3787
0.06050000 0.06049470 33759.16344706 0 615.19431201 0 9731.03910167 0 83.29732914 0 5469.42413347 0 3930
0.06150000 0.06148310 33452.38093947 0 -243.18669341 0 7446.98454934 0 532.19666700 0 5728.94705086 0 4083
0.06250000 0.06249100 34628.93511174 0 33.58913540 0 9838.79008003 0 731.11062955 0 4238.06835708 0 4303
0.06350000 0.06350600 32484.67400574 0 398.11075062 0 8318.75262947 0 304.70068992 0 3972.29000461 0 4470
0.06450000 0.06451750 33880.05749380 0 841.45362063 0 9449.16742243 0 62.49900572 0 4301.94256031 0 4479
0.06550000 0.06550280 31389.75104301 0 668.78808478 0 9499.05562631 0 -1556.79367724 0 3937.01999832 0 4636
0.06650000 0.06648880 30919.15155650 0 1126.62160361 0 11722.61879048 0 -584.99631008 0 2427.90737675 0 4653
0.06750000 0.06749660 29746.70112710 0 939.32899722 0 10712.42148124 0 -484.83060132 0 964.38955673 0 5220
0.06850000 0.06852730 28714.88707501 0 317.99459858 0 11492.03280593 0 1.21952147 0 1849.27963196 0 5029
0.06950000 0.06949320 28195.37540995 0 281.21397126 0 11298.26959525 0 1600.57063160 0 161.14621870 0 5040
0.07050000 0.07048030 28544.30446595 0 78.22809758 0 10090.56025075 0 899.74895179 0 3252.21622514 0 5475
0.07150000 0.07148790 27074.16631046 0 426.03727541 0 9051.58128543 0 159.78421971 0 -942.04190399 0 5509
0.07250000 0.07249820 27769.69527108 0 444.44422587 0 10376.81295279 0 -799.44682131 0 1005.85843299 0 5916
0.07350000 0.07351270 27665.65984371 0 -529.13106017 0 10277.36928095 0 655.47421196 0 -106.69598370 0 5721
0.07450000 0.07449140 27831.69506202 0 -654.26748974 0 9664.03718091 0 569.44645196 0 125.84182969 0 6028
0.07550000 0.07549160 29018.00948760 0 -113.37199697 0 10055.45661241 0 167.58576765 0 -157.60812687 0 6183
0.07650000 0.07648840 28871.38386395 0 261.81435868 0 8983.21514744 0 -1184.44001330 0 -3154.29204729 0 6330
0.07750000 0.07749960 28576.24711316 0 817.41123301 0 11937.89892325 0 -1552.73429916 0 -1624.88253531 0 6583
0.07850000 0.07848650 27556.63337771 0 723.07173000 0 12716.16821311 0 -633.97170844 0 -2678.09150631 0 6549
0.07950000 0.07947320 27310.96336530 0 607.57576882 0 13031.82367825 0 701.79659602 0 -1307.07537795 0 6828
0.08050000 0.08048110 26883.39772295 0 58.32616469 0 11844.28922101 0 1222.03917095 0 -1845.85245211 0 7147
0.08150000 0.08149960 26223.24968059 0 83.99629638 0 11033.53381529 0 2336.03899243 0 254.68160992 0 7386
0.08250000 0.08250610 25374.10764224 0 677.40150833 0 10381.95926817 0 1164.42040281 0 499.70056907 0 7227
0.08350000 0.08350160 24273.19543315 0 759.10259241 0 10189.91519301 0 361.22697517 0 2172.26637829 0 7798
0.08450000 0.08449610 23202.00763190 0 892.82471754 0 9889.79849479 0 -33.28812031 0 2117.25404143 0 7371
0.08550000 0.08548940 22621.82711953 0 741.19030934 0 10435.34119908 0 539.18523020 0 2447.20605944 0 8256
0.08650000 0.08650700 21604.43162347 0 416.73952501 0 9615.57974144 0 194.15472994 0 2523.91277754 0 8037
0.08750000 0.08749060 21681.29361832 0 -36.03341338 0 9867.61610089 0 738.88666773 0 2058.62597436 0 8155
0.08850000 0.08849210 21015.59997749 0 -142.16030776 0 9087.35039559 0 1059.94798227 0 2054.43350192 0 8718
0.08950000 0.08949900 21416.54674717 0 265.71180529 0 8860.01413174 0 -371.73588428 0 931.47864802 0 8571
0.09050000 0.09049190 20717.24677958 0 559.32129826 0 8563.40225175 0 -874.95679925 0 1297.58131337 0 8932
0.09150000 0.09150830 20272.26795802 0 371.96547205 0 9243.31480707 0 41.84664244 0 -1163.35564790 0 9285
0.09250000 0.09250820 19942.30484881 0 335.19926329 0 9712.81626509 0 -463.96916898 0 -479.37262330 0 9204
0.09350000 0.09350330 19091.61004288 0 441.68029959 0 8487.68265019 0 377.04856761 0 -981.83933688 0 9349
0.09450000 0.09448040 18806.67719328 0 281.68978361 0 8514.15733730 0 1133.28741297 0 -1581.37176968 0 9564
0.09550000 0.09549270 18622.45241197 0 -71.86208327 0 7837.31704354 0 940.76308899 0 -127.76060677 0 10155
0.09650000 0.09649430 18181.02277343 0 293.93779240 0 7262.54903529 0 702.88353332 0 -1416.21275592 0 9913
0.09750000 0.09749140 18194.22129780 0 284.14870198 0 6716.55159192 0 353.84578360 0 1477.64689582 0 10476
0.09850000 0.09850240 17432.36697943 0 -91.63158727 0 5364.02448887 0 904.22868624 0 -249.24026870 0 10575
0.09950000 0.09950330 17520.76381911 0 244.06400709 0 5493.82476676 0 873.11898792 0 522.98875530 0 10882
0.10050000 0.10051200 17104.95484552 0 223.82257265 0 4918.11400677 0 64.20560819 0 -542.11552444 0 10875
0.10150000 0.10150300 16678.49832286 0 177.86176162 0 4999.56775715 0 59.82946552 0 495.75986679 0 11118
0.10250000 0.10250800 16508.69209758 0 215.75039952 0 4969.07805674 0 188.92744882 0 363.71583976 0 11575
0.10350000 0.10349800 16428.50274365 0 -57.84957595 0 4183.03383783 0 338.11957545 0 -527.01707803 0 11364
0.10450000 0.10450100 16603.30000755 0 22.04364302 0 3804.81293069 0 355.53940937 0 581.78873592 0 12093
0.10550000 0.10551000 16039.64537864 0 318.86193018 0 4195.61125516 0 -460.90134390 0 -706.99504003 0 12067
0.10650000 0.10649700 15991.84231979 0 378.96623557 0 4594.02923194 0 -345.98656144 0 60.21255546 0 12054
0.10750000 0.10749900 15536.54868507 0 230.23550273 0 5003.17239616 0 -634.53292301 0 -585.61963534 0 12807
0.10850000 0.10850100 15233.42627248 0 190.43363336 0 5119.48577856 0 248.00803672 0 -573.89845841 0 12736
0.10950000 0.10950300 15244.07382155 0 135.00094013 0 5341.35408231 0 60.60640387 0 -471.68198734 0 12933
0.11050000 0.11050200 15278.34562012 0 -149.58586412 0 4944.75506184 0 518.23174093 0 -228.15146682 0 13428
0.11150000 0.11150900 15381.82648764 0 -78.92950487 0 4695.66896077 0 846.94930872 0 702.39219329 0 13453
0.11250000 0.11250000 15631.04568307 0 -81.35026952 0 4470.76166906 0 437.60983031 0 -113.00487835 0 13668
0.11350000 0.11349100 15145.69490461 0 301.64839252 0 3927.80321365 0 -344.82309488 0 345.04380970 0 13791
0.11450000 0.11448600 15116.08140876 0 388.93943986 0 4533.07201351 0 -280.53075353 0 289.13530412 0 14205
0.11550000 0.11549300 14467.24638729 0 163.10159672 0 4520.50568737 0 317.30361701 0 1459.85661592 0 14776
0.11650000 0.11649800 14670.43711538 0 -128.38504115 0 4391.40415489 0 1056.75482667 0 820.59440653 0 14553
0.11750000 0.11747300 14634.83437318 0 -70.27460025 0 3460.60872460 0 698.14648310 0 1102.37957444 0 14568
0.11850000 0.11849100 14398.92461409 0 200.05857407 0 3190.94845320 0 101.98355594 0 1079.41746939 0 16015
0.11950000 0.11950300 14193.95929449 0 434.32018130 0 4018.21865117 0 -627.82607621 0 1398.57775278 0 15270
0.12050000 0.12050700 13540.57688227 0 427.36821905 0 3702.27481491 0 -462.18015891 0 1229.49245530 0 15999
0.12150000 0.12150000 13493.77203115 0 176.94562875 0 4760.02008547 0 30.45875597 0 1055.16545815 0 15670
0.12250000 0.12250700 12997.21914377 0 98.86604230 0 4041.60998554 0 473.01847657 0 1224.80087899 0 16887
0.12350000 0.12352200 13129.09347549 0 -0.62445990 0 3929.83290269 0 635.52558513 0 1070.58111279 0 16407
0.12450000 0.12449800 12840.94417877 0 45.42155704 0 3545.01273338 0 45.07994817 0 1147.05158839 0 16306
0.12550000 0.12549900 12858.02462207 0 195.14517383 0 3381.62831113 0 24.36325595 0 1344.92963314 0 17523
0.12650000 0.12650100 12630.32234873 0 62.50787867 0 3361.98580134 0 28.79197089 0 1159.89519445 0 17154
0.12750000 0.12750600 12421.03146231 0 170.25541875 0 3678.99439251 0 -177.39925871 0 862.09211991 0 18007
0.12850000 0.12850300 12315.33235540 0 100.31910001 0 3371.46877473 0 -138.33717218 0 341.80739843 0 17496
0.12950000 0.12949900 12183.01437581 0 59.33635091 0 3526.50152567 0 48.15775533 0 115.63127378 0 18405
0.13050000 0.13049000 12297.47552831 0 -82.00575926 0 3067.65870792 0 157.45174100 0 -8.16726906 0 18100
0.13150000 0.13148800 12359.80805516 0 -130.33709182 0 2986.63751422 0 543.49859669 0 172.16088639 0 19059
0.13250000 0.13249300 12526.28692135 0 -42.22329949 0 2986.71515260 0 219.83306911 0 173.85340304 0 18957
0.13350000 0.13349100 12656.83030943 0 63.08406635 0 2405.85807722 0 -73.54727973 0 195.64760505 0 19468
0.13450000 0.13450700 12631.98602827 0 6.60833478 0 3154.48059763 0 -88.45517937 0 323.26402625 0 19953
0.13550000 0.13551000 12531.83251983 0 135.98694754 0 3032.08923931 0 -145.60745178 0 299.97805826 0 19956
0.13650000 0.13649900 12491.68238687 0 73.01224039 0 2947.68523054 0 11.60815764 0 376.11357971 0 19723
0.13750000 0.13749600 12413.60036036 0 155.57732871 0 3236.92146455 0 168.13034542 0 175.71561501 0 20946
0.13850000 0.13851100 11986.81110179 0 380.61771479 0 3501.71270049 0 -148.06858838 0 814.80036525 0 20955
0.13950000 0.13949800 11647.42047518 0 298.64600551 0 4054.65323315 0 -25.63652536 0 934.07620635 0 20506
0.14050000 0.14048300 11309.91535204 0 280.30116575 0 3365.36861641 0 336.30616474 0 1176.07725080 0 21447
0.14150000 0.14148400 10958.26895280 0 145.52426780 0 3743.00169010 0 97.85219599 0 1296.42782888 0 21771
0.14250000 0.14249400 10664.95115831 0 46.07305395 0 3382.98143716 0 138.97935248 0 1425.74009410 0 22470
0.14350000 0.14350900 10741.85751794 0 61.50601085 0 3532.49077202 0 55.08942068 0 903.09960239 0 22519
0.14450000 0.14449900 10766.12505687 0 53.85641232 0 3092.61390106 0 102.71213667 0 910.74254621 0 22218
0.14550000 0.14550500 10591.15033381 0 132.19375819 0 3202.20601810 0 34.24606699 0 863.83011047 0 23559
0.14650000 0.14650700 10425.29257465 0 33.76515269 0 3128.01700172 0 86.00147387 0 555.72442309 0 23044
0.14750000 0.14750500 10430.60525799 0 -11.11581941 0 3018.39161108 0 213.90260610 0 732.84862011 0 23649
0.14850000 0.14849900 10444.63562213 0 43.45930247 0 2929.52894113 0 -25.95595183 0 384.24342707 0 23640
0.14950000 0.14949500 10599.99001778 0 30.80058666 0 2724.50816554 0 15.24174467 0 529.29188252 0 24457
0.15050000 0.15050000 10322.53263492 0 112.97825947 0 3006.39093598 0 -17.94333842 0 270.46881966 0 24591
0.15150000 0.15149900 10194.48476616 0 267.96997299 0 2783.95698119 0 -5.12235840 0 538.45321120 0 25020
0.15250000 0.15250500 9810.35225105 0 174.57765820 0 3044.40046792 0 10.33695119 0 442.26369655 0 25297
0.15350000 0.15350100 9728.88740947 0 205.07955893 0 2696.43634607 0 14.79232937 0 151.28170813 0 25452
0.15450000 0.15450400 9509.98045530 0 119.09283635 0 3216.50257097 0 197.02845907 0 440.12753202 0 26061
0.15550000 0.15549900 9257.42280959 0 184.15379765 0 2898.97269354 0 -237.06435269 0 127.72955141 0 26128
0.15650000 0.15649500 9184.53146325 0 111.33676233 0 2966.32953261 0 4.33745657 0 497.33925324 0 26331
0.15750000 0.15749700 8809.98174231 0 81.27429482 0 3065.82866043 0 -77.61275797 0 -377.45561454 0 27345
0.15850000 0.15849900 9020.20428926 0 56.74822010 0 2866.13165937 0 211.98271991 0 274.97850034 0 26980
0.15950000 0.15949700 8809.36063528 0 37.25033951 0 2873.74022048 0 80.21630554 0 -95.52359919 0 27777
0.16050000 0.16050000 8901.32884037 0 -6.74779549 0 2731.45125483 0 229.12971039 0 400.44766582 0 28224
0.16150000 0.16150500 8871.83734769 0 -17.65197268 0 2529.80220312 0 242.32379828 0 -196.58924767 0 28075
0.16250000 0.16249700 9010.95423101 0 -51.54434140 0 2553.81464451 0 199.28773589 0 404.70003073 0 28590
0.16350000 0.16349900 8942.08898916 0 110.40088713 0 2448.20426717 0 25.62953791 0 247.78177630 0 29163
0.16450000 0.16449100 8998.88700873 0 57.40925544 0 2293.63734650 0 17.35084668 0 549.36029428 0 28996
0.16550000 0.16550500 8728.57235671 0 72.63391966 0 2662.61928657 0 -35.07369211 0 434.85588611 0 30777
0.16650000 0.16650700 8730.01421231 0 76.75696122 0 2392.10499300 0 189.71936028 0 384.23455412 0 29211
0.16750000 0.16749900 8557.67919413 0 71.36053934 0 2455.16953885 0 82.22037392 0 511.29641548 0 30922
0.16850000 0.16850800 8731.78880382 0 29.77121267 0 2343.39245601 0 40.61041763 0 567.23264904 0 30867
0.16950000 0.16949900 8618.90260128 0 -25.08362919 0 2283.02307102 0 342.27655606 0 828.43588277 0 30852
0.17050000 0.17049200 8708.85220853 0 -27.28589726 0 2028.93484013 0 55.94222282 0 580.94247759 0 31257
0.17150000 0.17149500 8663.30066267 0 40.08802225 0 2157.80345747 0 -188.53260220 0 297.82082045 0 32608
0.17250000 0.17250900 8668.64661959 0 202.03058889 0 2204.88558852 0 -263.79080998 0 543.99991880 0 32361
0.17350000 0.17350400 8358.99149200 0 224.18636391 0 2466.34946538 0 -292.30405909 0 23.27188217 0 32508
0.17450000 0.17449800 8214.81702287 0 97.09732912 0 2662.70801615 0 -124.53195933 0 311.27222411 0 32791
0.17550000 0.17549800 8091.08362971 0 84.20902553 0 2756.10698565 0 391.36286640 0 -40.26925241 0 33633
0.17650000 0.17650100 8114.15331937 0 14.01261822 0 2394.53396514 0 256.88653988 0 501.79236881 0 33984
0.17750000 0.17750300 7957.51234487 0 -3.63629328 0 2246.92122495 0 170.40736815 0 275.13710446 0 34069
0.17850000 0.17849800 8029.67167221 0 141.86639105 0 2205.09632126 0 76.02582951 0 181.75144439 0 34536
