### header ###
fiducial parameters:
Omega_m = 0.31
Omega_nu = 0
Omega_de = 0.69
Omega_k = 0
H_0 = 100
w_de = -1
zeff = 0
beta = 0
fgrowth = 0
b_1 = 2
gamma = 0.55
Lx = 3500 Ly = 3500 Lz = 3500
nx = 700 ny = 700 nz = 700
xoffset = 1379.75464 yoffset = 22.6059522 zoffset = 368.141391
bins = 400 dk = 0.001
kx_ny = 0.628318531 ky_ny = 0.628318531 kz_ny = 0.628318531
############################
A(data) = 3.33457428 (not used)
A(ran) = 3.32780496 (used)
Ngal = 186616
weighted Ngal = 0
Nran = 9399747
weighted Nran = 0
SN(data) = 6648.05887
SN(ran) = 132.364716
SN(data+ran) = 6780.42358
############################
13 columns: k_central k_mean P_0(k) sigma^{lin}_{P_0(k)} P^img_1(k) sigma^{lin}_{P_1(k)} P_2(k) sigma^{lin}_{P_2(k)} P^img_3(k) sigma^{lin}_{P_3(k)} P_4(k) sigma^{lin}_{P_4(k)} N_modes
### header ###
0.00050000 0 0 0 0 0 0 0 0 0 0 0 0
0.00150000 0.00179520 1824.45753319 0 -8497.27653555 0 -6866.58221304 0 -4730.40658961 0 17758.33725774 0 3
0.00250000 0.00253879 10203.01389661 0 -8135.98079496 0 1043.63615892 0 -6498.33229196 0 -8533.18983127 0 6
0.00350000 0.00331552 17143.66312287 0 -3782.88563433 0 5137.87498310 0 -9324.05872086 0 3180.55600166 0 7
0.00450000 0.00420575 26567.29860992 0 -4036.43039656 0 10107.51869088 0 -2799.95048718 0 13332.17329161 0 24
0.00550000 0.00557378 54881.34982723 0 -26609.55607030 0 -6319.57547075 0 28740.06409208 0 12157.83735873 0 45
0.00650000 0.00659388 64191.07872162 0 -17163.18362950 0 -20277.92446847 0 -7062.20874481 0 -55327.10503257 0 40
0.00750000 0.00754703 106371.12253965 0 -3426.80275630 0 -14230.22750851 0 -39003.74683600 0 -17642.21242569 0 57
0.00850000 0.00846663 89136.06795393 0 16698.68430130 0 33575.27140166 0 -44517.06992699 0 -19962.37991529 0 75
0.00950000 0.00948925 69387.96996368 0 17771.09213423 0 51749.97219283 0 -18531.50459700 0 17109.50223627 0 112
0.01050000 0.01054430 69299.68403598 0 -4539.00580388 0 44743.55216867 0 32696.73769139 0 -21579.03278246 0 105
0.01150000 0.01145670 78039.87996708 0 -13436.98510277 0 42041.62568012 0 27264.49125009 0 -19520.61754084 0 144
0.01250000 0.01249090 84277.12548289 0 -3228.71397881 0 12294.36999317 0 9106.14997441 0 -27304.64138304 0 169
0.01350000 0.01339930 94881.64070902 0 9776.72374190 0 26192.52706504 0 -25265.96847199 0 -13609.67503926 0 180
0.01450000 0.01448870 74192.23283378 0 4517.40015222 0 20987.53924921 0 -15178.63575955 0 -19308.22111928 0 267
0.01550000 0.01550050 75052.46606908 0 2778.93266897 0 41953.00701650 0 -4578.49046501 0 -43668.26062454 0 238
0.01650000 0.01653350 70299.99908874 0 -292.06781660 0 28395.23877896 0 -1320.45136147 0 -33190.62869150 0 315
0.01750000 0.01747870 77454.26476822 0 -989.41906088 0 37495.01131513 0 19711.27521638 0 -37436.00614737 0 297
0.01850000 0.01844180 71490.52816916 0 888.33389189 0 28275.34293995 0 -3786.39045256 0 -15902.66909633 0 388
0.01950000 0.01947590 75402.72606870 0 394.58264087 0 27154.24475242 0 10662.68855413 0 -13357.90486853 0 399
0.02050000 0.02045430 69495.00001423 0 -941.48401679 0 23024.99212860 0 10111.96626086 0 5454.85030068 0 462
0.02150000 0.02154770 78378.71603385 0 -3421.55662015 0 15120.51788754 0 13032.82188598 0 6486.43143764 0 571
0.02250000 0.02255340 77852.77147457 0 -1111.93685885 0 9264.09971015 0 8462.62763628 0 15035.78114286 0 510
0.02350000 0.02348930 81040.93603733 0 1925.20996627 0 12064.44948043 0 1214.88534892 0 17008.01778419 0 555
0.02450000 0.02439640 72810.04787009 0 6198.47069127 0 7912.31571730 0 -11103.50817684 0 9362.72263342 0 592
0.02550000 0.02547300 67765.54967410 0 5070.52923523 0 22648.44599221 0 1182.41032426 0 18694.76701608 0 837
0.02650000 0.02652900 62372.34424606 0 2893.04999437 0 21187.29170625 0 4873.49412144 0 15892.90884302 0 723
0.02750000 0.02749970 58845.78726440 0 786.48675768 0 16638.23727794 0 4624.94039783 0 12568.65529370 0 826
0.02850000 0.02848090 56541.25836250 0 2659.13665073 0 17072.90128634 0 2425.71131976 0 6132.76644055 0 831
0.02950000 0.02946900 53207.13364789 0 1316.51398656 0 13760.40440578 0 -2723.03303635 0 5433.61065853 0 996
0.03050000 0.03053250 52232.77199599 0 -1721.09866883 0 9335.26082977 0 3781.27741077 0 5936.28588661 0 1041
0.03150000 0.03150510 54957.10270238 0 -1054.36245549 0 7817.68562494 0 -529.02680292 0 -8641.17372475 0 1036
0.03250000 0.03246190 58460.03543454 0 -175.29858601 0 1588.08194383 0 -2370.00023749 0 -9910.30611795 0 1059
0.03350000 0.03345080 54576.45282312 0 1495.53699650 0 11053.44251381 0 -7363.33474196 0 -14832.03585492 0 1302
0.03450000 0.03451200 53151.45583921 0 1008.73992596 0 11549.59611809 0 -7227.54521772 0 -18653.84049934 0 1339
0.03550000 0.03553350 54491.16151859 0 -73.90519266 0 15364.96786828 0 -786.56661429 0 -22657.98442158 0 1365
0.03650000 0.03647120 54737.16426690 0 737.28731713 0 15101.10829288 0 -4101.11425717 0 -25347.59968153 0 1308
0.03750000 0.03744890 53503.37951838 0 1198.79202215 0 18995.22754140 0 522.76138576 0 -17965.29899279 0 1579
0.03850000 0.03847530 52798.09030444 0 554.98131290 0 21021.58922384 0 3321.40311171 0 -14843.45978778 0 1662
0.03950000 0.03950240 51534.69206007 0 1162.42398736 0 17276.31383837 0 2801.62525792 0 -11939.34077885 0 1683
0.04050000 0.04050350 48807.36673050 0 3285.76709591 0 21413.33030006 0 1883.71779849 0 -13740.99481112 0 1822
0.04150000 0.04152450 45549.66036287 0 1467.19898830 0 21381.49856481 0 -3397.24471644 0 1788.48878149 0 1887
0.04250000 0.04250150 43083.42180946 0 1524.79557405 0 22322.69753784 0 2853.65406281 0 -4128.30987208 0 1920
0.04350000 0.04349210 42179.60017015 0 1455.86378501 0 21417.87769080 0 1284.36060660 0 -901.07324071 0 2005
0.04450000 0.04448520 39342.36107883 0 1338.37473574 0 17783.84701072 0 1251.86339955 0 -3486.65085504 0 2151
0.04550000 0.04548030 38512.07407528 0 481.14499657 0 18249.89910648 0 4785.64075042 0 1481.68409151 0 2274
0.04650000 0.04648670 37491.68395605 0 -108.35101211 0 17239.49106450 0 2308.78792153 0 2529.54710559 0 2311
0.04750000 0.04749250 37434.89702767 0 917.07894702 0 13673.11668580 0 1809.41787013 0 1524.46283814 0 2568
0.04850000 0.04851840 35570.91046855 0 1333.12859959 0 13397.27861770 0 176.33006732 0 763.29728310 0 2493
0.04950000 0.04949480 34117.40910849 0 929.36688412 0 12978.69684487 0 -735.64581998 0 2050.86213650 0 2644
0.05050000 0.05050630 32987.10522750 0 155.78029762 0 13851.68495667 0 944.57624250 0 385.95590788 0 2829
0.05150000 0.05149060 34233.53394054 0 144.29979966 0 13416.57730039 0 1364.38359259 0 -1464.07127076 0 2784
0.05250000 0.05249300 32070.52871169 0 234.65756295 0 12161.94110160 0 33.16168067 0 -194.58839574 0 3055
0.05350000 0.05348950 32562.20147241 0 744.87591409 0 13000.32467892 0 -641.34513617 0 -3582.47879667 0 3009
0.05450000 0.05448610 32140.18142853 0 -454.37528362 0 11492.69827775 0 2070.61555826 0 927.13866265 0 3336
0.05550000 0.05550870 31149.62662908 0 311.38313608 0 12425.57885306 0 324.51400415 0 -3117.08108153 0 3349
0.05650000 0.05647670 33160.46063580 0 -209.17664708 0 9835.95073361 0 1652.00051185 0 -765.50110393 0 3324
0.05750000 0.05747970 32435.54000326 0 -636.96189514 0 10523.01711096 0 1364.27268062 0 -1289.37382762 0 3639
0.05850000 0.05849280 33150.25673460 0 -69.65149680 0 7338.26863685 0 1508.62460890 0 505.82512802 0 3846
0.05950000 0.05951020 33135.28361872 0 123.93192558 0 7136.78595309 0 1599.01786403 0 452.35557665 0 3787
0.06050000 0.06049470 32606.12261232 0 718.71178048 0 6719.01383764 0 -424.13402602 0 -1169.85508931 0 3930
0.06150000 0.06148310 31480.25521011 0 975.73585120 0 7665.80277393 0 -965.87577712 0 2380.57014818 0 4083
0.06250000 0.06249100 30429.47521124 0 1140.79615331 0 8092.22602300 0 -1388.88404664 0 597.06575060 0 4303
0.06350000 0.06350600 29270.11239424 0 316.20891587 0 8751.14294250 0 786.44793849 0 1443.37509725 0 4470
0.06450000 0.06451750 29147.66557993 0 -178.28766358 0 7781.52832289 0 2446.66259079 0 371.19241563 0 4479
0.06550000 0.06550280 29691.35605433 0 -400.88909545 0 7602.02839148 0 1450.06308901 0 437.84607281 0 4636
0.06650000 0.06648880 28759.25186280 0 430.52588282 0 5879.82060295 0 -159.77645588 0 527.51396365 0 4653
0.06750000 0.06749660 28500.16150209 0 898.68419688 0 6840.10752592 0 -1517.24246893 0 -428.03812734 0 5220
0.06850000 0.06852730 27789.21577771 0 -39.30476192 0 7987.49185022 0 -1137.72389175 0 969.68116679 0 5029
0.06950000 0.06949320 27066.18064866 0 461.25626220 0 7783.31400560 0 -22.25581762 0 -1957.99554445 0 5040
0.07050000 0.07048030 28486.29750591 0 -74.90550771 0 8558.35575714 0 258.71991473 0 -719.57245737 0 5475
0.07150000 0.07148790 27465.90738667 0 -200.99023462 0 7504.40367594 0 -142.01723132 0 -3829.33556715 0 5509
0.07250000 0.07249820 27957.35832345 0 334.31529489 0 8767.06990131 0 617.92607382 0 -703.48023972 0 5916
0.07350000 0.07351270 28013.92342788 0 526.16527410 0 8314.79307216 0 -664.61003089 0 -1038.86472599 0 5721
0.07450000 0.07449140 27046.10558218 0 303.04255598 0 9160.33047151 0 355.69579525 0 -1879.59187322 0 6028
0.07550000 0.07549160 27014.49567088 0 296.45549411 0 9587.50792197 0 -308.38518555 0 842.64925166 0 6183
0.07650000 0.07648840 26464.26139028 0 426.25355376 0 9761.86153799 0 38.32840385 0 -1912.39963380 0 6330
0.07750000 0.07749960 26095.25726781 0 366.30119777 0 10926.54812953 0 1022.59283095 0 2513.48705241 0 6583
0.07850000 0.07848650 25167.58955506 0 465.80032559 0 9784.94231884 0 793.04498243 0 1333.26169395 0 6549
0.07950000 0.07947320 25316.98797795 0 100.31366533 0 9369.65463151 0 1919.27617591 0 4451.19679764 0 6828
0.08050000 0.08048110 25143.85439359 0 213.45563087 0 8849.74368337 0 1728.82923311 0 3469.85878286 0 7147
0.08150000 0.08149960 24075.43939157 0 339.29746056 0 8071.41893752 0 69.71216565 0 5339.91222671 0 7386
0.08250000 0.08250610 23933.47207063 0 225.91104504 0 7777.48003600 0 1311.36767117 0 5613.63187619 0 7227
0.08350000 0.08350160 23514.44664993 0 4.95392748 0 5965.16736347 0 657.55824787 0 4826.13471047 0 7798
0.08450000 0.08449610 23416.84411678 0 569.72484100 0 6640.45488966 0 -418.44867846 0 4620.39300708 0 7371
0.08550000 0.08548940 22851.85854424 0 651.92724718 0 6701.48974646 0 191.56382633 0 3752.57339307 0 8256
0.08650000 0.08650700 21657.44754489 0 618.86771644 0 6651.60154259 0 -1027.88222278 0 4461.15669250 0 8037
0.08750000 0.08749060 21120.07905274 0 471.92266631 0 7702.43699745 0 -600.16906750 0 2008.32739620 0 8155
0.08850000 0.08849210 20305.98519674 0 264.61377679 0 6534.66705317 0 235.69902635 0 2345.76597216 0 8718
0.08950000 0.08949900 20359.88841391 0 224.18636391 0 7880.94981233 0 1109.37479235 0 1486.35348543 0 8571
0.09050000 0.09049190 19855.12804080 0 336.21410781 0 6492.09903928 0 -631.31093029 0 115.88637131 0 8932
0.09150000 0.09150830 19712.27342411 0 119.14829234 0 6521.72362633 0 39.94938229 0 939.96563193 0 9285
0.09250000 0.09250820 18858.58399500 0 304.36795401 0 6248.43653352 0 60.99337573 0 -807.96153321 0 9204
0.09350000 0.09350330 18536.82837153 0 439.87465273 0 6462.81827934 0 -540.16236465 0 398.63647335 0 9349
0.09450000 0.09448040 18336.18861874 0 234.86829570 0 6523.72004178 0 316.63149048 0 -1612.52694191 0 9564
0.09550000 0.09549270 18094.62234921 0 174.60316796 0 6442.76539525 0 377.85600675 0 346.86054776 0 10155
0.09650000 0.09649430 17839.74664334 0 160.98428722 0 6655.62764708 0 119.93687644 0 -550.12447775 0 9913
0.09750000 0.09749140 17603.72597228 0 244.87921006 0 6977.08380823 0 354.62549474 0 415.68031570 0 10476
0.09850000 0.09850240 17440.57446517 0 -26.06675289 0 5862.95089239 0 691.94650401 0 497.89492220 0 10575
0.09950000 0.09950330 17694.23013938 0 -341.74528773 0 5204.67726232 0 1133.95288479 0 920.77120649 0 10882
0.10050000 0.10051200 17873.79661797 0 -132.19153995 0 4843.25951856 0 876.52731274 0 1265.22829187 0 10875
0.10150000 0.10150300 17933.46725755 0 175.29969513 0 3977.50286718 0 505.62548648 0 895.55980670 0 11118
0.10250000 0.10250800 17180.37498477 0 408.61965973 0 4317.51460082 0 -725.13912912 0 1645.57870881 0 11575
0.10350000 0.10349800 16832.11140059 0 713.90596485 0 5012.47791040 0 -1048.57174156 0 610.96412949 0 11364
0.10450000 0.10450100 16102.86520125 0 398.09300470 0 5635.85863488 0 -264.82340041 0 414.24511482 0 12093
0.10550000 0.10551000 15914.42576510 0 325.83385659 0 6179.64893005 0 -407.07465599 0 245.76539670 0 12067
0.10650000 0.10649700 15347.44377710 0 262.78594753 0 7099.87444965 0 -74.27020395 0 160.76135417 0 12054
0.10750000 0.10749900 15214.23850175 0 257.14718301 0 6544.83768077 0 55.98913858 0 68.92380337 0 12807
0.10850000 0.10850100 15251.83765941 0 -118.76231868 0 6993.98679238 0 842.28213304 0 1745.73221726 0 12736
0.10950000 0.10950300 15396.02321974 0 -285.48075473 0 5783.88174935 0 1718.89152064 0 1780.01510702 0 12933
0.11050000 0.11050200 15476.76713352 0 -88.89017612 0 5701.38542645 0 856.51879345 0 2875.35953524 0 13428
0.11150000 0.11150900 15419.75838121 0 349.55903598 0 5472.81803974 0 -304.98240632 0 3224.56587115 0 13453
0.11250000 0.11250000 15019.03343547 0 435.39159092 0 5810.10133893 0 -423.81459955 0 2781.06217878 0 13668
0.11350000 0.11349100 14591.91144099 0 262.76820162 0 6415.61414512 0 -1062.76181894 0 2630.84300732 0 13791
0.11450000 0.11448600 14154.36372138 0 253.65456509 0 6695.96633038 0 -59.95368693 0 1970.39550264 0 14205
0.11550000 0.11549300 14230.22750851 0 203.13749035 0 6618.15049260 0 -136.44723222 0 939.04062610 0 14776
0.11650000 0.11649800 14025.37310087 0 -179.98794408 0 6431.47455676 0 582.39875175 0 840.75265698 0 14553
0.11750000 0.11747300 13976.79365824 0 73.28153465 0 6110.10712518 0 578.80076746 0 611.97231929 0 14568
0.11850000 0.11849100 14126.08116916 0 19.08096249 0 5210.11194882 0 137.87577838 0 -381.23438534 0 16015
0.11950000 0.11950300 13779.92491241 0 150.90793480 0 5029.66926567 0 307.00654977 0 199.43192145 0 15270
0.12050000 0.12050700 13522.83096715 0 170.23545460 0 4863.56750017 0 273.00315816 0 451.03128774 0 15999
0.12150000 0.12150000 13357.46122065 0 127.06629784 0 4367.43607829 0 336.36162073 0 102.96745602 0 15670
0.12250000 0.12250700 13327.51498889 0 64.85155950 0 4390.01775527 0 536.77067663 0 1183.12016086 0 16887
0.12350000 0.12352200 13077.07576180 0 8.80578927 0 3897.06950691 0 580.08401895 0 711.54464902 0 16407
0.12450000 0.12449800 13115.56221521 0 12.97148757 0 3583.62118996 0 141.30961296 0 1427.33722646 0 16306
0.12550000 0.12549900 13125.32246853 0 128.70890411 0 3666.45024876 0 123.30083647 0 391.49817900 0 17523
0.12650000 0.12650100 12940.21039146 0 195.05089865 0 3447.33256186 0 -261.48938661 0 1455.18722200 0 17154
0.12750000 0.12750600 12563.10969522 0 124.65618074 0 3459.02268344 0 -10.21981706 0 679.78278832 0 18007
0.12850000 0.12850300 12411.71485688 0 212.71252067 0 4043.63967458 0 -97.80550205 0 496.06154735 0 17496
0.12950000 0.12949900 12281.06055683 0 177.17965301 0 3482.34747062 0 -9.06456908 0 -88.85778982 0 18405
0.13050000 0.13049000 12015.98094977 0 141.37726926 0 3670.92000113 0 -278.67408716 0 -433.75009377 0 18100
0.13150000 0.13148800 12273.40763093 0 -184.83257890 0 3384.57856952 0 263.39041777 0 -11.02419503 0 19059
0.13250000 0.13249300 12161.94110160 0 -104.46942591 0 3215.79273436 0 433.03582069 0 -1323.67889979 0 18957
0.13350000 0.13349100 12266.53108883 0 33.72245159 0 2854.50808497 0 -119.59526757 0 -578.25397145 0 19468
0.13450000 0.13450700 12342.17305201 0 67.72939237 0 2742.98609966 0 -6.02185447 0 -1320.29608472 0 19953
0.13550000 0.13551000 12468.94543313 0 16.71620839 0 2678.00277674 0 282.78892123 0 -886.77668784 0 19956
0.13650000 0.13649900 12178.91063293 0 37.61191253 0 2760.12199894 0 243.30315097 0 -963.23718136 0 19723
0.13750000 0.13749600 12185.78717504 0 176.93231932 0 2577.97127146 0 140.57648484 0 -734.30267603 0 20946
0.13850000 0.13851100 11912.50008224 0 108.30387452 0 2265.94262772 0 162.36514124 0 -334.01472345 0 20955
0.13950000 0.13949800 11710.97303369 0 246.17798922 0 2821.06812617 0 151.28059901 0 -724.86184919 0 20506
0.14050000 0.14048300 11388.10829053 0 333.43798121 0 2818.37296532 0 -595.38765250 0 136.66018320 0 21447
0.14150000 0.14148400 11036.35097931 0 241.24906130 0 3060.51597709 0 -434.05953817 0 -893.15856256 0 21771
0.14250000 0.14249400 10949.55127200 0 80.83874352 0 3533.92153643 0 -244.59194806 0 -654.86197789 0 22470
0.14350000 0.14350900 10897.84411182 0 152.14571238 0 3692.37037603 0 -142.55626350 0 -936.56618006 0 22519
0.14450000 0.14449900 10742.87790806 0 24.68612070 0 3478.28809254 0 -56.67890012 0 -1282.98529818 0 22218
0.14550000 0.14550500 10874.57478063 0 1.22430178 0 3775.32143801 0 238.97758416 0 -1002.85604598 0 23559
0.14650000 0.14650700 10682.61943504 0 66.91807132 0 3451.28102797 0 31.33496053 0 -1829.90331090 0 23044
0.14750000 0.14750500 10590.79541551 0 150.15706076 0 3664.08782381 0 51.83060519 0 -964.90862474 0 23649
0.14850000 0.14849900 10319.23854943 0 190.87062652 0 3533.40025017 0 8.34689100 0 -1211.60235462 0 23640
0.14950000 0.14949500 10324.68432713 0 109.33080845 0 3500.03792975 0 515.66523795 0 -314.51196274 0 24457
0.15050000 0.15050000 10003.07288922 0 18.07687643 0 3057.14425322 0 730.45181245 0 -98.65608594 0 24591
0.15150000 0.15149900 9925.91143205 0 119.04514420 0 2868.15025722 0 239.98577397 0 536.64534610 0 25020
0.15250000 0.15250500 9866.62898437 0 203.94492948 0 2769.50515156 0 410.97986644 0 866.34337570 0 25297
0.15350000 0.15350100 9563.85039888 0 30.81999626 0 2708.64775391 0 69.00166357 0 1275.90911453 0 25452
0.15450000 0.15450400 9558.46007716 0 14.78412188 0 2547.01574078 0 243.64365072 0 1159.91737685 0 26061
0.15550000 0.15549900 9524.87593280 0 160.09366411 0 2817.10856886 0 -403.02415087 0 1013.43815699 0 26128
0.15650000 0.15649500 9425.94245602 0 113.98977664 0 2601.80625370 0 -167.32179716 0 513.48803599 0 26331
0.15750000 0.15749700 9242.05041062 0 91.43937682 0 3324.14263735 0 -273.44902428 0 126.15016497 0 27345
0.15850000 0.15849900 9272.46247265 0 133.40380777 0 2742.40935742 0 -302.16191494 0 256.47505647 0 26980
0.15950000 0.15949700 9151.50187874 0 -10.77082772 0 3351.72644416 0 30.44711021 0 -259.02825001 0 27777
0.16050000 0.16050000 9127.74453487 0 119.76496289 0 3057.82081623 0 -239.54767169 0 -704.81561983 0 28224
0.16150000 0.16150500 9038.95950330 0 136.95853640 0 3375.63906478 0 83.95004608 0 -232.01563984 0 28075
0.16250000 0.16249700 8840.85963461 0 206.43823056 0 3352.26991281 0 -10.47678900 0 -720.12923545 0 28590
0.16350000 0.16349900 8683.65300907 0 80.69677620 0 3366.54428328 0 333.51783783 0 288.06389450 0 29163
0.16450000 0.16449100 8488.19284525 0 29.63956016 0 3154.41405045 0 361.17595566 0 10.58325340 0 28996
0.16550000 0.16550500 8577.79862539 0 -22.59287910 0 3101.74195615 0 378.78433994 0 663.79704615 0 30777
0.16650000 0.16650700 8566.71851964 0 12.86523390 0 2791.41026553 0 432.47793348 0 727.06123355 0 29211
0.16750000 0.16749900 8670.36575512 0 -32.45506051 0 2369.95587270 0 275.21917931 0 1271.89410123 0 30922
0.16850000 0.16850800 8498.71839115 0 56.50232826 0 2329.87228693 0 76.81263902 0 1013.59897935 0 30867
0.16950000 0.16949900 8481.83758940 0 114.02637759 0 2221.56674873 0 9.41855572 0 943.41610330 0 30852
0.17050000 0.17049200 8340.51355788 0 132.94352310 0 2286.37261250 0 -186.95321576 0 898.77625382 0 31257
0.17150000 0.17149500 8250.38649148 0 116.01170184 0 1966.76868124 0 145.77160149 0 349.57789101 0 32608
0.17250000 0.17250900 7988.11295725 0 53.09134155 0 2272.04278604 0 71.26792785 0 862.16421269 0 32361
0.17350000 0.17350400 7902.83274391 0 60.75546955 0 1556.50530612 0 9.96643867 0 -40.50327666 0 32508
0.17450000 0.17449800 8104.84780513 0 -91.07747107 0 1765.28599748 0 433.95971739 0 477.82983780 0 32791
0.17550000 0.17549800 7914.25667677 0 42.20910275 0 1047.84194080 0 1.85100986 0 -254.46533158 0 33633
0.17650000 0.17650100 7975.11407442 0 82.23723254 0 1295.51835073 0 30.83785308 0 503.40059237 0 33984
0.17750000 0.17750300 7854.69694916 0 54.24626789 0 1038.00293999 0 -11.98426013 0 -77.95547596 0 34069
0.17850000 0.17849800 7836.54065975 0 16.68027291 0 1495.19316939 0 112.51353832 0 394.06246373 0 34536
