### header ###
fiducial parameters:
Omega_m = 0.31
Omega_nu = 0
Omega_de = 0.69
Omega_k = 0
H_0 = 100
w_de = -1
zeff = 0
beta = 0
fgrowth = 0
b_1 = 2
gamma = 0.55
Lx = 3500 Ly = 3500 Lz = 3500
nx = 700 ny = 700 nz = 700
xoffset = 1379.75464 yoffset = 22.6059522 zoffset = 368.141391
bins = 400 dk = 0.001
kx_ny = 0.628318531 ky_ny = 0.628318531 kz_ny = 0.628318531
############################
A(data) = 3.37646332 (not used)
A(ran) = 3.38154926 (used)
Ngal = 189803
weighted Ngal = 0
Nran = 9399747
weighted Nran = 0
SN(data) = 6600.72563
SN(ran) = 134.502417
SN(data+ran) = 6735.22804
############################
13 columns: k_central k_mean P_0(k) sigma^{lin}_{P_0(k)} P^img_1(k) sigma^{lin}_{P_1(k)} P_2(k) sigma^{lin}_{P_2(k)} P^img_3(k) sigma^{lin}_{P_3(k)} P_4(k) sigma^{lin}_{P_4(k)} N_modes
### header ###
0.00050000 0 0 0 0 0 0 0 0 0 0 0 0
0.00150000 0.00179520 35061.93544060 0 -24736.25290574 0 -16321.91634097 0 50613.56815352 0 46414.21916498 0 3
0.00250000 0.00253879 39532.90784240 0 -12851.36990391 0 18367.13305823 0 -64413.45722044 0 -62820.65042670 0 6
0.00350000 0.00331552 58425.09816415 0 -6664.05695676 0 -31415.03897205 0 36730.49510949 0 102051.65588817 0 7
0.00450000 0.00420575 57683.31891226 0 -2711.90856581 0 -10959.66644361 0 3629.40565096 0 -2077.02627010 0 24
0.00550000 0.00557378 79979.28666545 0 -11488.37271094 0 -37890.41248633 0 21892.58092019 0 39272.04289017 0 45
0.00650000 0.00659388 77189.40698509 0 -16321.25086916 0 -5835.72200388 0 4002.11423321 0 -76088.05112814 0 40
0.00750000 0.00754703 98242.16247236 0 -1049.41134517 0 -53158.88694117 0 -6201.46531445 0 33000.30375186 0 57
0.00850000 0.00846663 91700.79633624 0 7152.67963832 0 -15849.98591083 0 -40838.45263517 0 -35756.02254562 0 75
0.00950000 0.00948925 73963.08870483 0 13745.76402581 0 -9168.78196358 0 -41182.61247648 0 10885.05596174 0 112
0.01050000 0.01054430 64584.48347738 0 4449.47766211 0 15454.47382765 0 -15044.76501239 0 -48477.18179735 0 105
0.01150000 0.01145670 64450.39090627 0 -4539.07235106 0 17712.86335025 0 -17054.26807546 0 -41401.99635211 0 144
0.01250000 0.01249090 73470.97229623 0 -6242.35855760 0 10268.90669768 0 2885.03105897 0 -57983.11396577 0 169
0.01350000 0.01339930 79454.34031389 0 -4420.03053421 0 33913.22017267 0 -20685.85869222 0 -50218.83245413 0 180
0.01450000 0.01448870 88480.35639035 0 200.09184766 0 17345.52290733 0 -10258.08168946 0 -47792.52220974 0 267
0.01550000 0.01550050 88207.73476937 0 4325.51135382 0 47928.83302023 0 -7184.76647109 0 -55186.13591936 0 238
0.01650000 0.01653350 84750.94141651 0 3825.90838729 0 33437.85147147 0 -1730.73691898 0 -25011.86914991 0 315
0.01750000 0.01747870 83317.07147505 0 2866.74167521 0 52043.33435211 0 8011.99230428 0 -11143.88013373 0 297
0.01850000 0.01844180 83227.01095583 0 108.25096951 0 45901.25130613 0 9675.28365462 0 -9511.07848380 0 388
0.01950000 0.01947590 80686.68320681 0 825.79506878 0 47826.12853649 0 14370.75297384 0 -2011.82112324 0 399
0.02050000 0.02045430 79973.74106698 0 4118.31670363 0 43952.08435445 0 1535.13256960 0 23929.36832776 0 462
0.02150000 0.02154770 74964.06922940 0 2314.62189112 0 42492.03918818 0 10660.53686192 0 13694.07904803 0 571
0.02250000 0.02255340 78796.18868698 0 2530.68949887 0 43880.43522216 0 -1335.33574778 0 9588.66140645 0 510
0.02350000 0.02348930 68792.03995166 0 3046.65198090 0 40184.07201523 0 2714.09353161 0 10496.34278230 0 555
0.02450000 0.02439640 67168.62145434 0 4436.57860006 0 45994.41736049 0 -174.32477891 0 7235.25359960 0 592
0.02550000 0.02547300 64436.52691009 0 1746.23132112 0 40908.32717595 0 3245.27313585 0 5038.71968238 0 837
0.02650000 0.02652900 62215.29289727 0 -451.29636734 0 35996.70151940 0 11924.92222282 0 -11384.67001947 0 723
0.02750000 0.02749970 62677.24125016 0 1054.56209703 0 33781.23492899 0 1428.14688384 0 3342.18801479 0 826
0.02850000 0.02848090 58821.16480717 0 2434.44009176 0 27151.13921728 0 -3197.71408334 0 -13752.41874398 0 831
0.02950000 0.02946900 57259.52427686 0 1894.72026586 0 31050.13859246 0 4197.23056992 0 -1992.11206626 0 996
0.03050000 0.03053250 53688.26977151 0 1182.82069854 0 24935.11806702 0 1423.03384205 0 -8692.24868670 0 1041
0.03150000 0.03150510 54042.30077809 0 -496.03160112 0 25549.12673008 0 6449.13174230 0 -9089.38008463 0 1036
0.03250000 0.03246190 54121.60283627 0 -181.00389772 0 20800.09802079 0 1770.58758962 0 -5037.63274508 0 1059
0.03350000 0.03345080 55145.54213853 0 -1353.82477309 0 15545.19981869 0 5374.83840590 0 -13858.67241074 0 1302
0.03450000 0.03451200 54625.91956151 0 -200.25932474 0 13324.52036572 0 40.84177999 0 -5544.79990793 0 1339
0.03550000 0.03553350 56517.41228906 0 1621.18916672 0 16289.64095785 0 -1650.46992667 0 -9062.75012076 0 1365
0.03650000 0.03647120 51952.60836108 0 2662.97420487 0 13533.47851622 0 -3699.46874208 0 -9843.25983240 0 1308
0.03750000 0.03744890 49430.91382293 0 2155.17484380 0 18974.48700311 0 -983.07489622 0 -5859.69008049 0 1579
0.03850000 0.03847530 45988.31720217 0 2948.74998544 0 22468.10312983 0 911.33481612 0 -6401.94979048 0 1662
0.03950000 0.03950240 45680.86922277 0 56.01320648 0 19799.22840818 0 5461.24992132 0 -516.91965233 0 1683
0.04050000 0.04050350 44693.19813453 0 -1503.81102942 0 16484.06964036 0 8443.51750394 0 1580.08519083 0 1822
0.04150000 0.04152450 45388.28344727 0 242.63878828 0 15283.89121859 0 1022.24124001 0 7179.14323424 0 1887
0.04250000 0.04250150 45543.11655667 0 2028.80174577 0 14997.73833733 0 -1393.36489021 0 4239.16638558 0 1920
0.04350000 0.04349210 42618.70065733 0 2891.54159158 0 20664.00903423 0 -3975.40663095 0 7313.09161978 0 2005
0.04450000 0.04448520 38963.92943895 0 2154.57591916 0 18417.37618040 0 -1045.14012523 0 7312.03795607 0 2151
0.04550000 0.04548030 38534.14555721 0 -566.41744607 0 22429.83850036 0 3434.89933008 0 6240.15140940 0 2274
0.04650000 0.04648670 40178.97006463 0 -1201.37627104 0 21145.47789376 0 2902.81024768 0 3049.12531782 0 2311
0.04750000 0.04749250 39911.56130621 0 504.76702783 0 19439.42997918 0 1170.79784105 0 3242.42269824 0 2568
0.04850000 0.04851840 39680.08802590 0 507.97571111 0 16891.44930427 0 566.29655202 0 669.58110536 0 2493
0.04950000 0.04949480 39254.85153491 0 -575.19280109 0 15500.28047105 0 -56.33895493 0 -482.14874990 0 2644
0.05050000 0.05050630 39531.35507482 0 -212.55946215 0 15694.04368173 0 1652.31106536 0 195.57773051 0 2829
0.05150000 0.05149060 37812.21954785 0 1682.59003303 0 13827.72797126 0 149.73226792 0 -3668.46884661 0 2784
0.05250000 0.05249300 36973.39232266 0 1928.53732536 0 14222.02002277 0 -2343.69191833 0 -6497.22317227 0 3055
0.05350000 0.05348950 34507.59741713 0 1243.98864971 0 14958.03185225 0 -1086.29068414 0 -4935.68246273 0 3009
0.05450000 0.05448610 32933.42383427 0 96.57404645 0 14270.15581752 0 2453.86077761 0 -2104.22188502 0 3336
0.05550000 0.05550870 33090.47518305 0 -226.17279729 0 13087.50148693 0 2308.35536485 0 -5083.66121241 0 3349
0.05650000 0.05647670 32758.07201051 0 164.80298633 0 9656.21788706 0 1718.79169987 0 -8739.49718570 0 3324
0.05750000 0.05747970 32941.96405592 0 988.54840192 0 11263.88688471 0 -590.83471615 0 -1953.68106884 0 3639
0.05850000 0.05849280 30673.37063213 0 988.12915467 0 11228.06231856 0 -1198.32619188 0 -4162.12693158 0 3846
0.05950000 0.05951020 30300.48459073 0 512.46764587 0 11911.83461042 0 929.02416614 0 -2643.69770458 0 3787
0.06050000 0.06049470 29923.60571843 0 100.87077615 0 10900.38399593 0 768.18184623 0 -4244.02432984 0 3930
0.06150000 0.06148310 30302.92465406 0 -365.06563843 0 11834.63987966 0 1658.24485573 0 -657.53384724 0 4083
0.06250000 0.06249100 30233.16102525 0 -159.18529508 0 9838.57934728 0 1289.31837164 0 -1011.97300987 0 4303
0.06350000 0.06350600 31260.42768660 0 9.81125064 0 10554.70466064 0 801.66949718 0 -412.22429874 0 4470
0.06450000 0.06451750 30876.78318416 0 -88.57862440 0 9257.27862403 0 -136.38290327 0 -29.60262648 0 4479
0.06550000 0.06550280 30596.95228515 0 22.79562618 0 9866.16315409 0 556.43980529 0 272.15135424 0 4636
0.06650000 0.06648880 30924.03168316 0 431.01500460 0 9368.06859035 0 -18.85259475 0 -95.95992688 0 4653
0.06750000 0.06749660 30607.82165816 0 66.47985812 0 8149.01295137 0 443.04118946 0 912.56593898 0 5220
0.06850000 0.06852730 29820.01393893 0 731.76944665 0 9956.62295640 0 -571.56487057 0 -346.01207119 0 5029
0.06950000 0.06949320 29256.24839805 0 958.42914749 0 8869.92966181 0 -157.22769882 0 -1232.04343060 0 5040
0.07050000 0.07048030 28094.55642970 0 207.68377198 0 9764.00213900 0 200.66082607 0 -1291.29260470 0 5475
0.07150000 0.07148790 28389.24953261 0 173.77576467 0 9606.75114867 0 744.19602371 0 -602.35957890 0 5509
0.07250000 0.07249820 27867.85236407 0 -285.91331141 0 7603.80298299 0 1243.89992014 0 -997.37810381 0 5916
0.07350000 0.07351270 27802.30339011 0 325.27264202 0 8563.42443415 0 -533.25698543 0 -2790.09041310 0 5721
0.07450000 0.07449140 27477.88587937 0 737.96831663 0 7494.29959552 0 -476.69631748 0 -746.88120249 0 6028
0.07550000 0.07549160 26190.30882565 0 887.05507688 0 10299.29657732 0 -611.42441416 0 -1200.71079922 0 6183
0.07650000 0.07648840 25751.31925044 0 651.32166783 0 9702.90073502 0 131.51164957 0 -608.94220429 0 6330
0.07750000 0.07749960 24951.64395048 0 73.98316377 0 9537.38680296 0 992.09869406 0 -855.96867008 0 6583
0.07850000 0.07848650 25498.88360790 0 -236.39111704 0 9529.95570100 0 1837.87788150 0 -125.54236738 0 6549
0.07950000 0.07947320 25345.49235411 0 -285.87338310 0 8346.22552431 0 479.13416256 0 856.83932904 0 6828
0.08050000 0.08048110 25683.10838921 0 515.71403922 0 7707.10639137 0 -143.43246805 0 -43.61380285 0 7147
0.08150000 0.08149960 24782.39228505 0 340.05166195 0 8364.83655279 0 -688.00358349 0 19.07563872 0 7386
0.08250000 0.08250610 24516.86903011 0 224.28507557 0 8128.07277154 0 122.99804680 0 -976.58543689 0 7227
0.08350000 0.08350160 24136.33006281 0 395.12167304 0 8472.85371987 0 -16.18904380 0 -1353.38112521 0 7798
0.08450000 0.08449610 23344.64042465 0 560.84522872 0 8785.37037628 0 -258.15648193 0 299.28707669 0 7371
0.08550000 0.08548940 22983.17831611 0 657.72239759 0 8034.20797176 0 -335.57192751 0 -2076.10570075 0 8256
0.08650000 0.08650700 21901.23205381 0 184.92463584 0 9316.29488299 0 317.22597863 0 -2008.53812894 0 8037
0.08750000 0.08749060 21811.39335853 0 398.29264625 0 9565.78026715 0 -122.30373787 0 -2348.90478089 0 8155
0.08850000 0.08849210 21208.47589242 0 577.40105841 0 8871.16078467 0 93.54980978 0 -659.39495009 0 8718
0.08950000 0.08949900 20718.68863519 0 138.34937249 0 9478.78091828 0 498.81770979 0 -1953.85852799 0 8571
0.09050000 0.09049190 20755.17867315 0 211.08433296 0 8647.49570701 0 492.06982557 0 -857.14766431 0 8932
0.09150000 0.09150830 20036.46911090 0 102.05132315 0 8178.52662645 0 1316.64708092 0 -1979.67883449 0 9285
0.09250000 0.09250820 20229.89958568 0 67.38356885 0 8234.25989112 0 565.89283245 0 1232.63126404 0 9204
0.09350000 0.09350330 19916.24053598 0 -135.05639612 0 6326.76256637 0 1343.14395043 0 -297.76314623 0 9349
0.09450000 0.09448040 20415.23348668 0 8.22068427 0 7147.42241096 0 593.32358075 0 1573.61902301 0 9564
0.09550000 0.09549270 19634.52413350 0 180.58686871 0 5459.24241467 0 -70.11533066 0 -116.84132337 0 10155
0.09650000 0.09649430 19708.61332911 0 694.14921572 0 7027.02746809 0 -816.28325828 0 1101.95034511 0 9913
0.09750000 0.09749140 18616.57407759 0 514.16792637 0 6174.42497629 0 -290.72910912 0 -260.21057160 0 10476
0.09850000 0.09850240 18490.57808026 0 114.72623211 0 7606.95288292 0 604.52790790 0 641.17765910 0 10575
0.09950000 0.09950330 18148.30374244 0 122.76402254 0 6254.49232706 0 1201.19881189 0 461.96055321 0 10882
0.10050000 0.10051200 17821.66799231 0 225.82675194 0 6288.85285520 0 30.08720087 0 -10.45449570 0 10875
0.10150000 0.10150300 17451.77657409 0 370.86633443 0 5621.48444363 0 90.38471491 0 1337.70926393 0 11118
0.10250000 0.10250800 16903.53870894 0 307.43466997 0 5535.79385601 0 892.45427156 0 1354.36824174 0 11575
0.10350000 0.10349800 16329.56926687 0 401.10759203 0 5173.31135735 0 331.17315880 0 1209.33975045 0 11364
0.10450000 0.10450100 16118.61470091 0 308.75563152 0 4981.34492057 0 -138.09871144 0 1305.89971108 0 12093
0.10550000 0.10551000 15220.00592417 0 524.83765783 0 5375.55933370 0 -552.29058852 0 622.66201491 0 12067
0.10650000 0.10649700 15308.29185188 0 -30.55635850 0 5734.70338208 0 273.20279971 0 1768.61335656 0 12054
0.10750000 0.10749900 14987.53443613 0 -217.31093093 0 4723.88496581 0 806.23019736 0 276.71760002 0 12807
0.10850000 0.10850100 15403.23249775 0 -68.02109085 0 5130.99844099 0 -239.05189518 0 336.32501978 0 12736
0.10950000 0.10950300 15644.57694335 0 -50.06643941 0 4285.19485292 0 336.72652111 0 -127.97466687 0 12933
0.11050000 0.11050200 15815.93593620 0 68.23370910 0 4781.96956423 0 -81.27595850 0 547.14981873 0 13428
0.11150000 0.11150900 15408.55627229 0 133.73987104 0 4589.44856760 0 -560.75206267 0 73.00680570 0 13453
0.11250000 0.11250000 15620.61995794 0 -5.14084742 0 4910.64963122 0 627.93476994 0 -40.94004800 0 13668
0.11350000 0.11349100 15771.68206037 0 -23.07800805 0 4671.80070494 0 151.10535810 0 -221.01539071 0 13791
0.11450000 0.11448600 15599.99033161 0 247.57326180 0 4690.36736863 0 -27.62440059 0 616.04722505 0 14205
0.11550000 0.11549300 14958.69732407 0 345.84792148 0 5227.56949282 0 -51.29013117 0 950.51114198 0 14776
0.11650000 0.11649800 14704.48709001 0 347.95524890 0 5888.27209502 0 -438.29304804 0 378.59800783 0 14553
0.11750000 0.11747300 14350.67790737 0 478.04611614 0 6199.21380147 0 -32.01229993 0 1118.49175624 0 14568
0.11850000 0.11849100 14191.51923116 0 -55.14665126 0 6299.91077856 0 633.68222820 0 1783.44228688 0 16015
0.11950000 0.11950300 13902.48263869 0 10.06106876 0 5758.46072594 0 746.43755462 0 2102.84657660 0 15270
0.12050000 0.12050700 14292.44912339 0 59.12539634 0 5940.68909180 0 607.25301499 0 3066.11703155 0 15999
0.12150000 0.12150000 14049.44099825 0 -109.45059337 0 5547.60598076 0 471.08860830 0 2450.23395621 0 15670
0.12250000 0.12250700 14372.30574142 0 118.19999500 0 5333.67897402 0 195.64316857 0 3681.95574210 0 16887
0.12350000 0.12352200 13715.15232223 0 239.53768961 0 5316.95344902 0 -592.32870038 0 2298.40656119 0 16407
0.12450000 0.12449800 13865.77077679 0 303.96867092 0 5960.08759526 0 -381.74790776 0 3453.54363215 0 16306
0.12550000 0.12549900 13493.43929524 0 98.03497891 0 6016.69706449 0 151.63773556 0 1646.64346372 0 17523
0.12650000 0.12650100 13352.69200597 0 146.69217084 0 5213.61676706 0 509.04601161 0 1972.69138041 0 17154
0.12750000 0.12750600 13079.51582513 0 205.88588895 0 5310.79783472 0 -107.09349220 0 1065.04549639 0 18007
0.12850000 0.12850300 12574.86636399 0 456.61903276 0 5413.03648819 0 -585.09834909 0 760.17178380 0 17496
0.12950000 0.12949900 12159.05739040 0 404.10554257 0 5997.78657369 0 -142.55848173 0 1179.41570108 0 18405
0.13050000 0.13049000 11786.28226097 0 -53.88813314 0 5252.97942503 0 427.85068612 0 41.77843158 0 18100
0.13150000 0.13148800 11698.55089311 0 -168.30225897 0 4855.03836972 0 1205.44674032 0 861.48210408 0 19059
0.13250000 0.13249300 12147.52254557 0 -89.99962855 0 3777.52858620 0 651.14975427 0 502.02084747 0 18957
0.13350000 0.13349100 11915.82744132 0 43.61524470 0 3661.63666929 0 308.45838745 0 881.19781578 0 19468
0.13450000 0.13450700 11803.69544018 0 302.93275313 0 3737.60027719 0 -86.63345027 0 1438.47278820 0 19953
0.13550000 0.13551000 11368.14413602 0 268.00768306 0 3178.37103586 0 -230.96973997 0 910.44530213 0 19956
0.13650000 0.13649900 11150.20211599 0 165.36641914 0 4173.93905633 0 27.76060049 0 1774.99079481 0 19723
0.13750000 0.13749600 11005.12925990 0 167.27965061 0 3725.48869012 0 45.78801019 0 717.88104983 0 20946
0.13850000 0.13851100 11164.62067202 0 -103.97697677 0 3575.28060985 0 340.58293029 0 1708.38815713 0 20955
0.13950000 0.13949800 10698.47984668 0 4.52771497 0 3664.38728613 0 356.75611368 0 930.41611135 0 20506
0.14050000 0.14048300 11127.46516224 0 195.64760505 0 3239.18406873 0 -232.39052230 0 1180.48045599 0 21447
0.14150000 0.14148400 10820.51628670 0 83.69184302 0 3686.09275856 0 -162.69011332 0 930.73331959 0 21771
0.14250000 0.14249400 10634.53909627 0 36.93623681 0 3394.70483234 0 -0.05386495 0 256.94310498 0 22470
0.14350000 0.14350900 10739.53945778 0 -6.87036431 0 3473.95143453 0 265.14504512 0 905.19140213 0 22519
0.14450000 0.14449900 10824.88621830 0 -139.91212214 0 2713.83843408 0 707.19357245 0 648.88604098 0 22218
0.14550000 0.14550500 11050.50334662 0 -108.94050922 0 2703.56798570 0 478.86131912 0 947.96238493 0 23559
0.14650000 0.14650700 10945.31443476 0 95.23522807 0 2306.00403110 0 136.72562126 0 988.10364492 0 23044
0.14750000 0.14750500 10756.19843560 0 250.66992399 0 2604.23522584 0 -151.70539186 0 1515.41242143 0 23649
0.14850000 0.14849900 10455.05025606 0 250.86734729 0 2542.03579335 0 -343.13057823 0 1035.36434424 0 23640
0.14950000 0.14949500 10176.23974718 0 273.65310230 0 3130.24633230 0 -337.50734137 0 1239.49671495 0 24457
0.15050000 0.15050000 9847.30811928 0 220.72258311 0 3183.90554314 0 -129.23462684 0 875.68770913 0 24591
0.15150000 0.15149900 9768.18352025 0 22.49072917 0 3214.68361467 0 230.31757759 0 1227.21875993 0 25020
0.15250000 0.15250500 9778.24323589 0 18.60259917 0 3099.08006888 0 304.59421443 0 578.32162775 0 25297
0.15350000 0.15350100 9638.39433357 0 150.59183568 0 3072.82720570 0 -28.00693597 0 888.89510646 0 25452
0.15450000 0.15450400 9290.14184059 0 299.07079835 0 2888.24750609 0 -213.18500566 0 492.43028947 0 26061
0.15550000 0.15549900 9141.10942720 0 165.74684719 0 3520.66755608 0 -394.53494872 0 458.48679033 0 26128
0.15650000 0.15649500 8958.80342296 0 45.66656158 0 3096.60673196 0 242.93714148 0 300.90860968 0 26331
0.15750000 0.15749700 8917.57744390 0 -60.01524307 0 3279.64475520 0 390.06630547 0 300.44721589 0 27345
0.15850000 0.15849900 9140.67687051 0 -217.58710173 0 2441.07262753 0 405.66829222 0 621.33218040 0 26980
0.15950000 0.15949700 9240.64182861 0 -15.18451409 0 2465.97236468 0 457.04493472 0 121.14359867 0 27777
0.16050000 0.16050000 9316.20615342 0 41.11950357 0 1952.57194914 0 57.69230278 0 919.81847267 0 28224
0.16150000 0.16150500 9229.69481722 0 110.94967955 0 2197.64303691 0 -219.73546658 0 553.89659383 0 28075
0.16250000 0.16249700 9192.30639231 0 67.80325974 0 2108.32562789 0 -20.29766680 0 603.55410081 0 28590
0.16350000 0.16349900 9092.13070147 0 69.43910038 0 2474.88968703 0 327.77148869 0 1185.69331855 0 29163
0.16450000 0.16449100 8866.05883408 0 106.31832844 0 2038.14053360 0 -23.68680385 0 556.83576102 0 28996
0.16550000 0.16550500 8866.00337809 0 152.63039768 0 2311.59399436 0 102.94982102 0 1125.16865681 0 30777
0.16650000 0.16650700 8596.72020739 0 120.16757334 0 2339.48835468 0 -34.51380849 0 738.76688281 0 29211
0.16750000 0.16749900 8486.92844880 0 84.13804187 0 2072.57870012 0 146.02004430 0 1703.67439843 0 30922
0.16850000 0.16850800 8543.85956273 0 -47.66408615 0 1997.50238798 0 464.97957702 0 1015.78172690 0 30867
0.16950000 0.16949900 8419.28323861 0 74.09939952 0 1759.19693035 0 -49.66671267 0 1110.11790255 0 30852
0.17050000 0.17049200 8406.87218922 0 194.03050853 0 2168.88356322 0 -301.29347422 0 646.69996606 0 31257
0.17150000 0.17149500 8191.34805013 0 58.69827434 0 1871.72821459 0 -172.43594807 0 821.01587201 0 32608
0.17250000 0.17250900 8172.16027940 0 -34.25726910 0 2130.27510665 0 54.56669257 0 841.36045458 0 32361
0.17350000 0.17350400 8279.99998733 0 -69.54845958 0 1680.84871511 0 199.00047388 0 -16.25292910 0 32508
0.17450000 0.17449800 8361.44264652 0 93.50389222 0 2009.34778632 0 77.15835163 0 246.16800715 0 32791
0.17550000 0.17549800 8221.47174104 0 135.66973931 0 1800.56709497 0 -355.07246998 0 -196.91089238 0 33633
0.17650000 0.17650100 8060.99321239 0 136.34186585 0 2165.21237704 0 -146.32061574 0 124.30902628 0 33984
0.17750000 0.17750300 7895.54582752 0 134.58945673 0 2184.46669494 0 60.07613374 0 -161.39244327 0 34069
0.17850000 0.17849800 7830.66232537 0 120.90402881 0 2071.53612761 0 20.48022790 0 260.00538446 0 34536
