### header ###
fiducial parameters:
Omega_m = 0.31
Omega_nu = 0
Omega_de = 0.69
Omega_k = 0
H_0 = 100
w_de = -1
zeff = 0
beta = 0
fgrowth = 0
b_1 = 2
gamma = 0.55
Lx = 3500 Ly = 3500 Lz = 3500
nx = 700 ny = 700 nz = 700
xoffset = 1379.75464 yoffset = 22.6059522 zoffset = 368.141391
bins = 400 dk = 0.001
kx_ny = 0.628318531 ky_ny = 0.628318531 kz_ny = 0.628318531
############################
A(data) = 3.30482945 (not used)
A(ran) = 3.29408765 (used)
Ngal = 185293
weighted Ngal = 0
Nran = 9399747
weighted Nran = 0
SN(data) = 6725.69527
SN(ran) = 131.023597
SN(data+ran) = 6856.71887
############################
13 columns: k_central k_mean P_0(k) sigma^{lin}_{P_0(k)} P^img_1(k) sigma^{lin}_{P_1(k)} P_2(k) sigma^{lin}_{P_2(k)} P^img_3(k) sigma^{lin}_{P_3(k)} P_4(k) sigma^{lin}_{P_4(k)} N_modes
### header ###
0.00050000 0 0 0 0 0 0 0 0 0 0 0 0
0.00150000 0.00179520 25421.02340533 0 -13187.10043553 0 -7608.91602478 0 -4142.15168587 0 -228874.61286444 0 3
0.00250000 0.00253879 52592.90316090 0 -44045.13949684 0 -39761.94105938 0 53926.06503408 0 83657.12757348 0 6
0.00350000 0.00331552 87714.39832911 0 -54908.96690763 0 -31411.93343691 0 -41523.00131082 0 -121466.35249815 0 7
0.00450000 0.00420575 129982.17351500 0 -23729.28313481 0 -59438.94447719 0 -28565.71047606 0 -8462.00652925 0 24
0.00550000 0.00557378 138662.14424668 0 -7069.25165487 0 -58787.00392057 0 -38973.91151621 0 6475.80607096 0 45
0.00650000 0.00659388 134663.76774684 0 20183.09473456 0 -4330.32493330 0 -38346.48250485 0 31582.07239809 0 40
0.00750000 0.00754703 130674.26420457 0 15411.88363137 0 -44660.14636762 0 -17819.89340080 0 -34362.41364907 0 57
0.00850000 0.00846663 107033.71064534 0 12547.69293146 0 30850.16431148 0 -5207.10623445 0 -2124.48550184 0 75
0.00950000 0.00948925 85872.59416389 0 14048.11005462 0 13385.63286090 0 149.51155310 0 9796.14442776 0 112
0.01050000 0.01054430 69630.53444094 0 1553.02267028 0 8544.13684265 0 16966.53670760 0 6510.79879733 0 105
0.01150000 0.01145670 80450.66253575 0 -3526.77880560 0 18165.38418574 0 14580.70933207 0 7761.32016205 0 144
0.01250000 0.01249090 72857.74001697 0 -1958.73865465 0 -7555.22354036 0 5276.29312101 0 -9841.14141378 0 169
0.01350000 0.01339930 80506.89490428 0 2057.22848355 0 10289.43650323 0 -3221.22742087 0 11454.87729615 0 180
0.01450000 0.01448870 72488.73589450 0 7092.18825016 0 15150.68594324 0 -21923.74718361 0 -8248.44553201 0 267
0.01550000 0.01550050 71985.19555305 0 6872.21654109 0 32894.49373298 0 -4890.27510243 0 -4227.85336469 0 238
0.01650000 0.01653350 61895.42277728 0 -3456.26097540 0 29857.94583249 0 5457.66746471 0 -5418.53772187 0 315
0.01750000 0.01747870 75836.94642923 0 -7135.45500946 0 35495.82306521 0 14463.91902821 0 -5682.88530994 0 297
0.01850000 0.01844180 84427.41120153 0 -7771.95661992 0 25232.47305721 0 18290.71471125 0 -2868.66045228 0 388
0.01950000 0.01947590 93334.19691080 0 1200.64425204 0 18283.06178536 0 -13611.00598289 0 -8876.86165990 0 399
0.02050000 0.02045430 86391.66218106 0 6638.52502139 0 35732.62012006 0 -22630.92190103 0 -10199.99709104 0 462
0.02150000 0.02154770 80346.95984428 0 9074.67315748 0 47111.96636500 0 -11055.20601413 0 -15254.16681077 0 571
0.02250000 0.02255340 70937.74291326 0 5194.06298684 0 48565.80046097 0 8772.39367585 0 -18798.24788360 0 510
0.02350000 0.02348930 62759.31610758 0 1330.73290104 0 47374.93864464 0 5794.15219772 0 -7230.93912398 0 555
0.02450000 0.02439640 69141.85630340 0 202.91899377 0 47547.51766915 0 18646.96395723 0 -17474.51352783 0 592
0.02550000 0.02547300 66935.59540646 0 -3459.47742251 0 27015.60479057 0 17856.38343876 0 1336.61123543 0 837
0.02650000 0.02652900 67113.38729354 0 -1145.78719193 0 20501.07935106 0 8232.49639080 0 2905.53868213 0 723
0.02750000 0.02749970 66899.99266426 0 2419.10096638 0 11265.55056425 0 816.38529729 0 4248.84900052 0 826
0.02850000 0.02848090 66738.83757260 0 1130.57006972 0 16493.38624579 0 -2300.71353015 0 2975.83468839 0 831
0.02950000 0.02946900 62862.46423920 0 1934.47111572 0 18007.00189332 0 -4139.64507536 0 7103.03544078 0 996
0.03050000 0.03053250 61799.37301171 0 2603.58084522 0 26623.19824254 0 -4394.92006432 0 1264.85119117 0 1041
0.03150000 0.03150510 61777.74517766 0 1859.89390744 0 32589.81855281 0 -3649.34762307 0 4349.11342093 0 1036
0.03250000 0.03246190 54857.28192985 0 3425.84891337 0 30538.16894133 0 2354.16200824 0 3535.89576949 0 1059
0.03350000 0.03345080 57947.40031159 0 1541.56546383 0 42054.15873267 0 -162.10449812 0 7557.98524840 0 1302
0.03450000 0.03451200 53417.09000612 0 1571.57824278 0 41979.62588918 0 4085.98586453 0 7879.81851024 0 1339
0.03550000 0.03553350 55261.00149876 0 739.02087122 0 44163.48256828 0 5454.83920948 0 14071.95612806 0 1365
0.03650000 0.03647120 51767.38537204 0 -1276.98496063 0 37060.56913067 0 4176.13511332 0 9039.32551280 0 1308
0.03750000 0.03744890 54325.68086012 0 705.15279222 0 37367.57346220 0 4153.30943000 0 13683.98605881 0 1579
0.03850000 0.03847530 51819.29217376 0 1133.62014888 0 31602.92384836 0 2825.22732503 0 10295.86939746 0 1662
0.03950000 0.03950240 50246.11679862 0 2706.18550818 0 37673.35776206 0 -440.38706603 0 12285.82977152 0 1683
0.04050000 0.04050350 47126.93948088 0 1560.19867471 0 28113.41146451 0 4348.37031073 0 5649.06825044 0 1822
0.04150000 0.04152450 44214.05842636 0 1909.61574336 0 33690.73076189 0 3828.30408583 0 10836.47651911 0 1887
0.04250000 0.04250150 41210.89502869 0 1986.11172872 0 24056.47344479 0 -1146.39720777 0 1899.47838935 0 1920
0.04350000 0.04349210 42931.69423521 0 -4.13681682 0 29412.07971517 0 4583.00458217 0 8747.41630032 0 2005
0.04450000 0.04448520 39503.07252261 0 -1374.95350328 0 19722.81006121 0 4762.30487204 0 1240.56146986 0 2151
0.04550000 0.04548030 42178.38013849 0 -523.09079431 0 15565.27488517 0 4286.47034056 0 3024.49176940 0 2274
0.04650000 0.04648670 40885.92295811 0 475.31435434 0 13753.97151155 0 1500.98277420 0 3359.72319716 0 2311
0.04750000 0.04749250 39480.44648083 0 1517.83030236 0 12398.95998039 0 -161.20278380 0 -870.34175220 0 2568
0.04850000 0.04851840 39625.96298479 0 16.32213816 0 11818.22490818 0 2891.35304124 0 3742.40276547 0 2493
0.04950000 0.04949480 37644.74247393 0 -126.02483444 0 10049.30099810 0 1173.68155226 0 -4484.52584447 0 2644
0.05050000 0.05050630 36760.77407716 0 1749.92468970 0 11483.93623216 0 -3602.38749519 0 3437.56121734 0 2829
0.05150000 0.05149060 38176.56536760 0 441.80452100 0 9190.58725678 0 -132.63629694 0 -5811.69847129 0 2784
0.05250000 0.05249300 35705.89033541 0 -315.89170764 0 12570.20806127 0 2292.76114194 0 284.62451432 0 3055
0.05350000 0.05348950 36307.25503395 0 324.07590187 0 11400.86316702 0 452.85246228 0 599.23407960 0 3009
0.05450000 0.05448610 35709.10678253 0 45.09070663 0 8980.42016581 0 2204.29775508 0 1195.64212222 0 3336
0.05550000 0.05550870 36755.33939065 0 207.47414835 0 10238.72755078 0 2230.87226297 0 4976.93062418 0 3349
0.05650000 0.05647670 34524.56694846 0 426.60625382 0 9211.87126372 0 -449.09365563 0 2365.67467068 0 3324
0.05750000 0.05747970 34517.69040635 0 1650.95793933 0 11549.70703006 0 -1000.15423040 0 7863.40353876 0 3639
0.05850000 0.05849280 33008.40032564 0 404.32071179 0 11345.18535834 0 1208.84064658 0 3678.48419745 0 3846
0.05950000 0.05951020 32716.70184590 0 367.35818884 0 11442.01150769 0 445.23391909 0 6858.50782166 0 3787
0.06050000 0.06049470 32003.09423425 0 1012.80928612 0 11615.14509206 0 -999.63848975 0 1863.67600560 0 3930
0.06150000 0.06148310 29738.49364136 0 1437.05311499 0 12740.67975836 0 -1022.98656844 0 3438.23778036 0 4083
0.06250000 0.06249100 29431.71113377 0 493.51944501 0 13316.31287998 0 -312.92370334 0 2089.64805223 0 4303
0.06350000 0.06350600 28126.16634100 0 -206.32399123 0 10449.58229596 0 450.97250439 0 -1240.97184414 0 4470
0.06450000 0.06451750 29163.74781550 0 -16.63313533 0 10906.59506622 0 2831.48276011 0 688.56812542 0 4479
0.06550000 0.06550280 28384.92396580 0 -462.02599127 0 7599.88779047 0 1389.56060966 0 204.68914880 0 4636
0.06650000 0.06648880 29340.98514274 0 -374.17927496 0 7896.18911694 0 1560.28740428 0 1265.74957813 0 4653
0.06750000 0.06749660 29792.84050641 0 -213.20164246 0 6778.68447722 0 -154.39057064 0 -429.71955280 0 5220
0.06850000 0.06852730 29647.54582639 0 156.70641256 0 6621.74404041 0 -352.16546726 0 -1321.73794032 0 5029
0.06950000 0.06949320 29282.42362285 0 968.95025691 0 7786.29753758 0 -1756.24667196 0 -1350.59723478 0 5040
0.07050000 0.07048030 28846.53958278 0 373.62138776 0 8338.72787517 0 -2000.30846081 0 -453.83070585 0 5475
0.07150000 0.07148790 28211.67946947 0 658.63076662 0 11305.47887326 0 -189.84025432 0 -3340.97907432 0 5509
0.07250000 0.07249820 27950.59269331 0 992.19296924 0 10752.73798215 0 -286.12958975 0 -3385.70987161 0 5916
0.07350000 0.07351270 26308.87372103 0 -226.62642724 0 10567.80336424 0 878.63685840 0 -2684.67967730 0 5721
0.07450000 0.07449140 26222.02964893 0 443.89632074 0 11059.80886086 0 1379.02397256 0 -2955.41579481 0 6028
0.07550000 0.07549160 26179.43945265 0 611.50205254 0 9208.66590781 0 342.68914859 0 -2515.92711573 0 6183
0.07650000 0.07648840 24783.05775686 0 278.35133333 0 9636.54210368 0 1025.29131917 0 -2435.52702906 0 6330
0.07750000 0.07749960 24602.27124661 0 196.43840739 0 8172.00500265 0 726.73071588 0 -767.17254731 0 6583
0.07850000 0.07848650 24427.25215877 0 -173.31437087 0 6770.73208901 0 642.41321844 0 -3596.83080552 0 6549
0.07950000 0.07947320 24090.63433139 0 461.55572452 0 7099.14243065 0 -842.42299124 0 -3134.30571039 0 6828
0.08050000 0.08048110 24163.28167140 0 121.96323812 0 7413.93278243 0 -1410.03495922 0 -4399.66709662 0 7147
0.08150000 0.08149960 23944.23053167 0 150.31566488 0 8046.53029157 0 -408.27250526 0 -5889.44776190 0 7386
0.08250000 0.08250610 23802.81777058 0 96.18574365 0 8380.70805562 0 -466.36375840 0 -6528.01233500 0 7227
0.08350000 0.08350160 23632.78972136 0 365.83536750 0 8780.01332815 0 201.28082398 0 -5965.87720007 0 7798
0.08450000 0.08449610 23348.07869570 0 324.98981650 0 8592.69410289 0 891.21205750 0 -4209.84126085 0 7371
0.08550000 0.08548940 22682.27414290 0 451.46828090 0 8266.08053516 0 914.47029750 0 -4374.67862989 0 8256
0.08650000 0.08650700 21982.86326335 0 391.54698026 0 8867.01267701 0 911.88937597 0 -1767.27132173 0 8037
0.08750000 0.08749060 21703.14327631 0 267.73705785 0 7794.99303598 0 1144.83334900 0 -1823.28186632 0 8155
0.08850000 0.08849210 21362.75444197 0 288.07720393 0 7903.09893264 0 376.59271942 0 -72.57835277 0 8718
0.08950000 0.08949900 20579.82684940 0 408.53869399 0 6545.95789166 0 407.08463807 0 469.98503420 0 8571
0.09050000 0.09049190 20160.35778081 0 259.78023316 0 7481.38944227 0 260.38581251 0 486.79263406 0 8932
0.09150000 0.09150830 20217.58835707 0 -194.84792975 0 6192.98054878 0 726.75955299 0 -210.14379946 0 9285
0.09250000 0.09250820 19751.86899721 0 316.23109827 0 6356.89734848 0 403.90146455 0 -639.74911293 0 9204
0.09350000 0.09350330 20062.97707161 0 -16.98084435 0 5151.00696028 0 8.61405575 0 924.80729306 0 9349
0.09450000 0.09448040 19643.28617909 0 54.71620190 0 5305.21896265 0 597.30199309 0 -991.67168298 0 9564
0.09550000 0.09549270 19894.94543784 0 189.86354584 0 4993.92233791 0 56.17081238 0 -214.20983226 0 10155
0.09650000 0.09649430 19224.03893445 0 120.21193812 0 4793.23822033 0 501.85337039 0 -795.59041213 0 9913
0.09750000 0.09749140 19201.96745252 0 396.34835942 0 4713.12650477 0 270.88473955 0 1042.90081256 0 10476
0.09850000 0.09850240 18469.39389409 0 397.35433099 0 4905.62531900 0 -126.22003951 0 109.32992115 0 10575
0.09950000 0.09950330 18340.29236161 0 325.74845437 0 5616.04975713 0 -231.69510425 0 1494.58315356 0 10882
0.10050000 0.10051200 17908.17932851 0 188.52040189 0 5126.72833016 0 169.91602813 0 911.26494158 0 10875
0.10150000 0.10150300 17671.82592154 0 135.59321005 0 5948.46402086 0 832.06603153 0 1950.53116891 0 11118
0.10250000 0.10250800 17555.25744162 0 217.60817500 0 5468.34828737 0 -111.13933902 0 1795.33205001 0 11575
0.10350000 0.10349800 17536.18058287 0 76.16968234 0 5109.79207242 0 162.99179387 0 690.33051661 0 11364
0.10450000 0.10450100 16957.88557398 0 366.62062424 0 5949.68405253 0 74.17282324 0 1881.99866296 0 12093
0.10550000 0.10551000 16519.11782271 0 347.13560944 0 5255.12002604 0 -873.58592731 0 429.36241626 0 12067
0.10650000 0.10649700 16270.45318713 0 88.87586847 0 6218.76758169 0 425.60915521 0 1233.81802211 0 12054
0.10750000 0.10749900 16215.44085027 0 123.81879537 0 5128.94656955 0 96.60377086 0 -495.13210504 0 12807
0.10850000 0.10850100 15997.94247812 0 138.46693918 0 4620.75901658 0 579.22445118 0 -345.17357670 0 12736
0.10950000 0.10950300 15727.87183243 0 -71.99783952 0 4157.08043697 0 585.88471495 0 -558.39629244 0 12933
0.11050000 0.11050200 15410.33086380 0 304.73839999 0 3738.28793140 0 344.46928570 0 -826.91084319 0 13428
0.11150000 0.11150900 15311.39738702 0 157.30200984 0 3541.86283345 0 321.42954228 0 -156.20509046 0 13453
0.11250000 0.11250000 14638.49446817 0 365.65458099 0 3628.65144957 0 68.79492366 0 -1240.65019943 0 13668
0.11350000 0.11349100 14422.54886359 0 296.79488474 0 2893.18308873 0 -278.51881040 0 345.33328994 0 13791
0.11450000 0.11448600 14159.79840789 0 7.16720911 0 3749.19057800 0 22.94080994 0 -626.20010674 0 14205
0.11550000 0.11549300 14361.10363250 0 131.12345768 0 3318.73013324 0 486.50204470 0 659.96060113 0 14776
0.11650000 0.11649800 14069.29424079 0 141.22199250 0 3826.58495030 0 18.03472989 0 470.81354661 0 14553
0.11750000 0.11747300 14087.04015591 0 121.54953648 0 3413.53768475 0 -16.18837833 0 898.02094331 0 14568
0.11850000 0.11849100 14029.80957965 0 49.20132605 0 4238.15708666 0 107.29169189 0 1636.79448083 0 16015
0.11950000 0.11950300 13819.85322142 0 79.20589750 0 4453.28194267 0 -315.99152841 0 1156.16855228 0 15270
0.12050000 0.12050700 13858.00693893 0 142.76145064 0 4477.67148475 0 101.93431102 0 1742.21630782 0 15999
0.12150000 0.12150000 13892.94420931 0 -107.22791750 0 4583.94733391 0 -39.18286967 0 1117.12753902 0 15670
0.12250000 0.12250700 14052.10288552 0 48.40364716 0 4494.04209145 0 493.12348928 0 2070.03881602 0 16887
0.12350000 0.12352200 13806.65469706 0 81.36679540 0 4602.29217366 0 91.68171948 0 1441.14576666 0 16407
0.12450000 0.12449800 13893.60968113 0 140.03856179 0 4276.16661860 0 409.08438088 0 1760.55005638 0 16306
0.12550000 0.12549900 13537.47134712 0 123.32080063 0 4096.18976572 0 53.06605362 0 1885.02655973 0 17523
0.12650000 0.12650100 13412.36264555 0 36.70321076 0 4264.42104103 0 290.73132736 0 1853.20591568 0 17154
0.12750000 0.12750600 13422.23381083 0 188.55034812 0 4033.31377022 0 -6.62093438 0 1827.16378525 0 18007
0.12850000 0.12850300 13076.07755408 0 170.22436340 0 3684.41798782 0 -151.94828907 0 1760.96043067 0 17496
0.12950000 0.12949900 13049.79141731 0 280.84685264 0 4218.86949516 0 174.93923122 0 1970.00731075 0 18405
0.13050000 0.13049000 12641.74628158 0 1.97519799 0 4210.28490873 0 263.96826913 0 2421.95140399 0 18100
0.13150000 0.13148800 12758.09293757 0 -33.22467867 0 3573.53929193 0 832.91561722 0 2331.95743195 0 19059
0.13250000 0.13249300 12760.20026499 0 87.86834414 0 3824.87690597 0 216.89279280 0 2477.81776302 0 18957
0.13350000 0.13349100 12460.29429951 0 256.37079922 0 3317.23282165 0 -321.32084855 0 2382.30037490 0 19468
0.13450000 0.13450700 12372.23019574 0 341.91831040 0 4059.08971193 0 -338.07410154 0 3000.90079349 0 19953
0.13550000 0.13551000 11805.69185563 0 179.61971634 0 4241.95027601 0 -420.27096212 0 2265.18842633 0 19956
0.13650000 0.13649900 11792.49333126 0 151.86177773 0 4614.08211602 0 271.27625880 0 2073.24417194 0 19723
0.13750000 0.13749600 11642.54034852 0 -54.82101372 0 3830.32268367 0 254.11706800 0 1508.56915291 0 20946
0.13850000 0.13851100 11691.45252706 0 -12.86035377 0 3917.26657655 0 415.66478803 0 1824.91227227 0 20955
0.13950000 0.13949800 11623.01984189 0 52.38538687 0 3288.39570959 0 293.94888360 0 1659.40943141 0 20506
0.14050000 0.14048300 11566.01108958 0 26.49010388 0 2911.39483412 0 247.16066927 0 1029.17989282 0 21447
0.14150000 0.14148400 11192.57048833 0 306.35438739 0 3219.53046774 0 -234.81283971 0 787.05129960 0 21771
0.14250000 0.14249400 10802.34890610 0 308.72457617 0 2684.02529668 0 -399.32856404 0 369.94465597 0 22470
0.14350000 0.14350900 10710.89089606 0 123.36627454 0 3191.55846903 0 -126.40082602 0 106.68788712 0 22519
0.14450000 0.14449900 10333.24673117 0 135.12516154 0 2907.30218245 0 120.11544471 0 -551.71606451 0 22218
0.14550000 0.14550500 10327.25748482 0 45.40547480 0 2869.86939275 0 158.67953650 0 -204.79673341 0 23559
0.14650000 0.14650700 10167.59970475 0 144.13232258 0 2452.54092518 0 32.89848656 0 -937.88048690 0 23044
0.14750000 0.14750500 10130.10036787 0 50.21983066 0 2787.49507301 0 349.01002173 0 -235.35298100 0 23649
0.14850000 0.14849900 9881.89047137 0 -6.02697860 0 1986.45555582 0 335.64512941 0 -119.71172514 0 23640
0.14950000 0.14949500 10020.82989554 0 -136.74003982 0 1944.16482186 0 644.49392699 0 652.67479385 0 24457
0.15050000 0.15050000 9992.14806023 0 32.30810215 0 1688.71237375 0 545.33862627 0 272.21457406 0 24591
0.15150000 0.15149900 10144.95148058 0 152.09802023 0 1545.28101481 0 -67.12059657 0 920.52498191 0 25020
0.15250000 0.15250500 9751.43581286 0 244.65184052 0 1601.73520728 0 -379.94004266 0 672.40048763 0 25297
0.15350000 0.15350100 9369.08898047 0 315.18852575 0 2226.77961129 0 -685.85300041 0 619.63300903 0 25452
0.15450000 0.15450400 9276.24457081 0 154.28964075 0 2219.02686463 0 -214.23312377 0 366.79586515 0 26061
0.15550000 0.15549900 9192.58367223 0 0.68223838 0 2616.77936959 0 -79.06670298 0 139.71802620 0 26128
0.15650000 0.15649500 9250.66827065 0 -70.10002481 0 2566.23678509 0 91.85440941 0 -85.80094503 0 26331
0.15750000 0.15749700 9354.21568536 0 -18.45098251 0 2370.75443888 0 125.56233153 0 -202.02171593 0 27345
0.15850000 0.15849900 9295.48779752 0 87.26387391 0 2535.68053750 0 -31.90338437 0 236.23362204 0 26980
0.15950000 0.15949700 9318.22475126 0 148.95255678 0 2609.28172045 0 -59.06550388 0 57.21216487 0 27777
0.16050000 0.16050000 9215.14316682 0 13.43787240 0 2527.24013662 0 366.08159207 0 372.90933291 0 28224
0.16150000 0.16150500 9025.43933422 0 40.50782405 0 2595.85028094 0 110.08733899 0 556.09930555 0 28075
0.16250000 0.16249700 9067.05350517 0 155.51965449 0 2584.01597380 0 169.59105606 0 921.23481852 0 28590
0.16350000 0.16349900 8829.28042500 0 84.17874657 0 2465.35125765 0 135.41020530 0 889.12136688 0 29163
0.16450000 0.16449100 8846.74906019 0 87.89141383 0 2360.40635213 0 24.41616096 0 1091.25399478 0 28996
0.16550000 0.16550500 8530.78304153 0 209.38405247 0 2368.17018999 0 -0.45073737 0 650.35007897 0 30777
0.16650000 0.16650700 8431.88283834 0 137.17814210 0 2429.41577954 0 -71.33092585 0 987.23742244 0 29211
0.16750000 0.16749900 8146.89453276 0 97.08745796 0 2476.38699861 0 160.57834942 0 547.48920936 0 30922
0.16850000 0.16850800 8168.56673159 0 83.96912294 0 2175.23881908 0 32.11799903 0 607.19977725 0 30867
0.16950000 0.16949900 7988.43460196 0 26.72412813 0 2118.18570197 0 51.77980751 0 660.03047567 0 30852
0.17050000 0.17049200 8027.83053352 0 95.85655692 0 2282.63487913 0 -78.91530814 0 299.65308619 0 31257
0.17150000 0.17149500 7910.15293390 0 60.97185881 0 2284.08782593 0 -200.90372328 0 243.02254369 0 32608
0.17250000 0.17250900 7902.97692947 0 138.14418535 0 2423.59290114 0 -28.64013241 0 271.48255506 0 32361
0.17350000 0.17350400 7787.30683650 0 15.60187584 0 2363.99989994 0 11.11892494 0 397.69926721 0 32508
0.17450000 0.17449800 7740.94563325 0 53.33601336 0 2591.14761344 0 366.71157206 0 572.81595759 0 32791
0.17550000 0.17549800 7737.08589672 0 -18.95330282 0 1976.44020498 0 429.60974995 0 790.68810308 0 33633
0.17650000 0.17650100 7730.86373523 0 19.49910062 0 2114.07086791 0 535.02159487 0 1490.00248922 0 33984
0.17750000 0.17750300 7696.01519442 0 84.56438748 0 1799.75743759 0 96.00839541 0 1473.19932584 0 34069
0.17850000 0.17849800 7614.49489685 0 34.31971254 0 1646.12217746 0 180.32511646 0 1614.39026300 0 34536
