### header ###
fiducial parameters:
Omega_m = 0.31
Omega_nu = 0
Omega_de = 0.69
Omega_k = 0
H_0 = 100
w_de = -1
zeff = 0
beta = 0
fgrowth = 0
b_1 = 2
gamma = 0.55
Lx = 3500 Ly = 3500 Lz = 3500
nx = 700 ny = 700 nz = 700
xoffset = 1379.75464 yoffset = 22.6059522 zoffset = 368.141391
bins = 400 dk = 0.001
kx_ny = 0.628318531 ky_ny = 0.628318531 kz_ny = 0.628318531
############################
A(data) = 3.36155049 (not used)
A(ran) = 3.36236325 (used)
Ngal = 188779
weighted Ngal = 0
Nran = 9399747
weighted Nran = 0
SN(data) = 6619.09513
SN(ran) = 133.739286
SN(data+ran) = 6752.83442
############################
13 columns: k_central k_mean P_0(k) sigma^{lin}_{P_0(k)} P^img_1(k) sigma^{lin}_{P_1(k)} P_2(k) sigma^{lin}_{P_2(k)} P^img_3(k) sigma^{lin}_{P_3(k)} P_4(k) sigma^{lin}_{P_4(k)} N_modes
### header ###
0.00050000 0 0 0 0 0 0 0 0 0 0 0 0
0.00150000 0.00179520 24507.66333664 0 -28390.91321215 0 -22574.91135644 0 -7688.72827802 0 53759.25343197 0 3
0.00250000 0.00253879 33640.82037562 0 -17584.42728959 0 -17498.13777733 0 -25221.38186026 0 -23428.93352146 0 6
0.00350000 0.00331552 55701.76566549 0 -14998.29289717 0 -42492.26101212 0 -8000.25781790 0 4585.48901029 0 7
0.00450000 0.00420575 64700.05374958 0 -10666.10464279 0 -30047.82712425 0 -25937.76227114 0 1983.54966222 0 24
0.00550000 0.00557378 75850.36677754 0 -1307.82957935 0 -24330.64783335 0 -26403.37071903 0 -835.42999157 0 45
0.00650000 0.00659388 71433.74124078 0 1606.31587162 0 8324.10967760 0 -16093.99224369 0 -13353.13565384 0 40
0.00750000 0.00754703 67379.57602030 0 8562.60368557 0 2405.41442934 0 -8477.75602892 0 -7260.54152864 0 57
0.00850000 0.00846663 66714.76967522 0 6121.42014607 0 33424.20929922 0 -11930.91146917 0 -8965.43595873 0 75
0.00950000 0.00948925 57491.77394096 0 4244.47906892 0 46434.40514343 0 -12581.41017019 0 4927.58588896 0 112
0.01050000 0.01054430 61797.82024414 0 -1086.44041530 0 49842.06449380 0 15945.70294049 0 2851.18072589 0 105
0.01150000 0.01145670 63975.68767689 0 -88.79157538 0 64960.47505392 0 3083.23074844 0 745.99945234 0 144
0.01250000 0.01249090 77398.91969545 0 -2924.80409123 0 61398.31533006 0 18176.14264678 0 19853.46436126 0 169
0.01350000 0.01339930 76294.34739137 0 -3525.13730845 0 66600.97399453 0 29410.41603563 0 39299.21632270 0 180
0.01450000 0.01448870 94541.80643453 0 -6252.12990211 0 56893.29295363 0 10316.25501745 0 40741.51557385 0 267
0.01550000 0.01550050 89972.23329186 0 -1877.90601129 0 64055.54429492 0 27386.60532849 0 11740.58652954 0 238
0.01650000 0.01653350 90074.82686363 0 9627.19222465 0 65959.68098699 0 -18347.61255160 0 38356.90822998 0 315
0.01750000 0.01747870 85619.04940165 0 18019.97859375 0 69305.89510627 0 -14189.96646359 0 14166.56403803 0 297
0.01850000 0.01844180 69967.70682817 0 4400.29929484 0 92777.86247188 0 11610.81952525 0 37734.69208118 0 388
0.01950000 0.01947590 71702.03729496 0 -1941.28111065 0 73306.04619761 0 30595.17769364 0 16648.10844322 0 399
0.02050000 0.02045430 71446.60702924 0 -6449.63084616 0 63269.40025523 0 26069.19295498 0 18022.97321692 0 462
0.02150000 0.02154770 76969.57946158 0 3496.95457700 0 44026.17355006 0 6399.89791905 0 15280.23112360 0 571
0.02250000 0.02255340 68643.86156043 0 7124.17526216 0 46325.48958940 0 -6757.26737592 0 12567.98982188 0 510
0.02350000 0.02348930 60504.25394407 0 5478.77401250 0 47405.77217215 0 -3592.42760033 0 15194.82890710 0 555
0.02450000 0.02439640 59863.84823228 0 -491.90789409 0 48695.34564132 0 8361.05445463 0 552.22515045 0 592
0.02550000 0.02547300 56519.40870451 0 667.76547642 0 40812.16649841 0 7244.31510750 0 258.74986096 0 837
0.02650000 0.02652900 55918.70947779 0 3941.51193308 0 39707.15054645 0 2157.85891346 0 -6079.57305999 0 723
0.02750000 0.02749970 53227.20871437 0 2345.57742181 0 44093.94076341 0 1315.60450841 0 6436.72069292 0 826
0.02850000 0.02848090 49630.44445603 0 352.16103078 0 38144.73363236 0 8172.74811284 0 -4001.72604131 0 831
0.02950000 0.02946900 50216.50330277 0 -2034.66898895 0 32623.31396759 0 8217.64527809 0 7657.02963714 0 996
0.03050000 0.03053250 51701.83639808 0 342.60374637 0 28238.85290199 0 6698.51730568 0 3821.98210357 0 1041
0.03150000 0.03150510 51259.96311166 0 -958.65873526 0 24126.68072147 0 4794.44716079 0 6819.75517952 0 1036
0.03250000 0.03246190 54228.07832698 0 -1980.07811758 0 15008.49679837 0 5192.93168475 0 7446.24143914 0 1059
0.03350000 0.03345080 53810.16202597 0 -1529.12114086 0 19710.83156850 0 3273.10094900 0 -928.65372016 0 1302
0.03450000 0.03451200 57623.42644873 0 1391.52375152 0 10481.38075762 0 -4368.33446524 0 -1685.82866254 0 1339
0.03550000 0.03553350 53396.12764389 0 2049.61992244 0 18731.47887798 0 -5825.18536678 0 -7091.47841356 0 1365
0.03650000 0.03647120 51833.15616995 0 1564.40223835 0 14370.42023793 0 -859.79513302 0 -3366.74392483 0 1308
0.03750000 0.03744890 50765.29572777 0 971.71751055 0 19671.12508343 0 962.17242646 0 -9680.86252668 0 1579
0.03850000 0.03847530 50436.33082629 0 658.87366383 0 19999.20268916 0 2255.23962266 0 -3941.26792675 0 1662
0.03950000 0.03950240 48434.36977713 0 973.74054487 0 17333.54441462 0 3796.28380024 0 -6611.36268006 0 1683
0.04050000 0.04050350 46822.70794859 0 1338.56328609 0 17750.46250790 0 841.64660746 0 315.84956109 0 1822
0.04150000 0.04152450 44976.57821655 0 1362.91955459 0 18524.40623095 0 3721.25185289 0 6511.84136985 0 1887
0.04250000 0.04250150 44915.46572137 0 640.00753782 0 17918.82687758 0 3303.76810856 0 5184.91274936 0 1920
0.04350000 0.04349210 44001.44018087 0 572.15270401 0 18439.78039824 0 391.51703403 0 10417.05181532 0 2005
0.04450000 0.04448520 41714.76810605 0 1010.08085167 0 15773.45665188 0 3934.94594449 0 12241.46498372 0 2151
0.04550000 0.04548030 41465.77073456 0 -370.30290163 0 15486.86012274 0 4222.77359649 0 19918.68059931 0 2274
0.04650000 0.04648670 42685.02601508 0 -606.19935128 0 13701.84288590 0 4871.96353626 0 17472.51711238 0 2311
0.04750000 0.04749250 43204.64859211 0 -94.32441897 0 14060.86493111 0 3203.03785787 0 23408.74754301 0 2568
0.04850000 0.04851840 41995.04265293 0 1635.49681079 0 12957.29083476 0 707.78362413 0 21074.49423329 0 2493
0.04950000 0.04949480 42182.37296939 0 528.97467429 0 11909.17272315 0 -1602.78887099 0 19440.76092281 0 2644
0.05050000 0.05050630 39745.85882380 0 1383.49372493 0 17824.77352746 0 -2356.65752756 0 19403.93814895 0 2829
0.05150000 0.05149060 38014.74480412 0 2800.01703437 0 19016.18990364 0 -3495.77891013 0 16404.10211036 0 2784
0.05250000 0.05249300 36135.89604110 0 1702.50982275 0 21866.51660736 0 164.33937430 0 16010.47553067 0 3055
0.05350000 0.05348950 33315.62648110 0 647.57062502 0 19986.66963661 0 989.40686056 0 8950.06355976 0 3009
0.05450000 0.05448610 33091.58430275 0 193.64453488 0 21735.41865943 0 3027.66385173 0 14310.08412654 0 3336
0.05550000 0.05550870 33111.88119316 0 -421.66845294 0 16053.28755089 0 3338.01772473 0 8730.09185069 0 3349
0.05650000 0.05647670 33026.47897666 0 43.06367948 0 13564.64477965 0 2751.48195652 0 8000.12472354 0 3324
0.05750000 0.05747970 32957.60264361 0 -282.97968982 0 12051.47278000 0 1469.31740691 0 7501.86379184 0 3639
0.05850000 0.05849280 32401.60094060 0 -146.20526729 0 8739.77446562 0 994.85263826 0 3325.66213133 0 3846
0.05950000 0.05951020 31694.64804712 0 1213.03311903 0 9549.45402524 0 -2229.00894188 0 3282.37318964 0 3787
0.06050000 0.06049470 31478.92426648 0 1015.13289188 0 9999.06896713 0 -3366.15609139 0 -2682.87181220 0 3930
0.06150000 0.06148310 29291.96205223 0 459.41623263 0 11689.34519964 0 -767.02725263 0 -718.07403666 0 4083
0.06250000 0.06249100 29934.69691537 0 -284.08326391 0 12145.96977800 0 -199.20233367 0 -3714.90768823 0 4303
0.06350000 0.06350600 30621.79656632 0 -423.19903812 0 11847.28384418 0 1284.41606259 0 -2772.59959551 0 4470
0.06450000 0.06451750 31902.71890187 0 -662.44392013 0 11014.52350372 0 1528.47785143 0 -2530.67840768 0 4479
0.06550000 0.06550280 32203.40125113 0 120.77093445 0 12017.20098143 0 1370.36174774 0 -65.68595025 0 4636
0.06650000 0.06648880 31992.44668518 0 202.88793841 0 11535.17756206 0 -90.03578585 0 1367.40039816 0 4653
0.06750000 0.06749660 32175.11869892 0 272.06151554 0 12218.83894195 0 841.05544666 0 994.13392870 0 5220
0.06850000 0.06852730 31536.37666667 0 100.92445754 0 11973.94531333 0 524.68681755 0 2298.78366188 0 5029
0.06950000 0.06949320 31193.88050491 0 378.98952708 0 11582.64788500 0 527.62598474 0 840.94231645 0 5040
0.07050000 0.07048030 30533.17790270 0 564.94897159 0 10725.65327920 0 816.13685448 0 3364.81405656 0 5475
0.07150000 0.07148790 29794.61509792 0 637.49538171 0 10404.79604269 0 -122.31593818 0 1281.73199293 0 5509
0.07250000 0.07249820 28478.09002016 0 497.21614095 0 9997.09473407 0 1679.91705457 0 2636.72134170 0 5916
0.07350000 0.07351270 28270.13007739 0 428.76681898 0 7991.32940436 0 1463.30597817 0 1322.95797198 0 5721
0.07450000 0.07449140 27141.60078790 0 -101.43487443 0 6635.79658694 0 1207.05496388 0 895.82044983 0 6028
0.07550000 0.07549160 28089.56539107 0 15.61163609 0 5521.98531581 0 784.30733748 0 1761.88100001 0 6183
0.07650000 0.07648840 27485.76062921 0 -297.53799493 0 4139.19033629 0 900.06505090 0 -919.60552169 0 6330
0.07750000 0.07749960 27292.88471428 0 504.79253758 0 4818.81452049 0 -1442.24379516 0 -458.66203124 0 6583
0.07850000 0.07848650 26977.34016110 0 478.03058847 0 4321.69598207 0 -1383.20535381 0 -4277.18700872 0 6549
0.07950000 0.07947320 26078.62047239 0 857.88633803 0 6040.01076047 0 -2503.26096882 0 -4550.78465504 0 6828
0.08050000 0.08048110 24990.68496374 0 1420.97087942 0 8671.40832763 0 -2748.29878300 0 -7216.38747359 0 7147
0.08150000 0.08149960 23032.86687843 0 1326.81770852 0 10460.76222249 0 -1748.98193796 0 -5556.22384079 0 7386
0.08250000 0.08250610 22265.02331371 0 390.21160015 0 11045.35703124 0 1033.77275747 0 -5473.84952105 0 7227
0.08350000 0.08350160 22202.80169883 0 -300.45830709 0 10888.64950955 0 2547.19319993 0 -4562.90733330 0 7798
0.08450000 0.08449610 22804.83186918 0 -390.67188483 0 10951.47004907 0 1324.99875222 0 -3107.55374335 0 7371
0.08550000 0.08548940 22466.99401014 0 150.58739921 0 8321.28142237 0 1798.75922987 0 -1669.91279492 0 8256
0.08650000 0.08650700 22805.71916494 0 -93.14819754 0 7826.58076489 0 862.44925645 0 2346.90836544 0 8037
0.08750000 0.08749060 21948.92420069 0 -8.64349178 0 6621.14511577 0 1650.02627879 0 1079.23002817 0 8155
0.08850000 0.08849210 22845.98020986 0 109.89135754 0 6734.45278379 0 1058.61814776 0 3268.17645755 0 8718
0.08950000 0.08949900 21659.00031246 0 176.10824338 0 5673.02523585 0 255.23284241 0 1347.71352357 0 8571
0.09050000 0.09049190 21692.93937512 0 653.63418239 0 5752.07219650 0 351.23713408 0 3410.39887602 0 8932
0.09150000 0.09150830 21082.70171903 0 68.54137890 0 5324.78383407 0 -833.85393248 0 1411.64318278 0 9285
0.09250000 0.09250820 20446.73248602 0 422.36830746 0 5408.92165412 0 -293.79804332 0 -58.10300980 0 9204
0.09350000 0.09350330 20422.88641258 0 848.49209421 0 6823.60382486 0 -1590.62182794 0 -802.70097849 0 9349
0.09450000 0.09448040 18990.12559081 0 665.44297978 0 6585.36491442 0 -1210.02740466 0 -2452.65183715 0 9564
0.09550000 0.09549270 18805.78989753 0 76.76616691 0 7413.21185463 0 481.42338561 0 -1671.35465052 0 10155
0.09650000 0.09649430 18411.60875799 0 96.72832500 0 7084.35786512 0 194.96327820 0 -3987.19657331 0 9913
0.09750000 0.09749140 18406.39589542 0 426.83584159 0 6844.23345119 0 484.66201512 0 -2627.24945950 0 10476
0.09850000 0.09850240 17702.54853709 0 329.08135905 0 7348.90509473 0 -14.79310575 0 -2491.09392577 0 10575
0.09950000 0.09950330 17674.04416093 0 304.44559239 0 6077.66537411 0 765.22826049 0 -1470.23797626 0 10882
0.10050000 0.10051200 16836.10423149 0 174.34807043 0 7319.48014922 0 799.53222353 0 -981.18384714 0 10875
0.10150000 0.10150300 16908.52974757 0 304.13503888 0 5824.48662137 0 483.83461183 0 224.17305448 0 11118
0.10250000 0.10250800 16612.17296511 0 -85.67284171 0 7142.08754523 0 473.71389462 0 463.32698867 0 11575
0.10350000 0.10349800 16567.47544141 0 100.72781062 0 5618.73382679 0 537.04019271 0 1111.06065429 0 11364
0.10450000 0.10450100 16726.74502958 0 3.57142087 0 6078.76340261 0 102.46779760 0 1787.02474349 0 12093
0.10550000 0.10551000 16480.85319324 0 91.09399695 0 5586.36971409 0 -26.49354215 0 1291.69188779 0 12067
0.10650000 0.10649700 16359.51549863 0 494.49768858 0 6805.96882172 0 -286.55438259 0 1250.39936155 0 12054
0.10750000 0.10749900 15582.46624044 0 438.30746660 0 6631.37119936 0 -945.02432685 0 897.72259011 0 12807
0.10850000 0.10850100 15238.08457519 0 348.80594370 0 7397.45126377 0 101.47003352 0 1048.51850382 0 12736
0.10950000 0.10950300 14972.33949631 0 188.08119049 0 7421.41934037 0 247.63315426 0 -370.30955635 0 12933
0.11050000 0.11050200 14716.90923060 0 153.57647678 0 7330.85971729 0 -30.26521458 0 -19.37243915 0 13428
0.11150000 0.11150900 14433.52914857 0 155.87900927 0 6722.78484460 0 44.52150641 0 -405.99548253 0 13453
0.11250000 0.11250000 14352.00885100 0 -85.95267261 0 6227.10816179 0 1422.56801178 0 15.90788196 0 13668
0.11350000 0.11349100 14602.78081400 0 -223.11273605 0 5157.30676015 0 841.54013197 0 57.40082613 0 13791
0.11450000 0.11448600 14727.55677967 0 -149.97516513 0 5034.42738916 0 476.78504705 0 214.12553916 0 14205
0.11550000 0.11549300 14582.04027571 0 85.35408071 0 4193.55938373 0 370.61567338 0 -130.99590892 0 14776
0.11650000 0.11649800 14544.33020608 0 279.54918260 0 4561.58748086 0 -735.01694912 0 30.98813880 0 14553
0.11750000 0.11747300 14242.53873712 0 242.75635496 0 4837.05953947 0 -393.83398508 0 -225.88886265 0 14568
0.11850000 0.11849100 14089.48021924 0 71.83690625 0 4922.22884083 0 -171.03845726 0 -452.20473637 0 16015
0.11950000 0.11950300 14116.65365176 0 125.62887871 0 5454.05173450 0 82.58205785 0 -212.91216222 0 15270
0.12050000 0.12050700 14117.09729964 0 59.84399499 0 4868.88018351 0 276.73534594 0 -592.71578315 0 15999
0.12150000 0.12150000 14076.94716668 0 -133.89403868 0 5409.65367312 0 734.77072455 0 267.63169148 0 15670
0.12250000 0.12250700 13943.96371527 0 2.25135770 0 4493.45425801 0 474.82301431 0 825.61982787 0 16887
0.12350000 0.12352200 14012.84004832 0 7.07160299 0 4322.98256092 0 565.60335221 0 430.30627712 0 16407
0.12450000 0.12449800 14120.64648266 0 93.83252439 0 4207.91139258 0 229.84731084 0 965.38000061 0 16306
0.12550000 0.12549900 13693.52448818 0 247.49118694 0 3744.56554887 0 135.24161911 0 964.43946711 0 17523
0.12650000 0.12650100 13467.04224650 0 143.88498889 0 3452.73397477 0 314.84469865 0 1073.10657833 0 17154
0.12750000 0.12750600 13265.29337401 0 121.04155966 0 3421.36806980 0 223.69169653 0 595.98990449 0 18007
0.12850000 0.12850300 12879.87428006 0 310.83744919 0 3361.24269114 0 -163.06055929 0 287.22761825 0 17496
0.12950000 0.12949900 12440.66288091 0 412.95964509 0 3445.92397984 0 -684.10280953 0 27.22190105 0 18405
0.13050000 0.13049000 12163.38295721 0 140.18163823 0 3590.28699932 0 -124.75267415 0 -829.27215902 0 18100
0.13150000 0.13148800 12068.44231133 0 146.07106381 0 3985.59944095 0 -264.79899978 0 -536.84055117 0 19059
0.13250000 0.13249300 11870.24262187 0 55.32876871 0 3526.00242181 0 -85.43848472 0 -1517.04282738 0 18957
0.13350000 0.13349100 12028.51400232 0 -95.17821932 0 3778.44915555 0 526.21407537 0 -1087.04155818 0 19468
0.13450000 0.13450700 12167.93034796 0 11.37413338 0 3216.39165900 0 225.08253263 0 -883.33398031 0 19953
0.13550000 0.13551000 11783.28763779 0 227.04789273 0 3505.39497788 0 80.49258726 0 -510.07194733 0 19956
0.13650000 0.13649900 11728.16438896 0 218.01078545 0 3756.18912327 0 232.45485124 0 266.52811738 0 19723
0.13750000 0.13749600 11546.37967098 0 -0.40363971 0 3137.87707580 0 399.63911756 0 68.29426703 0 20946
0.13850000 0.13851100 11508.00412954 0 -87.73846623 0 3319.52869942 0 624.95678356 0 638.19190888 0 20955
0.13950000 0.13949800 11596.40096921 0 139.19673994 0 2608.07277998 0 99.33830547 0 401.28948766 0 20506
0.14050000 0.14048300 11412.95257169 0 50.93698746 0 2707.81591414 0 -283.02627284 0 675.55260580 0 21447
0.14150000 0.14148400 11168.83532686 0 220.19464213 0 2819.11607551 0 -52.79332109 0 -215.55297621 0 21771
0.14250000 0.14249400 11037.54882858 0 229.39035352 0 3063.06695239 0 -353.67719740 0 100.60004003 0 22470
0.14350000 0.14350900 10594.51096649 0 186.22119676 0 2852.77785825 0 -246.40424964 0 -966.35935330 0 22519
0.14450000 0.14449900 10603.65011277 0 198.04441271 0 3475.41547253 0 -247.55884324 0 -892.49974547 0 22218
0.14550000 0.14550500 10292.06511691 0 151.21627007 0 3098.01531397 0 -49.71329570 0 -809.47215423 0 23559
0.14650000 0.14650700 10198.46650586 0 127.24930259 0 3329.76587420 0 67.12603126 0 -1412.67466410 0 23044
0.14750000 0.14750500 9936.84735225 0 162.50821769 0 3369.26162654 0 42.87912196 0 -571.17889692 0 23649
0.14850000 0.14849900 9762.98174889 0 241.89900544 0 3340.44669687 0 246.73143995 0 -886.96412907 0 23640
0.14950000 0.14949500 9599.23131714 0 63.73267955 0 3594.62365733 0 195.76073526 0 -44.76429271 0 24457
0.15050000 0.15050000 9366.33836362 0 26.70128027 0 3180.22326575 0 477.90747618 0 26.79655365 0 24591
0.15150000 0.15149900 9437.25547691 0 113.17235542 0 3333.61451955 0 304.94247801 0 316.33424640 0 25020
0.15250000 0.15250500 9442.24651554 0 -75.57763424 0 2887.26038956 0 141.01015064 0 626.45853163 0 25297
0.15350000 0.15350100 9237.70266142 0 72.00660156 0 3108.37449192 0 163.45429679 0 663.56745838 0 25452
0.15450000 0.15450400 9552.65938116 0 -45.72645404 0 2564.66183513 0 88.87231929 0 681.27899078 0 26061
0.15550000 0.15549900 9481.23207281 0 -28.51125270 0 2505.66775856 0 193.92736040 0 326.89417501 0 26128
0.15650000 0.15649500 9435.91344208 0 81.30712476 0 2432.16639638 0 5.32366362 0 466.82958867 0 26331
0.15750000 0.15749700 9219.71273997 0 243.12125534 0 2679.92155381 0 -273.92927311 0 123.38512957 0 27345
0.15850000 0.15849900 9121.71092373 0 213.24489813 0 2774.55164617 0 -215.92453131 0 775.18926446 0 26980
0.15950000 0.15949700 8838.18665615 0 0.15452034 0 3033.39800055 0 303.33314534 0 331.82532118 0 27777
0.16050000 0.16050000 8974.20909552 0 -49.55524614 0 2609.37045002 0 276.28171598 0 425.31634761 0 28224
0.16150000 0.16150500 8966.04597456 0 -33.48143988 0 2433.02041855 0 350.64042768 0 756.20113529 0 28075
0.16250000 0.16249700 8995.93675034 0 60.10319626 0 2285.03057767 0 62.18900676 0 419.57776231 0 28590
0.16350000 0.16349900 8898.14566685 0 147.02157939 0 2351.59994175 0 -153.40567235 0 1179.21605954 0 29163
0.16450000 0.16449100 8680.27019400 0 206.84971396 0 2553.58172937 0 -116.89456112 0 264.34869718 0 28996
0.16550000 0.16550500 8498.90694150 0 140.86818332 0 2506.85451663 0 -310.14979498 0 498.58257641 0 30777
0.16650000 0.16650700 8332.77190241 0 78.63126259 0 2619.87381353 0 110.55239288 0 -68.89962456 0 29211
0.16750000 0.16749900 8378.16817152 0 25.33506663 0 2904.93975750 0 66.97829651 0 465.64172148 0 30922
0.16850000 0.16850800 8347.29027922 0 9.02104722 0 2416.59435587 0 115.36730330 0 209.37074303 0 30867
0.16950000 0.16949900 8315.41417919 0 63.64040079 0 2629.98898515 0 208.51450263 0 466.28612002 0 30852
0.17050000 0.17049200 8240.08276952 0 78.14069895 0 2275.51433069 0 -163.69275752 0 123.08455813 0 31257
0.17150000 0.17149500 8050.74494641 0 196.73121499 0 2708.15974124 0 -18.13443975 0 299.66306827 0 32608
0.17250000 0.17250900 8051.39932703 0 89.94173250 0 2844.78110525 0 -166.77056467 0 670.79780967 0 32361
0.17350000 0.17350400 7981.90188695 0 -77.50384242 0 2603.65848360 0 437.73626996 0 447.04622067 0 32508
0.17450000 0.17449800 8075.30085646 0 -38.73777993 0 2522.97002580 0 140.07294450 0 383.86078078 0 32791
0.17550000 0.17549800 8072.13986533 0 123.88312431 0 2371.05390120 0 -104.36982696 0 340.29788653 0 33633
0.17650000 0.17650100 7849.10698589 0 153.94248628 0 2769.27223643 0 -173.83232977 0 449.77909160 0 33984
0.17750000 0.17750300 7895.11327083 0 31.71694135 0 2718.55219278 0 39.41001738 0 500.36604088 0 34069
0.17850000 0.17849800 7736.25405695 0 -72.32225703 0 2164.08107495 0 329.30872859 0 -8.02313896 0 34536
