### header ###
fiducial parameters:
Omega_m = 0.31
Omega_nu = 0
Omega_de = 0.69
Omega_k = 0
H_0 = 100
w_de = -1
zeff = 0
beta = 0
fgrowth = 0
b_1 = 2
gamma = 0.55
Lx = 3500 Ly = 3500 Lz = 3500
nx = 700 ny = 700 nz = 700
xoffset = 1379.75464 yoffset = 22.6059522 zoffset = 368.141391
bins = 400 dk = 0.001
kx_ny = 0.628318531 ky_ny = 0.628318531 kz_ny = 0.628318531
############################
A(data) = 3.33928352 (not used)
A(ran) = 3.33705571 (used)
Ngal = 186968
weighted Ngal = 0
Nran = 9399747
weighted Nran = 0
SN(data) = 6698.48718
SN(ran) = 132.732668
SN(data+ran) = 6831.21985
############################
13 columns: k_central k_mean P_0(k) sigma^{lin}_{P_0(k)} P^img_1(k) sigma^{lin}_{P_1(k)} P_2(k) sigma^{lin}_{P_2(k)} P^img_3(k) sigma^{lin}_{P_3(k)} P_4(k) sigma^{lin}_{P_4(k)} N_modes
### header ###
0.00050000 0 0 0 0 0 0 0 0 0 0 0 0
0.00150000 0.00179520 -5620.64151266 0 786.75849200 0 2352.30977835 0 -2350.37991009 0 -9463.91871437 0 3
0.00250000 0.00253879 -5452.49896693 0 -462.45411147 0 2865.52164354 0 961.11543539 0 6340.31600904 0 6
0.00350000 0.00331552 2142.41996731 0 -11796.26433822 0 -14594.57332826 0 21644.69266840 0 7813.82588840 0 7
0.00450000 0.00420575 15743.84315603 0 -23997.46827702 0 -20788.67408793 0 18696.09795971 0 1405.02173820 0 24
0.00550000 0.00557378 69344.82520756 0 -33176.65378334 0 -71293.32668742 0 10967.91829414 0 1860.50392328 0 45
0.00650000 0.00659388 97166.31636839 0 -29092.43141913 0 -41611.84179837 0 -31035.05456461 0 -39086.26534129 0 40
0.00750000 0.00754703 106919.47131677 0 9656.97208845 0 -60836.21346873 0 -63344.15492266 0 -2217.00826678 0 57
0.00850000 0.00846663 88549.12181143 0 24373.01620569 0 -17374.47093136 0 -52496.85339533 0 -10013.01060169 0 75
0.00950000 0.00948925 60876.47451365 0 15955.57410577 0 12643.29904916 0 -24594.39649678 0 -2758.39177222 0 112
0.01050000 0.01054430 49426.92099203 0 14492.64522830 0 27617.63496092 0 -981.70069692 0 -15060.18177614 0 105
0.01150000 0.01145670 40293.65304108 0 2232.96849919 0 25626.21054887 0 20490.32089002 0 -3982.31644665 0 144
0.01250000 0.01249090 38338.38593107 0 -4625.50604888 0 14951.93169393 0 14680.41919264 0 -1051.93348336 0 169
0.01350000 0.01339930 52951.81429414 0 -9852.33243150 0 -2381.33544077 0 16978.51520031 0 12419.36778277 0 180
0.01450000 0.01448870 55337.53075771 0 -4534.68023707 0 -11354.72378771 0 5457.45673196 0 -15105.76659560 0 267
0.01550000 0.01550050 63027.61216176 0 -2836.41834275 0 -10392.73991161 0 -21171.54220658 0 -19671.90146722 0 238
0.01650000 0.01653350 59179.07773269 0 4028.18963723 0 4970.44227397 0 -14098.02044089 0 -16694.58055843 0 315
0.01750000 0.01747870 64829.82075387 0 5186.65406728 0 15486.19465093 0 -22919.51484562 0 -17569.23234977 0 297
0.01850000 0.01844180 56103.37790698 0 1795.95315704 0 30971.61291806 0 1026.15865077 0 -12152.95723208 0 388
0.01950000 0.01947590 60467.09843429 0 -167.20423047 0 30778.84791510 0 12069.99507890 0 -12604.14712393 0 399
0.02050000 0.02045430 59047.09248901 0 593.70289968 0 34567.93352853 0 6507.95945091 0 5228.53442695 0 462
0.02150000 0.02154770 61605.94253693 0 -67.87734894 0 31561.99733162 0 13362.89590716 0 24805.79471061 0 571
0.02250000 0.02255340 59628.16029713 0 -3939.49333524 0 32798.66579134 0 17115.26965868 0 28140.03033718 0 510
0.02350000 0.02348930 67097.85961781 0 1736.16051429 0 14405.46842029 0 5890.46815202 0 36348.51428659 0 555
0.02450000 0.02439640 62135.99083909 0 1489.55884134 0 24292.71593978 0 3267.81044805 0 22372.38610017 0 592
0.02550000 0.02547300 58524.58620078 0 3012.81273902 0 20668.77824892 0 -1157.52167830 0 37806.45212544 0 837
0.02650000 0.02652900 57808.98217368 0 -1536.13077733 0 19706.06235382 0 5188.97212744 0 20331.60586170 0 723
0.02750000 0.02749970 59271.91105115 0 -179.61306162 0 18733.03164555 0 3421.50116416 0 21070.27957845 0 826
0.02850000 0.02848090 56123.12023755 0 3435.89753780 0 11381.45357236 0 -5308.13594745 0 1938.56376740 0 831
0.02950000 0.02946900 52272.81121697 0 4445.81756712 0 19984.89504509 0 -6774.09272169 0 9512.36506264 0 996
0.03050000 0.03053250 46298.20524490 0 1295.16343243 0 17791.16720070 0 3358.95790457 0 1040.54726057 0 1041
0.03150000 0.03150510 49001.79541300 0 -191.09023222 0 21546.53557540 0 3064.40898722 0 -646.97724598 0 1036
0.03250000 0.03246190 46019.15072969 0 -562.88489984 0 16041.08723424 0 4719.11575112 0 -2670.69367795 0 1059
0.03350000 0.03345080 46217.35041915 0 1873.18116139 0 14073.28707169 0 -336.17085214 0 -4807.11330771 0 1302
0.03450000 0.03451200 43130.44848452 0 1563.73676653 0 12115.24716245 0 -561.53399205 0 -274.17327944 0 1339
0.03550000 0.03553350 42074.01197520 0 848.13606679 0 13875.64194207 0 -1001.20678499 0 -5245.75905581 0 1365
0.03650000 0.03647120 41333.23093103 0 878.66902287 0 14379.29319549 0 3908.13852146 0 -2888.01459095 0 1308
0.03750000 0.03744890 40983.08184338 0 -77.48687289 0 11328.43765095 0 1447.21265139 0 -3227.58267672 0 1579
0.03850000 0.03847530 38680.21662102 0 1337.73144632 0 12779.27712374 0 -1745.66567007 0 -3142.75720246 0 1662
0.03950000 0.03950240 37820.31612162 0 925.06128147 0 9567.49940267 0 981.32803270 0 -1477.53598385 0 1683
0.04050000 0.04050350 37179.24493801 0 -139.25663240 0 13073.63749075 0 1407.82781103 0 -2228.63184119 0 1822
0.04150000 0.04152450 38522.27797648 0 -672.59680181 0 5813.90561949 0 5736.69979753 0 1271.09553505 0 1887
0.04250000 0.04250150 38758.40955950 0 -1177.55237999 0 8270.91629703 0 4030.99571006 0 1483.02612634 0 1920
0.04350000 0.04349210 39045.78247243 0 -610.65468510 0 302.41257599 0 2683.18236571 0 5522.45114608 0 2005
0.04450000 0.04448520 41051.84726446 0 -992.89947848 0 1977.23877116 0 3284.56924664 0 6435.35647569 0 2151
0.04550000 0.04548030 40034.34085643 0 528.01750399 0 2386.49284735 0 -2490.89428422 0 4934.45133987 0 2274
0.04650000 0.04648670 39294.66893195 0 1610.54161765 0 4433.75034484 0 -2844.14890702 0 4558.38212495 0 2311
0.04750000 0.04749250 37856.80615958 0 2361.08291514 0 9431.97606716 0 -5718.36604897 0 4420.25235815 0 2568
0.04850000 0.04851840 36287.06905550 0 1229.55900248 0 13456.39469743 0 -2504.14826458 0 3940.58027254 0 2493
0.04950000 0.04949480 35676.49866350 0 241.42097485 0 16982.84076712 0 255.67981765 0 3720.84147860 0 2644
0.05050000 0.05050630 35456.33840408 0 25.22792567 0 17067.91024771 0 1813.94307849 0 3580.22728369 0 2829
0.05150000 0.05149060 36098.96235526 0 311.76910974 0 17244.48210313 0 -514.48402548 0 3657.51074402 0 2784
0.05250000 0.05249300 35484.51004433 0 771.59460753 0 18246.12809952 0 -565.40149243 0 2711.38727955 0 3055
0.05350000 0.05348950 35843.97573742 0 823.85632755 0 21600.88244045 0 -1489.85830366 0 1357.58468886 0 3009
0.05450000 0.05448610 33395.48309913 0 523.31816385 0 19824.51633722 0 -2479.35943940 0 -51.81130651 0 3336
0.05550000 0.05550870 34367.73742361 0 24.13865921 0 22162.65156588 0 1580.25155879 0 -1551.02625483 0 3349
0.05650000 0.05647670 33633.83292155 0 -275.68279135 0 18365.58029065 0 228.88681318 0 -6109.43056217 0 3324
0.05750000 0.05747970 34779.88630221 0 234.68750919 0 18460.41002456 0 1505.25288502 0 -4554.40038524 0 3639
0.05850000 0.05849280 34399.45824688 0 86.51366535 0 18382.66073395 0 1428.34652539 0 -5155.97581652 0 3846
0.05950000 0.05951020 32651.59651981 0 1131.73464540 0 15454.80656356 0 87.88664462 0 -3960.37805909 0 3787
0.06050000 0.06049470 32558.87411332 0 295.41624896 0 14729.99684300 0 2571.10582055 0 -4182.07999489 0 3930
0.06150000 0.06148310 31797.79617874 0 -303.88215959 0 14570.39451891 0 2217.05263157 0 -1243.95537612 0 4083
0.06250000 0.06249100 31839.16634335 0 22.87404094 0 11190.79589682 0 4691.97559219 0 813.00913694 0 4303
0.06350000 0.06350600 31931.00145409 0 -416.39347967 0 11310.91355977 0 2581.33190414 0 3606.92379474 0 4470
0.06450000 0.06451750 31363.24308231 0 523.72631990 0 6918.14518765 0 463.45675568 0 2919.65777585 0 4479
0.06550000 0.06550280 30627.89672464 0 1078.90727434 0 9501.11858894 0 127.30808593 0 4387.61096554 0 4636
0.06650000 0.06648880 29592.97713740 0 1027.98758915 0 9721.95541137 0 -1837.82242552 0 4562.86296851 0 4653
0.06750000 0.06749660 28629.15212260 0 761.20215599 0 11115.26484560 0 -79.44491280 0 4044.57133512 0 5220
0.06850000 0.06852730 27802.30339011 0 46.77767769 0 11010.84122633 0 1306.38772374 0 5067.27951452 0 5029
0.06950000 0.06949320 27899.79501128 0 -163.60846442 0 10219.07394979 0 922.38386652 0 3582.07951358 0 5040
0.07050000 0.07048030 28773.55950687 0 -417.75215129 0 8485.71950833 0 1807.92055855 0 4731.22733819 0 5475
0.07150000 0.07148790 28638.80146394 0 -217.85329046 0 9035.05540198 0 567.08513612 0 4069.36016030 0 5509
0.07250000 0.07249820 28542.30805049 0 499.41996178 0 8145.26412681 0 -1348.09062427 0 1966.60231328 0 5916
0.07350000 0.07351270 28668.96951964 0 246.70371196 0 10138.01948249 0 163.89461730 0 4289.29859579 0 5721
0.07450000 0.07449140 28056.95727204 0 -1.48779534 0 8284.72483723 0 635.20394042 0 1139.60939523 0 6028
0.07550000 0.07549160 28019.57993833 0 87.35803817 0 9002.61365090 0 1369.30808403 0 4926.45458687 0 6183
0.07650000 0.07648840 28024.23824104 0 657.44844502 0 7356.46929104 0 397.89558140 0 -426.10936819 0 6330
0.07750000 0.07749960 26196.51989595 0 1188.29974984 0 10791.76790421 0 -2771.39065504 0 2935.81764980 0 6583
0.07850000 0.07848650 24822.09877012 0 1366.69056155 0 9883.36560056 0 -1166.82719254 0 1985.21334176 0 6549
0.07950000 0.07947320 24507.21968876 0 311.09698320 0 12099.71948672 0 280.39211357 0 3525.14839964 0 6828
0.08050000 0.08048110 24012.21956896 0 -372.41022905 0 10897.57792310 0 1641.70788108 0 939.48760134 0 7147
0.08150000 0.08149960 24152.85594627 0 144.25432575 0 10314.69115868 0 1385.11303968 0 2108.53636063 0 7386
0.08250000 0.08250610 24107.93659863 0 162.47716233 0 8916.35741224 0 319.55845735 0 2054.76623782 0 7227
0.08350000 0.08350160 23563.80247635 0 395.67512377 0 9044.79347290 0 993.57271414 0 3103.90473955 0 7798
0.08450000 0.08449610 22947.35374996 0 418.95110968 0 9036.15343047 0 -196.89314646 0 2704.04490717 0 7371
0.08550000 0.08548940 22851.30398439 0 325.15951181 0 8933.79277384 0 208.62430548 0 1034.54803214 0 8256
0.08650000 0.08650700 22292.19674623 0 208.76516368 0 8481.37175912 0 508.06665892 0 3417.09795897 0 8037
0.08750000 0.08749060 21267.70288413 0 458.28936702 0 8131.86596089 0 613.69700042 0 2380.93615768 0 8155
0.08850000 0.08849210 20995.19217511 0 373.08457382 0 7798.94150210 0 747.34481453 0 3509.80927427 0 8718
0.08950000 0.08949900 21116.86260563 0 -103.02623936 0 7528.20538459 0 1651.40158721 0 2913.94580942 0 8571
0.09050000 0.09049190 20643.37940791 0 78.80073608 0 5946.26796387 0 897.63718789 0 3325.56231056 0 8932
0.09150000 0.09150830 20230.56505750 0 336.47253270 0 5676.59660127 0 54.59153685 0 3782.70817518 0 9285
0.09250000 0.09250820 19847.03146703 0 575.01756018 0 5643.50046957 0 -231.02852331 0 2835.08739912 0 9204
0.09350000 0.09350330 18972.93423554 0 205.92470814 0 5606.91061084 0 96.98430983 0 3062.12420065 0 9349
0.09450000 0.09448040 18842.94540730 0 378.34512854 0 5880.94081384 0 -152.65479832 0 2101.37144740 0 9564
0.09550000 0.09549270 18458.96816896 0 289.12643117 0 5406.60359396 0 -843.75393488 0 1632.60200838 0 10155
0.09650000 0.09649430 18398.96479347 0 239.37132166 0 6197.40593636 0 -131.10460265 0 1169.94381889 0 9913
0.09750000 0.09749140 18027.63151964 0 51.09548066 0 6314.24060502 0 -256.36525362 0 281.63987323 0 10476
0.09850000 0.09850240 17921.15602894 0 285.34987861 0 6611.28504168 0 263.51685741 0 -355.57822856 0 10575
0.09950000 0.09950330 17620.80641558 0 155.35661389 0 6637.43808409 0 -473.07282343 0 -799.23497945 0 10882
0.10050000 0.10051200 17205.77382578 0 410.41310627 0 7457.04426497 0 -579.93761515 0 -796.23148331 0 10875
0.10150000 0.10150300 17085.76707480 0 440.71647458 0 6884.25048978 0 -111.06280976 0 -784.59016300 0 11118
0.10250000 0.10250800 16672.73090045 0 -91.37038958 0 7812.79440709 0 175.53150114 0 -1117.56009570 0 11575
0.10350000 0.10349800 16781.09189463 0 -114.40902388 0 6628.16584344 0 655.82580291 0 -1654.75112869 0 11364
0.10450000 0.10450100 16793.29221127 0 206.94288002 0 6991.54672905 0 437.36360574 0 -940.09318069 0 12093
0.10550000 0.10551000 16469.09652448 0 276.47913929 0 5909.07918050 0 187.73292690 0 -1007.17828543 0 12067
0.10650000 0.10649700 16136.02788012 0 36.50223828 0 6028.20972692 0 1149.24764538 0 966.73423576 0 12054
0.10750000 0.10749900 15983.74574602 0 -5.73736527 0 5619.14420107 0 910.71481821 0 38.44852152 0 12807
0.10850000 0.10850100 16000.04980554 0 192.06182107 0 4505.46602431 0 747.89604701 0 1502.26935305 0 12736
0.10950000 0.10950300 15616.18347916 0 203.05985197 0 4498.94440050 0 38.57562663 0 784.03116667 0 12933
0.11050000 0.11050200 15342.12000257 0 333.14406449 0 4748.05268396 0 -328.60443758 0 2041.16843037 0 13428
0.11150000 0.11150900 14953.92810938 0 32.81186432 0 4553.34672153 0 174.30814212 0 731.28919782 0 13453
0.11250000 0.11250000 15034.22837529 0 132.51318466 0 4601.82634339 0 -530.28121729 0 1.32072864 0 13668
0.11350000 0.11349100 14768.59420838 0 252.62308377 0 4609.53472527 0 -345.09482921 0 -56.56066796 0 13791
0.11450000 0.11448600 14327.38639377 0 381.39298946 0 5852.33661691 0 -832.67272001 0 -1016.80433526 0 14205
0.11550000 0.11549300 14306.09129563 0 58.88538284 0 4869.39037857 0 113.36423313 0 -1562.23945494 0 14776
0.11650000 0.11649800 14232.88939578 0 -67.31513617 0 5387.02763134 0 393.52675892 0 -1658.76614199 0 14553
0.11750000 0.11747300 13936.75443726 0 163.43987823 0 4850.89026206 0 343.69955663 0 -1561.25233842 0 14568
0.11850000 0.11849100 14115.76635600 0 97.62027906 0 4804.21850530 0 119.10725491 0 -1435.54471221 0 16015
0.11950000 0.11950300 13781.36676801 0 -32.48356489 0 4153.16524444 0 941.52172686 0 -1065.00556808 0 15270
0.12050000 0.12050700 13747.31679338 0 2.69190005 0 4306.98905492 0 610.11454381 0 580.45446493 0 15999
0.12150000 0.12150000 13843.47747092 0 -100.85935222 0 3121.89466100 0 604.26615565 0 -470.04936314 0 15670
0.12250000 0.12250700 14125.85934523 0 -0.85346871 0 3698.10452486 0 320.18732822 0 744.76943859 0 16887
0.12350000 0.12352200 13915.68116306 0 234.33480912 0 3487.36069164 0 -330.62414455 0 868.04920179 0 16407
0.12450000 0.12449800 13685.20609047 0 131.59816091 0 3880.42162029 0 -282.93421591 0 1144.09023880 0 16306
0.12550000 0.12549900 13680.76961169 0 252.32473057 0 4358.85149185 0 -96.34113132 0 961.84079967 0 17523
0.12650000 0.12650100 13337.71889009 0 194.67047060 0 4537.78577221 0 -324.52509535 0 623.91975665 0 17154
0.12750000 0.12750600 13114.67491946 0 204.18339022 0 5153.49138840 0 -327.73821510 0 1364.15067745 0 18007
0.12850000 0.12850300 13196.41704096 0 88.52416662 0 5291.45478724 0 236.69501583 0 1042.13330173 0 17496
0.12950000 0.12949900 13041.58393157 0 4.44311132 0 4822.10860598 0 571.77338507 0 961.67554083 0 18405
0.13050000 0.13049000 13034.59647749 0 -81.89628915 0 4801.68971240 0 -15.01126960 0 911.08859155 0 18100
0.13150000 0.13148800 13189.42958689 0 34.82558203 0 4950.76649058 0 17.45266387 0 1004.51417992 0 19059
0.13250000 0.13249300 12944.97960615 0 134.30441297 0 4342.84689465 0 269.77561985 0 -112.77307233 0 18957
0.13350000 0.13349100 12867.00849160 0 164.59225359 0 4216.19651670 0 -161.97916759 0 238.77350614 0 19468
0.13450000 0.13450700 12384.76324829 0 284.71102566 0 4304.06097892 0 -258.35057787 0 -479.73530544 0 19953
0.13550000 0.13551000 12065.11495225 0 440.57894373 0 4536.84302047 0 -355.28098448 0 -711.05330899 0 19956
0.13650000 0.13649900 11677.47761891 0 115.62240083 0 4221.66447680 0 257.71283405 0 -886.57482806 0 19723
0.13750000 0.13749600 11521.20265391 0 3.50908835 0 4128.27659849 0 271.25074904 0 -1371.45977624 0 20946
0.13850000 0.13851100 11452.21540889 0 104.87114906 0 3459.04486583 0 261.63135393 0 -1749.10394113 0 20955
0.13950000 0.13949800 11509.55689711 0 87.91215437 0 3771.19551274 0 50.03360947 0 -2306.55859094 0 20506
0.14050000 0.14048300 10993.35040875 0 282.73457436 0 3211.85535945 0 -300.31966713 0 -1471.62437588 0 21447
0.14150000 0.14148400 10935.46545187 0 153.35465284 0 3592.63833307 0 -4.49896658 0 -1800.87764848 0 21771
0.14250000 0.14249400 10706.41005250 0 98.47396849 0 3240.57046835 0 185.63003596 0 -1591.03220222 0 22470
0.14350000 0.14350900 10687.08918741 0 4.64891957 0 3563.03592842 0 616.36443329 0 -1199.81241227 0 22519
0.14450000 0.14449900 10722.34810251 0 -98.66573528 0 2711.93074820 0 621.25232378 0 -531.22729639 0 22218
0.14550000 0.14550500 10632.42067766 0 104.08400682 0 2949.11599494 0 323.74649332 0 -356.89475364 0 23559
0.14650000 0.14650700 10512.39174428 0 187.17393058 0 2401.25523049 0 -364.10403166 0 -363.78793254 0 23044
0.14750000 0.14750500 10400.27083433 0 65.25527907 0 3130.23524111 0 147.54508388 0 386.06903809 0 23649
0.14850000 0.14849900 10304.88654058 0 76.15570743 0 2878.02142250 0 -133.91843931 0 -56.03849440 0 23640
0.14950000 0.14949500 10454.97261768 0 21.35987073 0 2836.06342445 0 354.96044889 0 366.21690467 0 24457
0.15050000 0.15050000 10170.41686878 0 9.17220914 0 2882.24716854 0 96.93584130 0 -34.02435397 0 24591
0.15150000 0.15149900 10336.61845505 0 142.90341796 0 2703.30179698 0 32.47968297 0 449.01268989 0 25020
0.15250000 0.15250500 9980.87940413 0 100.59460535 0 3077.20822850 0 -167.81091895 0 194.70707155 0 25297
0.15350000 0.15350100 9988.07759095 0 167.54362110 0 2803.35548465 0 34.24872888 0 220.11811287 0 25452
0.15450000 0.15450400 9734.71028786 0 146.18197578 0 3108.57413347 0 -228.80473832 0 133.59568548 0 26061
0.15550000 0.15549900 9654.07728605 0 107.05112382 0 3241.46885530 0 254.95001689 0 -99.28506772 0 26128
0.15650000 0.15649500 9587.41919239 0 -89.71347567 0 3060.88198659 0 228.64280685 0 332.73258109 0 26331
0.15750000 0.15749700 9641.99897257 0 33.63050556 0 2924.83736482 0 357.21750747 0 167.04673548 0 27345
0.15850000 0.15849900 9654.03292126 0 63.26385466 0 2767.02072345 0 95.47923440 0 816.01596043 0 26980
0.15950000 0.15949700 9692.48610108 0 20.53213470 0 2442.18174723 0 407.30868025 0 672.07995204 0 27777
0.16050000 0.16050000 9573.11154833 0 -7.45041173 0 2386.42630017 0 185.15200537 0 1229.78082642 0 28224
0.16150000 0.16150500 9540.22614938 0 93.22528136 0 2128.55597112 0 138.56343259 0 945.90940437 0 28075
0.16250000 0.16249700 9310.13926869 0 254.89899738 0 2751.06049104 0 -315.85621581 0 872.03537798 0 28590
0.16350000 0.16349900 9029.03288203 0 287.31080223 0 2357.47827613 0 -282.78559387 0 1030.25130244 0 29163
0.16450000 0.16449100 8812.39962324 0 93.70675022 0 2674.94160638 0 146.07328205 0 570.55889901 0 28996
0.16550000 0.16550500 8663.15647711 0 -33.04932684 0 2489.96262368 0 301.98667403 0 706.73661514 0 30777
0.16650000 0.16650700 8735.38235163 0 43.97881414 0 1932.45251788 0 327.47757197 0 266.86418065 0 29211
0.16750000 0.16749900 8570.65589456 0 24.64208864 0 1750.91180623 0 181.64385978 0 416.49219132 0 30922
0.16850000 0.16850800 8602.83145690 0 17.81756425 0 1348.23480983 0 148.20390098 0 212.41084011 0 30867
0.16950000 0.16949900 8526.60166028 0 -47.25814834 0 1048.52959501 0 294.32376606 0 462.05704662 0 30852
0.17050000 0.17049200 8581.81363869 0 -48.95953795 0 970.09819579 0 352.90192274 0 115.84755212 0 31257
0.17150000 0.17149500 8597.89587426 0 103.22288629 0 550.22097116 0 -107.13353142 0 -238.17458151 0 32608
0.17250000 0.17250900 8250.86341295 0 278.60975822 0 850.57945748 0 -227.85089539 0 314.51307186 0 32361
0.17350000 0.17350400 8022.15184068 0 275.41438438 0 1218.86708862 0 -444.93002030 0 -34.49162609 0 32508
0.17450000 0.17449800 7933.18934996 0 127.09846231 0 1086.72324082 0 -71.06806448 0 -87.20830701 0 32791
0.17550000 0.17549800 7608.33928254 0 139.31763399 0 1989.37254062 0 -113.37754256 0 -220.74587462 0 33633
0.17650000 0.17650100 7573.87893362 0 159.45702940 0 1670.67808751 0 -156.71528552 0 63.57529547 0 33984
0.17750000 0.17750300 7478.93828775 0 41.27234026 0 2334.31985690 0 16.51978329 0 -3.62413733 0 34069
0.17850000 0.17849800 7456.11260443 0 77.58669366 0 2050.71795094 0 -150.88907976 0 55.69311453 0 34536
