### header ###
fiducial parameters:
Omega_m = 0.31
Omega_nu = 0
Omega_de = 0.69
Omega_k = 0
H_0 = 100
w_de = -1
zeff = 0
beta = 0
fgrowth = 0
b_1 = 2
gamma = 0.55
Lx = 3500 Ly = 3500 Lz = 3500
nx = 700 ny = 700 nz = 700
xoffset = 1379.75464 yoffset = 22.6059522 zoffset = 368.141391
bins = 400 dk = 0.001
kx_ny = 0.628318531 ky_ny = 0.628318531 kz_ny = 0.628318531
############################
A(data) = 3.31482197 (not used)
A(ran) = 3.31567924 (used)
Ngal = 186454
weighted Ngal = 0
Nran = 9399747
weighted Nran = 0
SN(data) = 6628.90791
SN(ran) = 131.882411
SN(data+ran) = 6760.79032
############################
13 columns: k_central k_mean P_0(k) sigma^{lin}_{P_0(k)} P^img_1(k) sigma^{lin}_{P_1(k)} P_2(k) sigma^{lin}_{P_2(k)} P^img_3(k) sigma^{lin}_{P_3(k)} P_4(k) sigma^{lin}_{P_4(k)} N_modes
### header ###
0.00050000 0 0 0 0 0 0 0 0 0 0 0 0
0.00150000 0.00179520 43636.53980127 0 -20824.38774210 0 -29690.35784661 0 13821.84963687 0 -88208.06750528 0 3
0.00250000 0.00253879 64919.43762521 0 -8580.24977992 0 -3641.98306830 0 -32150.82897760 0 98742.48636670 0 6
0.00350000 0.00331552 53027.34534536 0 6072.56342352 0 -4960.16073440 0 -41086.22997500 0 -16922.17191981 0 7
0.00450000 0.00420575 39044.11879289 0 2717.84235618 0 -7912.69281800 0 -11494.14013335 0 12965.05467262 0 24
0.00550000 0.00557378 67913.83897730 0 -19357.02238585 0 -19891.95081467 0 -104.56946851 0 -44137.41825545 0 45
0.00650000 0.00659388 66378.37367178 0 -4547.25765441 0 11478.39063369 0 -41157.32454743 0 2523.04766418 0 40
0.00750000 0.00754703 72753.37185368 0 13626.75548256 0 14486.65598195 0 -36137.22698473 0 -2038.24035437 0 57
0.00850000 0.00846663 66985.83852864 0 5785.26814897 0 19791.79730623 0 -13014.52141101 0 -9554.56706703 0 75
0.00950000 0.00948925 73935.02797655 0 -5746.77060436 0 36564.34897921 0 23343.19856905 0 -30393.20699721 0 112
0.01050000 0.01054430 82239.11804365 0 -2909.43169226 0 43260.54822473 0 -4981.94384520 0 7146.30220007 0 105
0.01150000 0.01145670 80470.51577829 0 5576.17690410 0 39001.30677267 0 5894.16152060 0 16924.61198314 0 144
0.01250000 0.01249090 91083.57122607 0 -1700.71304884 0 52738.97422471 0 15470.66697520 0 28888.90795513 0 169
0.01350000 0.01339930 79115.94789500 0 -4725.71501330 0 28613.62444687 0 15259.04693743 0 19622.54564080 0 180
0.01450000 0.01448870 98369.04576545 0 -5384.29919689 0 45413.79320025 0 17812.79503475 0 28863.17637821 0 267
0.01550000 0.01550050 103241.51949677 0 5945.07011460 0 37315.55574851 0 -22424.29290189 0 -14102.01327179 0 238
0.01650000 0.01653350 94503.54180506 0 4577.78062841 0 68540.15886896 0 -12237.91580070 0 23346.52592813 0 315
0.01750000 0.01747870 96772.24614081 0 6558.86804491 0 57477.35538493 0 -16154.88291493 0 -31803.89633706 0 297
0.01850000 0.01844180 89107.89631368 0 -2434.39572697 0 70388.72866432 0 18862.02226606 0 17616.70267271 0 388
0.01950000 0.01947590 103411.10389811 0 -5708.29524214 0 56548.24581657 0 29051.83763830 0 -25978.24514000 0 399
0.02050000 0.02045430 104462.21663290 0 -816.29102211 0 44057.78346136 0 13684.54061866 0 5204.28907042 0 462
0.02150000 0.02154770 99838.18571321 0 3727.69583831 0 34920.07903163 0 10014.37481891 0 5687.11105597 0 571
0.02250000 0.02255340 89564.40998007 0 5068.68809653 0 24900.73535649 0 -3414.00351503 0 4228.28592137 0 510
0.02350000 0.02348930 88336.50356594 0 4572.63431303 0 30175.37588915 0 7683.20486194 0 15771.46023643 0 555
0.02450000 0.02439640 80256.56658916 0 2739.43691664 0 18707.85462848 0 844.21754691 0 -17027.87102673 0 592
0.02550000 0.02547300 75877.31838612 0 2226.14741307 0 21398.24627221 0 2980.47080871 0 11395.31756854 0 837
0.02650000 0.02652900 69634.41635987 0 4609.76764041 0 9468.48828752 0 527.46959887 0 -21696.15582224 0 723
0.02750000 0.02749970 65710.01814368 0 3298.27796607 0 14370.64206187 0 2477.70685105 0 -775.42328872 0 826
0.02850000 0.02848090 59419.09123465 0 2563.99636331 0 14366.31649506 0 -528.97467429 0 -14107.78069420 0 831
0.02950000 0.02946900 58442.95499124 0 2707.13935112 0 15620.95269385 0 2612.81981227 0 4645.81403049 0 996
0.03050000 0.03053250 56092.61944594 0 -689.62178913 0 8442.03128355 0 3537.93654973 0 1231.74396828 0 1041
0.03150000 0.03150510 54460.54981501 0 -528.62973807 0 9784.34339421 0 2628.26984962 0 -4678.47760550 0 1036
0.03250000 0.03246190 57850.57416223 0 8.80163007 0 8108.29716738 0 2466.47146854 0 9281.19124465 0 1059
0.03350000 0.03345080 55833.19634932 0 1995.17323662 0 9642.36498207 0 469.84195776 0 716.80298549 0 1302
0.03450000 0.03451200 53912.75559774 0 1286.45684283 0 11280.74550407 0 -3904.46733527 0 10772.66886307 0 1339
0.03550000 0.03553350 50399.95170030 0 1147.87233696 0 13644.83413358 0 347.21990254 0 -2260.31939087 0 1365
0.03650000 0.03647120 54033.09508463 0 1851.44241537 0 15814.27225665 0 -1337.55398717 0 3583.47700440 0 1308
0.03750000 0.03744890 47161.43310338 0 2969.00251107 0 17618.58817619 0 -4545.38324212 0 -3111.20274714 0 1579
0.03850000 0.03847530 44345.93275808 0 3453.21089624 0 20401.03675459 0 -192.80049479 0 5819.34030599 0 1662
0.03950000 0.03950240 40903.00340141 0 127.66854983 0 17476.84267919 0 4964.30884205 0 2803.72149415 0 1683
0.04050000 0.04050350 41539.52719427 0 -558.94419756 0 16050.73657559 0 7384.62984010 0 502.22159813 0 1822
0.04150000 0.04152450 41447.24843566 0 381.20887559 0 12918.36073347 0 4428.09383440 0 8055.07051322 0 1887
0.04250000 0.04250150 40395.02658118 0 142.50191663 0 9086.65165018 0 716.48577726 0 3425.07252958 0 1920
0.04350000 0.04349210 39878.39862733 0 1207.29897021 0 12677.57084773 0 -3290.70267855 0 10210.57809293 0 2005
0.04450000 0.04448520 37814.88143512 0 1588.70305086 0 10945.14806681 0 -1198.74765736 0 -1993.17682117 0 2151
0.04550000 0.04548030 37557.23293001 0 753.56364865 0 15954.02133820 0 -1743.05923879 0 6476.38281320 0 2274
0.04650000 0.04648670 35246.71478176 0 829.26439519 0 12220.83535740 0 1566.78684569 0 -1313.71900493 0 2311
0.04750000 0.04749250 35048.73691623 0 208.51893911 0 15891.24516347 0 2987.49153638 0 4676.78065237 0 2568
0.04850000 0.04851840 34907.32415514 0 461.96277145 0 11568.22932897 0 501.85226127 0 -195.88495666 0 2493
0.04950000 0.04949480 34944.92331280 0 -528.47113395 0 9877.55381336 0 3455.22949408 0 3895.29491540 0 2644
0.05050000 0.05050630 34130.71854483 0 197.10055185 0 8388.98208855 0 2049.57555765 0 2267.72831043 0 2829
0.05150000 0.05149060 34283.00067893 0 -56.54791308 0 8254.87842624 0 673.30552930 0 4542.58826049 0 2784
0.05250000 0.05249300 34631.59699901 0 -354.49683686 0 6040.57641152 0 -895.14055946 0 -1767.58187524 0 3055
0.05350000 0.05348950 35259.58057022 0 -149.85094373 0 6453.44621791 0 -2545.68479715 0 -2758.08121871 0 3009
0.05450000 0.05448610 34114.08174940 0 675.28974443 0 5504.28376548 0 -2193.69457080 0 -5200.68443142 0 3336
0.05550000 0.05550870 35698.90288134 0 114.14061691 0 10150.53035265 0 -2939.94357507 0 -8943.60848314 0 3349
0.05650000 0.05647670 34536.98908904 0 296.62740766 0 9430.93349465 0 -1001.81236435 0 -11039.90016234 0 3324
0.05750000 0.05747970 34831.01672014 0 502.26374468 0 12481.03483780 0 -874.40667588 0 -8183.96131296 0 3639
0.05850000 0.05849280 33978.54732270 0 766.02017195 0 11482.82711246 0 874.52867905 0 -8779.73604823 0 3846
0.05950000 0.05951020 32680.98819172 0 727.28638484 0 13225.91962485 0 -208.00098021 0 -7386.42661400 0 3787
0.06050000 0.06049470 32388.40241623 0 996.58175587 0 14650.02931300 0 192.35573779 0 -5758.27217559 0 3930
0.06150000 0.06148310 31283.94102413 0 338.05191914 0 14545.88297365 0 1969.88530758 0 -2316.58503298 0 4083
0.06250000 0.06249100 30657.84295640 0 717.10799341 0 13707.38848437 0 -85.04752002 0 -4004.80939406 0 4303
0.06350000 0.06350600 30368.14089211 0 600.32878074 0 14155.58375305 0 290.19894991 0 -934.54092750 0 4470
0.06450000 0.06451750 28955.45513682 0 561.84121821 0 14337.47938300 0 67.27831339 0 -3424.92834402 0 4479
0.06550000 0.06550280 28509.92175541 0 607.72106350 0 13314.31646452 0 1243.37863388 0 -1955.61093711 0 4636
0.06650000 0.06648880 28067.49390914 0 -122.54330772 0 12789.59193690 0 1605.85004135 0 -1689.75494626 0 4653
0.06750000 0.06749660 28688.37911430 0 -828.50242995 0 9745.81257601 0 2702.74723713 0 -1809.91697400 0 5220
0.06850000 0.06852730 28505.70710057 0 -148.51445450 0 9629.84302072 0 1616.45322563 0 -1509.62281662 0 5029
0.06950000 0.06949320 28868.16741683 0 925.20768527 0 6657.24696184 0 374.63068668 0 -1829.20456549 0 5040
0.07050000 0.07048030 27534.22915987 0 140.31805995 0 8238.57436673 0 162.30635790 0 253.90300790 0 5475
0.07150000 0.07148790 26340.48363233 0 510.50783137 0 7746.43577574 0 317.97352531 0 -113.60713034 0 5509
0.07250000 0.07249820 26933.64084512 0 426.82807776 0 7779.95337292 0 796.55867362 0 1692.71629584 0 5916
0.07350000 0.07351270 26253.19591235 0 -200.85048554 0 6320.56258728 0 423.98984046 0 -1214.82989294 0 5721
0.07450000 0.07449140 26284.69491168 0 819.11594998 0 8809.61573281 0 -652.75132311 0 1514.38094011 0 6028
0.07550000 0.07549160 24764.20272205 0 1072.74056883 0 8668.94608191 0 -2293.12715144 0 -2192.90709581 0 6183
0.07650000 0.07648840 24004.34481913 0 1104.22514961 0 10361.08563551 0 -1579.83009330 0 -895.19490632 0 6330
0.07750000 0.07749960 22756.58516245 0 417.85529943 0 11970.28521834 0 -885.34703255 0 -1811.81356867 0 6583
0.07850000 0.07848650 22223.09858925 0 584.24321780 0 11877.00825200 0 727.10227098 0 -2508.09673069 0 6549
0.07950000 0.07947320 21895.24280746 0 136.28640986 0 11898.19243818 0 1232.15434257 0 -1532.96978620 0 6828
0.08050000 0.08048110 22049.07770913 0 -335.60076462 0 9989.34198740 0 1783.73065800 0 -1304.03638999 0 7147
0.08150000 0.08149960 22370.61150866 0 -547.98831322 0 8627.17663421 0 2583.66105550 0 942.49775219 0 7386
0.08250000 0.08250610 22513.68794929 0 39.72245640 0 7820.64697452 0 430.21643842 0 109.16177860 0 7227
0.08350000 0.08350160 22771.00371849 0 -27.74518373 0 6355.03402739 0 892.20139227 0 1690.48696526 0 7798
0.08450000 0.08449610 22303.62067909 0 231.70508633 0 6830.12544867 0 -99.93024265 0 1260.10415888 0 7371
0.08550000 0.08548940 22387.80286393 0 251.11468099 0 6464.78142120 0 -391.06007672 0 846.74190334 0 8256
0.08650000 0.08650700 22129.15615109 0 433.60590821 0 7880.84999156 0 -314.60956527 0 414.95606054 0 8037
0.08750000 0.08749060 21062.51574058 0 329.25105437 0 7230.61747927 0 -464.60136720 0 -609.11966344 0 8155
0.08850000 0.08849210 21418.21042671 0 184.79819619 0 7875.06038675 0 -298.12139189 0 -140.84711005 0 8718
0.08950000 0.08949900 20748.52395498 0 400.73492782 0 7556.39920723 0 441.71911878 0 -743.27878172 0 8571
0.09050000 0.09049190 20934.74515174 0 -123.31192767 0 7745.48193281 0 878.98623110 0 187.64752469 0 8932
0.09150000 0.09150830 20337.26237214 0 57.33494442 0 6451.38325528 0 758.58130615 0 -677.81520998 0 9285
0.09250000 0.09250820 20468.02758416 0 600.04817345 0 6828.68359307 0 575.53995556 0 134.14802709 0 9204
0.09350000 0.09350330 19595.70494418 0 204.69802176 0 5492.70455587 0 898.09747257 0 659.27294692 0 9349
0.09450000 0.09448040 19228.91906110 0 309.04733000 0 5700.94177857 0 635.30708855 0 1087.36098465 0 9564
0.09550000 0.09549270 18787.04577469 0 198.75314019 0 5050.46525995 0 588.49669183 0 1357.01903781 0 10155
0.09650000 0.09649430 17919.93599727 0 528.72623148 0 4516.24666774 0 -325.35028040 0 723.68507320 0 9913
0.09750000 0.09749140 17757.78269789 0 465.58848373 0 5218.37489055 0 -247.49007782 0 1872.80406069 0 10476
0.09850000 0.09850240 17251.46955720 0 112.65550564 0 4270.23282823 0 390.92365500 0 880.18186214 0 10575
0.09950000 0.09950330 16952.33997551 0 289.66879070 0 5289.23654785 0 157.50830610 0 1757.99908108 0 10882
0.10050000 0.10051200 16809.26353488 0 262.57188743 0 4981.33382937 0 -122.54441684 0 534.69662280 0 10875
0.10150000 0.10150300 16081.68101508 0 256.00478972 0 5264.28135472 0 -634.67821769 0 453.42033156 0 11118
0.10250000 0.10250800 16139.02250330 0 248.69236357 0 6162.96776984 0 103.22222081 0 1142.55965362 0 11575
0.10350000 0.10349800 16066.04242738 0 -72.91951798 0 5528.29620687 0 -398.60319976 0 -54.88201530 0 11364
0.10450000 0.10450100 15718.44431502 0 223.78264435 0 6547.46629444 0 15.44304989 0 -425.90196281 0 12093
0.10550000 0.10551000 16032.65792456 0 365.95847979 0 6684.70876548 0 -662.04352792 0 -382.46550820 0 12067
0.10650000 0.10649700 15483.20002775 0 134.85786369 0 7391.10709911 0 -173.39533661 0 952.60959645 0 12054
0.10750000 0.10749900 15554.51642413 0 -46.91509762 0 7063.77260358 0 1059.37789475 0 415.56053078 0 12807
0.10850000 0.10850100 15789.31706352 0 14.31296784 0 7310.27445576 0 275.76153884 0 980.84445652 0 12736
0.10950000 0.10950300 15637.14584139 0 340.40658026 0 7156.78338119 0 -47.29031281 0 1302.25070728 0 12933
0.11050000 0.11050200 15468.33782384 0 -15.89523799 0 6952.08425031 0 566.61043290 0 1576.14781592 0 13428
0.11150000 0.11150900 15144.25304901 0 102.33093223 0 7697.24631728 0 4.32642083 0 2616.22480974 0 13453
0.11250000 0.11250000 15415.76555030 0 85.61272742 0 6364.73882472 0 571.08018527 0 465.19585536 0 13668
0.11350000 0.11349100 14836.91598158 0 112.57232167 0 7067.68779610 0 486.58744691 0 2761.30875702 0 13791
0.11450000 0.11448600 15045.31957223 0 202.06608072 0 6134.45230249 0 141.42496141 0 1192.30367193 0 14205
0.11550000 0.11549300 14265.27569086 0 148.22275602 0 6096.89750962 0 290.83558462 0 2060.56693383 0 14776
0.11650000 0.11649800 14513.49667857 0 203.53011872 0 5692.23518896 0 85.93891952 0 1035.95217767 0 14553
0.11750000 0.11747300 13882.07483630 0 4.04436060 0 5279.70920967 0 80.33653412 0 590.50198024 0 14568
0.11850000 0.11849100 14027.03678042 0 113.02595162 0 5214.41533324 0 663.47983792 0 1870.94073960 0 16015
0.11950000 0.11950300 13865.10530497 0 42.57411405 0 4231.35818293 0 509.55620667 0 314.64838446 0 15270
0.12050000 0.12050700 13662.35822476 0 102.28967297 0 4384.13942089 0 85.73373238 0 1603.29906605 0 15999
0.12150000 0.12150000 13682.76602714 0 182.01208752 0 4592.74265309 0 349.84518886 0 986.14161218 0 15670
0.12250000 0.12250700 13394.94946634 0 11.22273854 0 3867.09000156 0 164.91278918 0 2232.22538900 0 16887
0.12350000 0.12352200 13515.28895323 0 123.57811640 0 4455.52236445 0 306.97438530 0 1830.35804997 0 16407
0.12450000 0.12449800 13148.17033424 0 210.81814423 0 4319.51101627 0 -104.98483383 0 2680.24319852 0 16306
0.12550000 0.12549900 13019.40153767 0 61.82821012 0 4248.72699735 0 548.63714824 0 2446.76241157 0 17523
0.12650000 0.12650100 13221.48314607 0 -107.09948144 0 4118.60507475 0 222.18218463 0 2795.92438269 0 17154
0.12750000 0.12750600 13101.92004297 0 -79.55083373 0 3676.64305876 0 448.07437463 0 2356.01423814 0 18007
0.12850000 0.12850300 13297.12510925 0 42.89098954 0 3636.09364272 0 99.00789871 0 2231.28263726 0 17496
0.12950000 0.12949900 13088.83243057 0 82.49920661 0 3377.08092039 0 -385.65644557 0 1973.64522335 0 18405
0.13050000 0.13049000 13213.83022017 0 45.73022505 0 3376.54854293 0 -142.98327458 0 810.83969881 0 18100
0.13150000 0.13148800 13039.36569218 0 66.37715364 0 3772.67064194 0 -51.78335670 0 1264.56282005 0 19059
0.13250000 0.13249300 13009.08672451 0 156.48237038 0 3419.79311983 0 -210.42107938 0 148.04640598 0 18957
0.13350000 0.13349100 12759.09114530 0 209.34745152 0 3686.35894729 0 -140.20160238 0 198.57568104 0 19468
0.13450000 0.13450700 12504.88091124 0 329.15345183 0 3568.61480048 0 -239.87818936 0 -46.00395579 0 19953
0.13550000 0.13551000 12061.67668119 0 221.91377766 0 4053.77702859 0 118.43845573 0 250.02885280 0 19956
0.13650000 0.13649900 12037.71969578 0 102.56717472 0 4073.95191584 0 198.46144171 0 229.34266138 0 19723
0.13750000 0.13749600 11743.13750484 0 127.34801424 0 3775.25489083 0 216.96044910 0 -107.88129992 0 20946
0.13850000 0.13851100 11539.83586478 0 266.31849376 0 3609.88514433 0 -11.94355543 0 447.38228394 0 20955
0.13950000 0.13949800 11243.92273020 0 157.73345740 0 3618.66937231 0 148.43681612 0 411.91152698 0 20506
0.14050000 0.14048300 11126.79969043 0 4.16179420 0 3763.49822206 0 244.88919214 0 633.14541427 0 21447
0.14150000 0.14148400 11116.04122939 0 -80.34507434 0 3173.06944372 0 432.31600201 0 117.90940564 0 21771
0.14250000 0.14249400 11257.78672638 0 75.07231931 0 3207.68506940 0 52.35821343 0 410.77911577 0 22470
0.14350000 0.14350900 11145.10016539 0 129.33888409 0 2893.26072711 0 -309.14493254 0 181.88232051 0 22519
0.14450000 0.14449900 10787.37579022 0 253.93406325 0 3481.75963718 0 -225.94099127 0 -33.99939877 0 22218
0.14550000 0.14550500 10533.15446497 0 333.46681833 0 3441.13258276 0 -481.38345731 0 -162.37068684 0 23559
0.14650000 0.14650700 10341.84240881 0 130.37591101 0 3958.73656194 0 118.55047682 0 -370.74433127 0 23044
0.14750000 0.14750500 10263.36109920 0 -1.34723660 0 3923.07836375 0 172.76424750 0 -411.39800456 0 23649
0.14850000 0.14849900 10235.75511000 0 62.19710333 0 3703.28411383 0 274.89309812 0 -457.87011978 0 23640
0.14950000 0.14949500 10137.90857052 0 82.74520936 0 3535.99559026 0 43.40772841 0 -455.72397317 0 24457
0.15050000 0.15050000 9870.99891596 0 117.97040722 0 3400.22824842 0 -21.91942162 0 -413.58518860 0 24591
0.15150000 0.15149900 9803.07642585 0 178.11353179 0 3537.95873212 0 143.06756767 0 -577.74488551 0 25020
0.15250000 0.15250500 9665.53449250 0 66.73018644 0 3038.18939763 0 309.79598580 0 -307.44797940 0 25297
0.15350000 0.15350100 9582.77198087 0 -13.25597677 0 2800.20558471 0 451.55035575 0 -471.16070108 0 25452
0.15450000 0.15450400 9441.84723245 0 118.81444731 0 2830.28491084 0 207.19908667 0 -52.18408164 0 26061
0.15550000 0.15549900 9347.36132564 0 237.58120247 0 2513.91960909 0 -173.77354643 0 -381.59595836 0 26128
0.15650000 0.15649500 9122.85331702 0 193.07888383 0 2863.88014639 0 -251.87997357 0 -25.18633368 0 26331
0.15750000 0.15749700 8909.07049584 0 2.49680589 0 2855.24010397 0 161.85938266 0 -126.12354610 0 27345
0.15850000 0.15849900 8769.73178858 0 70.43841723 0 2990.26433562 0 20.50640313 0 37.22915532 0 26980
0.15950000 0.15949700 9029.38780034 0 41.99448809 0 3232.79553929 0 -168.04050672 0 -308.15559777 0 27777
0.16050000 0.16050000 8830.94410454 0 33.62595817 0 2923.96116026 0 226.98134555 0 8.37617176 0 28224
0.16150000 0.16150500 8790.05086139 0 64.25296760 0 3143.81086617 0 31.05390960 0 286.65974896 0 28075
0.16250000 0.16249700 8729.19346374 0 77.40025064 0 2918.87030086 0 25.28837269 0 49.69288789 0 28590
0.16350000 0.16349900 8737.57840863 0 160.67484283 0 3225.94117957 0 179.90808746 0 440.04767540 0 29163
0.16450000 0.16449100 8375.78356418 0 176.29457549 0 2889.44535536 0 -190.65102082 0 -5.57201771 0 28996
0.16550000 0.16550500 8295.82712538 0 125.88397624 0 3232.99518083 0 15.17586296 0 367.49793792 0 30777
0.16650000 0.16650700 8163.24295706 0 47.10276067 0 2883.42283542 0 282.42180261 0 -156.72083112 0 29211
0.16750000 0.16749900 8088.95411990 0 -12.00089692 0 2971.69767193 0 138.00776363 0 343.01633890 0 30922
0.16850000 0.16850800 8054.94851006 0 20.17189263 0 2377.44243064 0 -15.48841289 0 -375.78638940 0 30867
0.16950000 0.16949900 8017.79300028 0 -5.33667360 0 2367.49362698 0 359.77291925 0 345.75253719 0 30852
0.17050000 0.17049200 8070.45400339 0 -9.50878261 0 2090.60189516 0 258.16091841 0 -38.20484792 0 31257
0.17150000 0.17149500 8188.25360618 0 9.10892277 0 2037.18669066 0 223.57080248 0 -48.02033540 0 32608
0.17250000 0.17250900 8000.81237775 0 116.75481203 0 1749.53649781 0 -79.49914875 0 150.46983252 0 32361
0.17350000 0.17350400 7875.51512583 0 113.76573446 0 2080.76400347 0 -84.52290641 0 51.50308215 0 32508
0.17450000 0.17449800 7862.69370216 0 67.90352416 0 1959.39303527 0 80.72627878 0 273.88047184 0 32791
0.17550000 0.17549800 7748.50982957 0 34.97797508 0 1920.59602834 0 39.41778122 0 206.50921422 0 33633
0.17650000 0.17650100 7695.70464090 0 136.65685584 0 1844.97624755 0 186.99092583 0 349.78751463 0 33984
0.17750000 0.17750300 7706.89565862 0 49.50289569 0 2015.56994781 0 221.55996848 0 686.49961719 0 34069
0.17850000 0.17849800 7544.81999762 0 -33.99629324 0 1851.70860410 0 16.49859911 0 730.60708921 0 34536
