### header ###
fiducial parameters:
Omega_m = 0.31
Omega_nu = 0
Omega_de = 0.69
Omega_k = 0
H_0 = 100
w_de = -1
zeff = 0
beta = 0
fgrowth = 0
b_1 = 2
gamma = 0.55
Lx = 3500 Ly = 3500 Lz = 3500
nx = 700 ny = 700 nz = 700
xoffset = 1379.75464 yoffset = 22.6059522 zoffset = 368.141391
bins = 400 dk = 0.001
kx_ny = 0.628318531 ky_ny = 0.628318531 kz_ny = 0.628318531
############################
A(data) = 3.29593379 (not used)
A(ran) = 3.30056121 (used)
Ngal = 185508
weighted Ngal = 0
Nran = 9399747
weighted Nran = 0
SN(data) = 6674.79237
SN(ran) = 131.281086
SN(data+ran) = 6806.07346
############################
13 columns: k_central k_mean P_0(k) sigma^{lin}_{P_0(k)} P^img_1(k) sigma^{lin}_{P_1(k)} P_2(k) sigma^{lin}_{P_2(k)} P^img_3(k) sigma^{lin}_{P_3(k)} P_4(k) sigma^{lin}_{P_4(k)} N_modes
### header ###
0.00050000 0 0 0 0 0 0 0 0 0 0 0 0
0.00150000 0.00179520 27816.50012220 0 -51909.24178101 0 -63688.53658790 0 53640.68853660 0 124453.21183631 0 3
0.00250000 0.00253879 51388.62099626 0 -54049.84279202 0 -60127.15324783 0 -35987.49582593 0 -59668.75407796 0 6
0.00350000 0.00331552 101479.35012564 0 -47944.13887202 0 -88424.01310986 0 -52192.62186304 0 -52645.69725837 0 7
0.00450000 0.00420575 140208.25710126 0 -33280.35647481 0 -101806.31861167 0 -66203.24367197 0 -19841.59678052 0 24
0.00550000 0.00557378 131501.66749691 0 26566.52222614 0 -65179.52619365 0 -115978.42824817 0 1647.12038519 0 45
0.00650000 0.00659388 117168.51368072 0 21862.96742434 0 -6849.70141128 0 -51810.64104014 0 -36726.72410253 0 40
0.00750000 0.00754703 71360.09569305 0 10474.02729404 0 17034.08209702 0 -10754.08001698 0 -32956.38261195 0 57
0.00850000 0.00846663 82242.99996258 0 2429.72633305 0 19387.85591337 0 -9542.61075672 0 -51905.13803814 0 75
0.00950000 0.00948925 78328.80564759 0 -5565.98409410 0 21583.24743730 0 8615.69724536 0 -45685.63843745 0 112
0.01050000 0.01054430 84631.37831341 0 -267.77254968 0 5456.43634184 0 -16443.91950740 0 -57985.99767697 0 105
0.01150000 0.01145670 87939.99327504 0 3994.37257774 0 31884.41842690 0 -27888.70381434 0 -32775.81792563 0 144
0.01250000 0.01249090 79255.58606458 0 10072.33741416 0 35335.00070946 0 -15111.86675392 0 -45196.96029992 0 169
0.01350000 0.01339930 77681.85612960 0 10575.77793484 0 68575.87252313 0 -11909.17272315 0 -5941.42111080 0 180
0.01450000 0.01448870 72241.84585043 0 -5564.76406244 0 50175.35496209 0 30955.41977052 0 -14660.45503813 0 267
0.01550000 0.01550050 75594.27104000 0 -4460.00320802 0 58935.73687165 0 34874.27238824 0 -2950.44693858 0 238
0.01650000 0.01653350 85378.70316378 0 -2419.26733433 0 26744.31411322 0 12789.81376084 0 16768.55884208 0 315
0.01750000 0.01747870 94946.85694708 0 2663.02966086 0 38059.44232783 0 20160.57960475 0 32949.39515787 0 297
0.01850000 0.01844180 76762.61772653 0 5304.35384929 0 40084.69489057 0 -5966.86431660 0 45913.00797489 0 388
0.01950000 0.01947590 80917.93466318 0 4159.39849713 0 37032.84113830 0 6153.78425877 0 29430.71292605 0 399
0.02050000 0.02045430 74086.64463883 0 1245.07558701 0 40598.32822124 0 7043.16515965 0 30164.06286826 0 462
0.02150000 0.02154770 71553.08251995 0 2437.98927478 0 40939.60435134 0 9031.24003023 0 32172.78954756 0 571
0.02250000 0.02255340 69957.72475091 0 563.49491567 0 30237.93023994 0 3623.40531341 0 23861.15746653 0 510
0.02350000 0.02348930 66266.79623048 0 720.33109524 0 38684.65309980 0 3334.91218959 0 24788.27061943 0 555
0.02450000 0.02439640 73435.59137797 0 359.05642792 0 19357.02238585 0 4626.38225344 0 4066.57626987 0 592
0.02550000 0.02547300 69346.26706316 0 -1876.22014935 0 23373.81027262 0 4398.00341708 0 13651.82158766 0 837
0.02650000 0.02652900 67880.01082660 0 3251.24019981 0 16512.57401651 0 3291.03541446 0 -3182.02003966 0 723
0.02750000 0.02749970 69147.73463779 0 -2625.74105672 0 8730.70186652 0 9328.67265879 0 17019.10898114 0 826
0.02850000 0.02848090 64545.33155215 0 551.98890796 0 7646.82573595 0 116.96332654 0 -1904.75779910 0 831
0.02950000 0.02946900 68119.80250462 0 3855.35551519 0 3809.26050067 0 -2461.64679787 0 -1653.90819772 0 996
0.03050000 0.03053250 61773.86325873 0 2629.85589079 0 11944.66455339 0 -6224.63482487 0 -3931.09729915 0 1041
0.03150000 0.03150510 54761.56490018 0 3336.69787230 0 14605.44270127 0 -4308.45309292 0 -8416.29970663 0 1036
0.03250000 0.03246190 55500.23861694 0 2868.52735792 0 18526.84629428 0 -3943.05360946 0 -5914.79114693 0 1059
0.03350000 0.03345080 54968.74845918 0 872.59991990 0 18522.18799156 0 -1479.26621058 0 -15729.86824788 0 1302
0.03450000 0.03451200 50328.52439195 0 626.11803188 0 22138.36184456 0 692.56650192 0 -7829.79721201 0 1339
0.03550000 0.03553350 52425.09335107 0 1191.82675047 0 27104.99983797 0 -755.52457228 0 -9199.26057279 0 1365
0.03650000 0.03647120 50542.14084517 0 376.97647483 0 21210.58321984 0 4473.98920737 0 -5387.11636092 0 1308
0.03750000 0.03744890 52079.04800629 0 -1571.58933397 0 22286.31841185 0 6908.83967341 0 1340.01623289 0 1579
0.03850000 0.03847530 52249.29787944 0 -1260.56998915 0 16748.37286363 0 5382.03659272 0 -1059.65628379 0 1662
0.03950000 0.03950240 54136.35412821 0 1349.28847354 0 20378.85436069 0 2938.01370680 0 6798.01643350 0 1683
0.04050000 0.04050350 51020.72599349 0 1364.22831583 0 14824.60475296 0 -3772.98119545 0 3964.34870760 0 1822
0.04150000 0.04152450 50721.70732376 0 2172.33292548 0 22343.32716416 0 -1510.48792998 0 6997.15887471 0 1887
0.04250000 0.04250150 47225.31839781 0 1738.78912797 0 20867.08885036 0 -1249.37897143 0 491.49308332 0 1920
0.04350000 0.04349210 46239.42190108 0 2311.70490633 0 25415.14507094 0 -926.33898735 0 5273.64232494 0 2005
0.04450000 0.04448520 42937.68348156 0 1004.85024319 0 27135.61154155 0 1999.26588830 0 2299.26058335 0 2151
0.04550000 0.04548030 42126.47333677 0 643.44248151 0 24774.96118309 0 2518.12317273 0 3142.57974331 0 2274
0.04650000 0.04648670 42653.41610378 0 -1189.16486320 0 20186.97665349 0 5739.93842704 0 3340.50215285 0 2311
0.04750000 0.04749250 43192.11553955 0 -710.01850032 0 17653.52544658 0 4780.74953256 0 5564.85279201 0 2568
0.04850000 0.04851840 43238.03309492 0 -564.43212181 0 12978.47502093 0 2189.70173990 0 1673.49525153 0 2493
0.04950000 0.04949480 42971.62254422 0 1928.64823733 0 13215.38298775 0 510.67198109 0 6249.77856835 0 2644
0.05050000 0.05050630 40135.38166062 0 1863.86455595 0 9888.30118320 0 -645.47882527 0 925.26757773 0 2829
0.05150000 0.05149060 38473.36579793 0 1018.54343494 0 15873.94289624 0 95.70205655 0 4335.90380536 0 2784
0.05250000 0.05249300 36263.33389403 0 1384.64720941 0 10953.07827263 0 1263.69770669 0 2304.69526986 0 3055
0.05350000 0.05348950 34644.68461141 0 1467.04371154 0 14324.61359454 0 -2930.80442878 0 242.11528378 0 3009
0.05450000 0.05448610 33042.11756436 0 1651.84523509 0 15342.34182651 0 -2769.92661705 0 -48.81058318 0 3336
0.05550000 0.05550870 31468.94218922 0 475.44412134 0 16612.17296511 0 -666.37796768 0 -1730.51509504 0 3349
0.05650000 0.05647670 31490.68093524 0 -307.85724457 0 18355.70912537 0 1462.67377994 0 -1454.42192941 0 3324
0.05750000 0.05747970 32647.82551285 0 -609.15515527 0 13368.77424154 0 2844.79219645 0 -3572.26380428 0 3639
0.05850000 0.05849280 33359.65853299 0 -419.50123305 0 15209.58019904 0 2361.40455985 0 -1111.42666379 0 3846
0.05950000 0.05951020 32721.69288452 0 460.55973504 0 12813.43801034 0 1590.07835928 0 1536.10859493 0 3787
0.06050000 0.06049470 32288.24890779 0 801.65618774 0 12058.57114605 0 -607.05780993 0 -2135.25505408 0 3930
0.06150000 0.06148310 31740.78742642 0 264.36755222 0 13967.58796477 0 1188.31084103 0 1448.42159186 0 4083
0.06250000 0.06249100 30443.89376727 0 52.47267459 0 10611.05903233 0 1151.32169921 0 699.96322116 0 4303
0.06350000 0.06350600 31145.74471015 0 192.63079948 0 12030.73224171 0 768.20957422 0 1211.41380428 0 4470
0.06450000 0.06451750 30606.71253847 0 174.39354434 0 8586.82685971 0 -84.56982217 0 -598.56749866 0 4479
0.06550000 0.06550280 30834.96937166 0 106.26553434 0 11302.04060221 0 842.93429542 0 -1262.56640460 0 4636
0.06650000 0.06648880 29895.32316621 0 504.67718914 0 8455.41835827 0 -988.24006664 0 -3299.67545688 0 4653
0.06750000 0.06749660 29840.64356525 0 752.27596069 0 9744.23762604 0 640.06299380 0 -591.82405092 0 5220
0.06850000 0.06852730 28072.48494777 0 291.39125358 0 8933.60422349 0 413.36780114 0 -983.48748875 0 5029
0.06950000 0.06949320 28712.55792365 0 219.17536113 0 8617.97094074 0 2491.62630322 0 501.42525019 0 5040
0.07050000 0.07048030 27836.90792459 0 108.45948401 0 8664.49851194 0 1055.48599374 0 1993.02154441 0 5475
0.07150000 0.07148790 28228.09444095 0 600.71697263 0 8282.08513236 0 293.12258943 0 2426.24369721 0 5509
0.07250000 0.07249820 26328.50513963 0 611.27357389 0 10174.59825003 0 -601.60426839 0 5950.47152751 0 5916
0.07350000 0.07351270 25670.46442469 0 951.73450101 0 9517.75538436 0 -134.56505609 0 3259.90242463 0 5721
0.07450000 0.07449140 25995.65831921 0 85.63357887 0 11179.37196396 0 712.95323103 0 5512.85726072 0 6028
0.07550000 0.07549160 25227.81475449 0 222.80107342 0 10721.99318421 0 1499.09727072 0 4265.70761988 0 6183
0.07650000 0.07648840 25071.76161343 0 326.68898787 0 11129.23975375 0 148.53996425 0 6766.50634297 0 6330
0.07750000 0.07749960 24302.14345719 0 431.33997668 0 10222.57876803 0 152.99973454 0 5355.58408799 0 6583
0.07850000 0.07848650 23815.79447101 0 410.49185377 0 10337.71648355 0 920.67693131 0 5775.45243967 0 6549
0.07950000 0.07947320 24123.57518632 0 -429.60420435 0 8341.85559271 0 1287.67687449 0 5706.57610662 0 6828
0.08050000 0.08048110 23521.10136810 0 225.46185156 0 7663.26288983 0 361.64067681 0 3673.92571551 0 7147
0.08150000 0.08149960 23447.89946824 0 635.90712231 0 7591.61375754 0 -1050.29087709 0 2611.16722393 0 7386
0.08250000 0.08250610 22716.98958935 0 126.76794464 0 7188.64839002 0 -327.05388825 0 981.44338115 0 7227
0.08350000 0.08350160 22506.03502339 0 44.36977883 0 7361.51578566 0 -527.04924250 0 135.73961385 0 7798
0.08450000 0.08449610 22789.96966527 0 -97.42440852 0 7189.59114176 0 270.01518970 0 -349.22740919 0 7371
0.08550000 0.08548940 22807.05010857 0 48.40797273 0 6692.49478574 0 77.03324293 0 -3863.57409213 0 8256
0.08650000 0.08650700 22612.28869016 0 231.87034516 0 6877.44049485 0 -539.66769727 0 -2402.98545721 0 8037
0.08750000 0.08749060 21704.03057207 0 644.73571508 0 6569.74850911 0 -383.57240966 0 -4547.80112306 0 8155
0.08850000 0.08849210 21575.37268747 0 648.38471887 0 7660.27935785 0 -345.77915606 0 -1041.41791953 0 8718
0.08950000 0.08949900 20598.23823633 0 261.90752474 0 7525.95387161 0 779.42055610 0 -3286.68766526 0 8571
0.09050000 0.09049190 20208.04992769 0 509.19463365 0 7797.99875036 0 1042.06009983 0 -905.65057769 0 8932
0.09150000 0.09150830 19482.13108743 0 351.88375086 0 6838.84312947 0 1019.29541810 0 -544.29827199 0 9285
0.09250000 0.09250820 19085.17714865 0 68.27053187 0 6991.49127307 0 327.88461890 0 722.56375318 0 9204
0.09350000 0.09350330 18864.24050545 0 607.49147573 0 7082.53890882 0 -2.74324120 0 954.37420588 0 9349
0.09450000 0.09448040 18093.84596542 0 793.09378370 0 7627.08340538 0 -859.44908768 0 452.62509274 0 9564
0.09550000 0.09549270 17401.75527585 0 366.47311132 0 8412.56197326 0 -984.81621414 0 1083.44801037 0 10155
0.09650000 0.09649430 17184.81146355 0 -85.72031203 0 8129.35935038 0 749.86917095 0 -151.62997172 0 9913
0.09750000 0.09749140 17320.34589025 0 -67.15985941 0 8912.30912535 0 1146.87412923 0 1045.61926493 0 10476
0.09850000 0.09850240 17516.32734033 0 -31.11346933 0 7325.75776669 0 792.38727445 0 13.65991816 0 10575
0.09950000 0.09950330 17143.55221090 0 99.89774544 0 7137.80634321 0 394.18668514 0 1860.90320637 0 10882
0.10050000 0.10051200 17343.97013975 0 -25.26031196 0 6803.04074572 0 580.24262306 0 2151.27074247 0 10875
0.10150000 0.10150300 17149.20872134 0 -100.20253153 0 6007.00335835 0 710.32572647 0 1967.71143298 0 11118
0.10250000 0.10250800 17270.32459202 0 61.68613189 0 5919.37181127 0 549.27711030 0 2125.90517505 0 11575
0.10350000 0.10349800 17076.67229330 0 161.76621661 0 5047.09353608 0 134.90222848 0 951.44391165 0 11364
0.10450000 0.10450100 16949.23444037 0 162.54370952 0 5482.45628989 0 -716.60334394 0 1228.13932927 0 12093
0.10550000 0.10551000 16760.57318028 0 160.37205315 0 5790.10391083 0 -106.84859857 0 379.16365887 0 12067
0.10650000 0.10649700 16527.65804436 0 228.00284478 0 5435.64034757 0 -183.58925572 0 244.48879993 0 12054
0.10750000 0.10749900 16196.25307955 0 377.63861929 0 5756.60849605 0 77.96978360 0 -73.01734234 0 12807
0.10850000 0.10850100 15953.46677835 0 189.06387054 0 5376.81263895 0 165.19228735 0 -202.69384247 0 12736
0.10950000 0.10950300 15607.64325751 0 152.78678356 0 6274.46757276 0 -14.72289848 0 -474.42373122 0 12933
0.11050000 0.11050200 15489.18927410 0 423.37316991 0 6315.57154865 0 -599.70101899 0 -824.06484206 0 13428
0.11150000 0.11150900 14810.40802087 0 316.54054266 0 6123.79366222 0 -159.98386126 0 -921.86590763 0 13453
0.11250000 0.11250000 14683.08107990 0 -32.15038533 0 6993.79824203 0 224.12647145 0 -664.82520011 0 13668
0.11350000 0.11349100 14937.95678577 0 -250.85403786 0 5396.03368326 0 637.36672383 0 -963.43460467 0 13791
0.11450000 0.11448600 15289.32590509 0 -204.92095482 0 5330.48470930 0 1240.59474345 0 -1278.12735392 0 14205
0.11550000 0.11549300 15024.24629803 0 23.39166710 0 4242.56029185 0 481.98681842 0 -883.30070672 0 14776
0.11650000 0.11649800 15018.03522774 0 63.00609524 0 3860.40200980 0 621.50520307 0 -149.53262638 0 14553
0.11750000 0.11747300 14844.23617156 0 117.82622166 0 3352.93538463 0 363.71473064 0 211.60894658 0 14568
0.11850000 0.11849100 14588.47316994 0 267.82135095 0 3493.86013305 0 405.88457056 0 845.49858016 0 16015
0.11950000 0.11950300 14484.88139044 0 144.55378807 0 3484.62116600 0 276.83849407 0 915.42524956 0 15270
0.12050000 0.12050700 13956.71859177 0 350.83119627 0 3705.41362364 0 -668.02057395 0 1346.56003909 0 15999
0.12150000 0.12150000 13809.31658432 0 305.53918441 0 4335.63761664 0 -273.47897051 0 911.42798218 0 15670
0.12250000 0.12250700 13548.78436801 0 31.47814788 0 4913.36697447 0 -19.20895491 0 1451.90422770 0 16887
0.12350000 0.12352200 13533.03486834 0 35.11650413 0 4906.36842920 0 -131.53383197 0 795.07467147 0 16407
0.12450000 0.12449800 13643.61410192 0 -14.70304523 0 4732.54719062 0 198.56126249 0 1053.92102585 0 16306
0.12550000 0.12549900 13777.92849696 0 -73.24060814 0 4580.94161954 0 455.85928577 0 1056.14591996 0 17523
0.12650000 0.12650100 13985.33387989 0 -123.51933305 0 4262.03643369 0 488.69144698 0 1060.64340032 0 17154
0.12750000 0.12750600 13885.73493130 0 118.14564813 0 3952.14839095 0 422.09546402 0 1354.21296498 0 18007
0.12850000 0.12850300 13829.05891489 0 97.58023984 0 3538.74620710 0 214.56918704 0 1068.92076060 0 17496
0.12950000 0.12949900 13235.34714225 0 332.67047038 0 4198.26205124 0 -537.94967086 0 940.35715118 0 18405
0.13050000 0.13049000 13051.12236094 0 555.43161549 0 3894.58507879 0 -528.89925415 0 699.96433028 0 18100
0.13150000 0.13148800 12360.47352698 0 179.71288239 0 4366.13840824 0 181.32776067 0 1203.43923367 0 19059
0.13250000 0.13249300 12178.24516112 0 34.99128452 0 4128.24332490 0 385.91265221 0 662.50492171 0 18957
0.13350000 0.13349100 12294.70272907 0 64.59391099 0 3981.50678928 0 443.20533917 0 800.59808755 0 19468
0.13450000 0.13450700 12028.29217838 0 207.50964018 0 3592.41650914 0 189.66279517 0 867.60333568 0 19953
0.13550000 0.13551000 11912.16734633 0 31.07831023 0 3519.17024449 0 244.16271874 0 1405.78703079 0 19956
0.13650000 0.13649900 11796.59707413 0 52.18441438 0 3769.29891807 0 -8.62217450 0 1143.43585818 0 19723
0.13750000 0.13749600 11716.29680822 0 184.62073704 0 3012.64637106 0 -150.47205076 0 695.95708083 0 20946
0.13850000 0.13851100 11499.79664380 0 193.43047478 0 3610.57279854 0 -189.79810778 0 261.27310827 0 20955
0.13950000 0.13949800 11187.57944970 0 261.65353633 0 3793.53318340 0 -321.45616115 0 371.59391695 0 20506
0.14050000 0.14048300 10907.09417008 0 158.19152383 0 3652.47534061 0 -136.28197338 0 -362.78085186 0 21447
0.14150000 0.14148400 10834.14736775 0 -9.99998954 0 3604.13990431 0 227.01129178 0 -553.66146046 0 21771
0.14250000 0.14249400 10790.84733486 0 -72.54308276 0 2903.32044274 0 498.24096755 0 -912.17996533 0 22470
0.14350000 0.14350900 10827.33737282 0 17.82144617 0 2852.65585508 0 491.55186667 0 -757.64742737 0 22519
0.14450000 0.14449900 10944.49368619 0 4.06114158 0 2066.12362350 0 172.53355061 0 -1037.10011656 0 22218
0.14550000 0.14550500 10582.19973787 0 48.01889354 0 1473.43224098 0 257.27362265 0 -1100.78355120 0 23559
0.14650000 0.14650700 10437.54834728 0 313.80323526 0 1827.71834510 0 -192.75502088 0 -1177.55237999 0 23044
0.14750000 0.14750500 10076.57425140 0 265.78389807 0 1638.33615721 0 -212.62046374 0 -892.17255516 0 23649
0.14850000 0.14849900 10003.20598359 0 130.06757573 0 2234.96491464 0 -75.50931247 0 -1260.92490745 0 23640
0.14950000 0.14949500 9814.04561963 0 29.87103344 0 2076.81553736 0 17.06968484 0 -954.95760284 0 24457
0.15050000 0.15050000 9753.55423148 0 169.78404288 0 2368.66929385 0 -260.03422157 0 -853.24134475 0 24591
0.15150000 0.15149900 9503.58083466 0 158.63849907 0 2547.40393267 0 92.92049526 0 -279.05562434 0 25020
0.15250000 0.15250500 9562.44181686 0 82.64427947 0 2620.68347091 0 113.75242502 0 -360.61695934 0 25297
0.15350000 0.15350100 9465.46039075 0 73.55448901 0 3083.25293083 0 121.54399088 0 187.57875927 0 25452
0.15450000 0.15450400 9380.54618691 0 81.39918170 0 2847.13243900 0 307.74855084 0 285.75470729 0 26061
0.15550000 0.15549900 9140.86542086 0 153.67407932 0 2851.64655616 0 -167.99725106 0 363.30546548 0 26128
0.15650000 0.15649500 9214.66624536 0 161.90152921 0 3141.17116130 0 -127.44228941 0 745.08110123 0 26331
0.15750000 0.15749700 8893.17681061 0 87.36879663 0 2925.93539332 0 83.56063416 0 452.43654239 0 27345
0.15850000 0.15849900 8923.94379095 0 7.15855797 0 2789.34730290 0 396.43265252 0 913.19813721 0 26980
0.15950000 0.15949700 8863.84059469 0 -8.98108564 0 2696.85781155 0 274.10673226 0 826.96962654 0 27777
0.16050000 0.16050000 8869.37510196 0 53.77611205 0 2419.13423997 0 466.26504675 0 1059.32909348 0 28224
0.16150000 0.16150500 8814.96168974 0 -17.61304258 0 2485.09358822 0 254.73595679 0 1479.52130811 0 28075
0.16250000 0.16249700 8708.59711100 0 48.57899899 0 1969.92967237 0 -24.88953325 0 1029.88862030 0 28590
0.16350000 0.16349900 8731.72225664 0 22.01879874 0 2295.27884365 0 113.65593161 0 1979.01336267 0 29163
0.16450000 0.16449100 8666.90530167 0 65.61607571 0 2117.74205410 0 -71.49662833 0 951.76001076 0 28996
0.16550000 0.16550500 8673.59329343 0 141.16875476 0 2129.49872286 0 -233.22014383 0 1253.47162310 0 30777
0.16650000 0.16650700 8466.87556471 0 109.58346591 0 2408.00976943 0 -120.76871621 0 545.47504799 0 29211
0.16750000 0.16749900 8380.70805562 0 113.89217410 0 2418.50204174 0 -225.09251471 0 963.50337009 0 30922
0.16850000 0.16850800 8450.44950203 0 18.32920116 0 2416.10634320 0 0.25661924 0 337.23560705 0 30867
0.16950000 0.16949900 8306.00884418 0 -0.23642106 0 2469.44390932 0 7.57016338 0 -227.53701451 0 30852
0.17050000 0.17049200 8286.74343508 0 141.87415488 0 2335.89480687 0 -221.29710711 0 -478.76038923 0 31257
0.17150000 0.17149500 8155.03547132 0 121.16023546 0 2537.28876106 0 -229.87614795 0 -561.35764202 0 32608
0.17250000 0.17250900 8134.07310908 0 66.68759624 0 2666.63429987 0 180.81423825 0 -230.44068987 0 32361
0.17350000 0.17350400 7934.23192247 0 20.24842188 0 2258.38952260 0 243.20665756 0 -501.68700244 0 32508
0.17450000 0.17449800 7880.15124615 0 35.37326534 0 2267.04065622 0 414.87731305 0 2.27237552 0 32791
0.17550000 0.17549800 7995.96552469 0 -10.35694862 0 2088.05091987 0 332.25455050 0 190.23953741 0 33633
0.17650000 0.17650100 7912.85918595 0 42.43003940 0 1740.94082017 0 328.23066425 0 403.00196847 0 33984
0.17750000 0.17750300 7788.30504422 0 148.81391681 0 1830.50223553 0 -195.64205945 0 363.07698682 0 34069
0.17850000 0.17849800 7728.31275993 0 56.02263399 0 1931.66504290 0 -201.77438224 0 696.33307240 0 34536
