### header ###
fiducial parameters:
Omega_m = 0.31
Omega_nu = 0
Omega_de = 0.69
Omega_k = 0
H_0 = 100
w_de = -1
zeff = 0
beta = 0
fgrowth = 0
b_1 = 2
gamma = 0.55
Lx = 3500 Ly = 3500 Lz = 3500
nx = 700 ny = 700 nz = 700
xoffset = 1379.75464 yoffset = 22.6059522 zoffset = 368.141391
bins = 400 dk = 0.001
kx_ny = 0.628318531 ky_ny = 0.628318531 kz_ny = 0.628318531
############################
A(data) = 3.36826352 (not used)
A(ran) = 3.37812668 (used)
Ngal = 189509
weighted Ngal = 0
Nran = 9399747
weighted Nran = 0
SN(data) = 6618.32317
SN(ran) = 134.366282
SN(data+ran) = 6752.68945
############################
13 columns: k_central k_mean P_0(k) sigma^{lin}_{P_0(k)} P^img_1(k) sigma^{lin}_{P_1(k)} P_2(k) sigma^{lin}_{P_2(k)} P^img_3(k) sigma^{lin}_{P_3(k)} P_4(k) sigma^{lin}_{P_4(k)} N_modes
### header ###
0.00050000 0 0 0 0 0 0 0 0 0 0 0 0
0.00150000 0.00179520 20614.65320781 0 -15120.29606360 0 -8063.79928522 0 26945.39751389 0 38509.63401195 0 3
0.00250000 0.00253879 35349.41926550 0 -15167.10091472 0 13464.26944726 0 -18169.37701664 0 -13733.56370917 0 6
0.00350000 0.00331552 41104.64136193 0 3549.06102026 0 17496.03044991 0 5682.41947966 0 26357.00951579 0 7
0.00450000 0.00420575 50116.46070630 0 10926.72558868 0 42620.14251293 0 -11835.30535148 0 32539.68634260 0 24
0.00550000 0.00557378 48954.87964991 0 -7111.23183532 0 50588.94569629 0 52882.82704913 0 46974.54643481 0 45
0.00650000 0.00659388 47481.19231140 0 -4306.74504859 0 17517.43646002 0 74728.38129425 0 -1146.35284298 0 40
0.00750000 0.00754703 74576.87554394 0 -14459.92619731 0 23224.07911382 0 14026.48222057 0 45203.83684202 0 57
0.00850000 0.00846663 71788.21589525 0 5232.85999376 0 26086.60613419 0 9090.98830819 0 22664.75005172 0 75
0.00950000 0.00948925 78565.38087849 0 8094.07825289 0 25676.56458301 0 -7497.12785074 0 46483.76096985 0 112
0.01050000 0.01054430 58431.42014641 0 362.07545173 0 45553.98592968 0 -4361.51337912 0 28714.88707501 0 105
0.01150000 0.01145670 71630.49907464 0 2530.76713725 0 38563.86996503 0 10212.71869394 0 -916.03415627 0 144
0.01250000 0.01249090 72300.74010623 0 -2444.52198978 0 47369.06031026 0 2121.69052021 0 9629.76538234 0 169
0.01350000 0.01339930 65972.54677545 0 3445.65779112 0 44319.64662131 0 6634.68746725 0 -1979.96720561 0 180
0.01450000 0.01448870 72913.63964958 0 -382.00633265 0 33889.04136332 0 11911.72369845 0 9500.77476183 0 267
0.01550000 0.01550050 73159.19875002 0 -2658.84827961 0 22137.58546077 0 16259.58381412 0 -2983.53197907 0 238
0.01650000 0.01653350 68944.76573363 0 2747.92168230 0 26391.72496223 0 5068.77682611 0 12278.73140547 0 315
0.01750000 0.01747870 65410.66673805 0 5522.65078763 0 8951.31686502 0 1561.87344545 0 -475.08587568 0 297
0.01850000 0.01844180 63663.47048280 0 235.37294516 0 17118.70792973 0 1331.69783518 0 2852.94422620 0 388
0.01950000 0.01947590 60938.25248065 0 751.48737659 0 13070.64286757 0 -4782.95668075 0 -7406.67913963 0 399
0.02050000 0.02045430 64707.04120366 0 612.81635938 0 16261.13658170 0 1661.53894122 0 2539.19644693 0 462
0.02150000 0.02154770 62789.81689919 0 -5380.88310823 0 7121.55773968 0 11804.13908805 0 -5317.80747119 0 571
0.02250000 0.02255340 71794.31605357 0 -3499.51664350 0 -5931.84940783 0 6499.98488031 0 -7178.86595431 0 510
0.02350000 0.02348930 69742.22279421 0 1098.92023011 0 1753.49605512 0 -5768.56480636 0 -3261.99866085 0 555
0.02450000 0.02439640 72126.94105005 0 2766.26652205 0 2082.20585907 0 -5641.88115482 0 -2763.78209394 0 592
0.02550000 0.02547300 67489.15704615 0 3304.56667474 0 12974.59310200 0 -10377.75570453 0 -6303.51541757 0 837
0.02650000 0.02652900 63863.11202787 0 3224.75442150 0 22899.43977915 0 -10726.18565666 0 -23356.50800538 0 723
0.02750000 0.02749970 61444.67653331 0 783.10394261 0 24176.36928380 0 18.62555795 0 -10164.09488652 0 826
0.02850000 0.02848090 61398.98080188 0 805.49928748 0 26927.42977483 0 -191.65921062 0 -23929.36832776 0 831
0.02950000 0.02946900 61852.49984509 0 658.68844084 0 24656.06355181 0 -785.55066065 0 -14329.05007332 0 996
0.03050000 0.03053250 62345.83628535 0 -932.81846461 0 25616.78303146 0 7349.09364507 0 -14140.72154914 0 1041
0.03150000 0.03150510 63727.46668919 0 -1080.86819796 0 15411.21815956 0 4110.55286577 0 -16341.76958351 0 1036
0.03250000 0.03246190 60850.96476067 0 1638.34724840 0 18525.62626262 0 2566.94662170 0 -4725.84810767 0 1059
0.03350000 0.03345080 60623.48431126 0 3094.02248307 0 14954.26084529 0 -875.51579558 0 -10349.78370582 0 1302
0.03450000 0.03451200 55733.59740073 0 1179.09405637 0 19410.14921924 0 3347.96652840 0 3912.83009777 0 1339
0.03550000 0.03553350 55503.78779996 0 -164.98155460 0 15149.02226370 0 5373.37436790 0 -5857.07255801 0 1365
0.03650000 0.03647120 55746.35227722 0 1035.43532790 0 18388.64998031 0 417.97619347 0 6671.18859640 0 1308
0.03750000 0.03744890 52342.57484578 0 2640.98036133 0 15801.18464425 0 -1621.33335229 0 -4011.07592034 0 1579
0.03850000 0.03847530 50471.26809667 0 861.92797020 0 17482.05554176 0 -584.33749298 0 5411.37280864 0 1662
0.03950000 0.03950240 48822.11802244 0 762.13159830 0 20292.89758435 0 689.41771110 0 1134.45198865 0 1683
0.04050000 0.04050350 50261.31173844 0 -50.30456741 0 19720.70273379 0 1943.19988772 0 -599.77533001 0 1822
0.04150000 0.04152450 50267.96645661 0 1049.49120179 0 21805.40411218 0 -2632.02976539 0 -3912.27553793 0 1887
0.04250000 0.04250150 49706.86280300 0 890.09961045 0 20038.13279045 0 -1372.04760968 0 -4710.07642561 0 1920
0.04350000 0.04349210 46794.31448440 0 1358.78253813 0 20863.87240324 0 -1300.40956859 0 -7271.36653686 0 2005
0.04450000 0.04448520 45568.07174980 0 2255.46144660 0 25725.58767352 0 -3475.59293168 0 -8431.30609610 0 2151
0.04550000 0.04548030 43286.39071361 0 2003.11453364 0 25271.07042259 0 682.30049002 0 -8390.59031210 0 2274
0.04650000 0.04648670 41953.45066438 0 -35.21277572 0 22805.27551706 0 3593.70308798 0 -11377.46074146 0 2311
0.04750000 0.04749250 41137.36039293 0 901.45588700 0 25038.48802258 0 451.98180332 0 -8972.62305435 0 2568
0.04850000 0.04851840 40207.14170488 0 1166.22826791 0 21068.61589890 0 2963.15745028 0 -6460.53349276 0 2493
0.04950000 0.04949480 38137.96800222 0 181.97881393 0 19020.84820635 0 2947.29703864 0 -8792.04727684 0 2644
0.05050000 0.05050630 37588.17736950 0 -2.38719159 0 16302.50674631 0 2421.24156739 0 -4063.98092978 0 2829
0.05150000 0.05149060 37351.93487450 0 299.45344464 0 13588.04720521 0 2443.52378206 0 -5865.54623248 0 2784
0.05250000 0.05249300 37112.47593239 0 398.05418551 0 13915.34842715 0 929.93918988 0 -3535.16375049 0 3055
0.05350000 0.05348950 35862.16530041 0 623.94526640 0 12308.67763723 0 -1697.98461439 0 -6831.26784196 0 3009
0.05450000 0.05448610 35057.83169773 0 875.89733275 0 14579.71112435 0 -190.07760594 0 -2778.48902109 0 3336
0.05550000 0.05550870 34850.42631480 0 798.23233524 0 15325.59411912 0 -2286.61661883 0 -7286.15110239 0 3349
0.05650000 0.05647670 35519.00366684 0 -620.92291523 0 15831.68543586 0 1154.24977520 0 -6145.33276669 0 3324
0.05750000 0.05747970 35235.95632072 0 33.66999022 0 16633.02441537 0 168.23793003 0 -8080.24753029 0 3639
0.05850000 0.05849280 35385.46565558 0 228.23465080 0 15121.73791921 0 -1877.96146727 0 -6067.62784087 0 3846
0.05950000 0.05951020 34978.41872758 0 923.43198463 0 17551.37552268 0 1098.79046310 0 -7188.33783651 0 3787
0.06050000 0.06049470 34568.59900034 0 873.54821724 0 18928.68035971 0 -5.95619459 0 -4086.96188986 0 3930
0.06150000 0.06148310 31753.76412685 0 913.01402334 0 17738.48401520 0 2095.84803132 0 -5218.84072082 0 4083
0.06250000 0.06249100 32701.28508214 0 273.61206487 0 17352.06671352 0 2781.61673863 0 170.27871027 0 4303
0.06350000 0.06350600 30847.16968831 0 -78.20414059 0 15001.50934429 0 2925.44738065 0 -577.85690660 0 4470
0.06450000 0.06451750 31577.08135947 0 922.16093346 0 13531.14936486 0 614.81832043 0 880.58447258 0 4479
0.06550000 0.06550280 28975.97385117 0 1255.47912975 0 15496.06581621 0 228.12706619 0 2484.25065725 0 4636
0.06650000 0.06648880 28689.71005794 0 134.43085261 0 12963.83464096 0 76.14306346 0 1864.10856228 0 4653
0.06750000 0.06749660 28559.27758183 0 -280.94001870 0 12399.29271630 0 1664.74429714 0 864.53329236 0 5220
0.06850000 0.06852730 28197.70456131 0 138.99266192 0 11554.36533278 0 906.24395672 0 -994.81160083 0 5029
0.06950000 0.06949320 29020.67137487 0 154.52255588 0 12103.71231763 0 -1378.83542221 0 -406.17737816 0 5040
0.07050000 0.07048030 28434.83435207 0 131.23547877 0 11732.82269168 0 433.60701733 0 -48.55104917 0 5475
0.07150000 0.07148790 28241.62570123 0 366.18474020 0 11580.76238152 0 210.47764449 0 -3301.16167728 0 5509
0.07250000 0.07249820 28173.19301606 0 64.32029117 0 10993.35040875 0 286.62869361 0 155.60394759 0 5916
0.07350000 0.07351270 27728.43601843 0 133.66999650 0 12181.23978429 0 1352.39400868 0 -652.79679702 0 5721
0.07450000 0.07449140 28070.48853232 0 448.88846849 0 12225.38274815 0 341.58113801 0 1039.33942922 0 6028
0.07550000 0.07549160 26543.78527239 0 459.35412193 0 11285.18198285 0 874.97787253 0 885.07086175 0 6183
0.07650000 0.07648840 27185.85466373 0 79.51889108 0 11790.38600384 0 830.10399879 0 3682.43266357 0 6330
0.07750000 0.07749960 26950.49946449 0 -443.67893328 0 9638.80470785 0 1713.37919576 0 3660.53864079 0 6583
0.07850000 0.07848650 26888.94332142 0 -101.00852882 0 10442.76120984 0 1850.93222031 0 2391.22878845 0 6549
0.07950000 0.07947320 27640.92647451 0 229.27056860 0 8250.45303866 0 -307.33374008 0 4621.93468346 0 6828
0.08050000 0.08048110 26545.22712800 0 618.84109756 0 9352.26363470 0 -1368.57606503 0 1654.85094946 0 7147
0.08150000 0.08149960 25921.90185951 0 836.31950556 0 10563.04524075 0 -1101.20058020 0 1566.34319782 0 7386
0.08250000 0.08250610 24716.06692730 0 1091.75198952 0 11338.30881623 0 -1924.43358249 0 -398.43017709 0 7227
0.08350000 0.08350160 23952.21619347 0 687.87603473 0 11836.85811905 0 -57.85722888 0 -1017.87796313 0 7798
0.08450000 0.08449610 23123.92560538 0 397.32882123 0 12468.05813737 0 661.19726959 0 -706.65454028 0 7371
0.08550000 0.08548940 21934.61655662 0 431.55625502 0 11232.38788537 0 371.44529492 0 -2704.35546069 0 8256
0.08650000 0.08650700 22548.51430771 0 361.78264413 0 11882.77567442 0 1291.74734377 0 -470.20020342 0 8037
0.08750000 0.08749060 21094.79112370 0 222.30751515 0 10089.81714056 0 1744.58982397 0 -488.39309378 0 8155
0.08850000 0.08849210 20634.39553838 0 169.46239817 0 9405.22410012 0 2318.75890759 0 3368.87343464 0 8718
0.08950000 0.08949900 20804.86723548 0 -79.99414887 0 7532.76386654 0 1384.68048300 0 1802.56351042 0 8571
0.09050000 0.09049190 20283.13733103 0 284.05664504 0 7430.07047399 0 2024.79782367 0 4194.16939956 0 8932
0.09150000 0.09150830 19834.72023841 0 161.94700312 0 6368.15491338 0 191.04919479 0 4828.31967627 0 9285
0.09250000 0.09250820 19511.52275934 0 135.62426540 0 5797.10245611 0 235.73340906 0 5272.23374293 0 9204
0.09350000 0.09350330 19628.86762306 0 163.46427886 0 5682.25311171 0 566.51504860 0 5825.88411219 0 9349
0.09450000 0.09448040 19108.02501437 0 192.37015635 0 5009.87147912 0 132.61966015 0 3933.93664557 0 9564
0.09550000 0.09549270 19237.01563488 0 216.44581756 0 5790.33682597 0 -613.49070416 0 4058.33551054 0 10155
0.09650000 0.09649430 18421.81265918 0 525.30348810 0 6333.02909265 0 -346.44351875 0 3152.69491493 0 9913
0.09750000 0.09749140 17983.04490791 0 819.05827575 0 7414.80898699 0 -1469.20649494 0 3206.76450005 0 10476
0.09850000 0.09850240 17170.61473145 0 225.35315783 0 7136.05393409 0 161.29040426 0 2427.72991760 0 10575
0.09950000 0.09950330 16898.54767031 0 21.13849044 0 7553.72622877 0 764.63044497 0 1753.65133188 0 10882
0.10050000 0.10051200 17137.56296455 0 -63.55655134 0 7034.49184364 0 961.55464679 0 1610.45288808 0 10875
0.10150000 0.10150300 17093.30908872 0 -142.00946749 0 6109.69675090 0 188.29303235 0 1878.61584789 0 11118
0.10250000 0.10250800 17229.73081119 0 186.49404021 0 5365.48852687 0 447.83147742 0 1941.72475853 0 11575
0.10350000 0.10349800 16958.77286974 0 82.87297995 0 5676.53005409 0 -19.47924738 0 1469.68341641 0 11364
0.10450000 0.10450100 16606.73827860 0 141.67229510 0 5426.20173896 0 80.63599644 0 1274.14561421 0 12093
0.10550000 0.10551000 16587.88324379 0 433.42068522 0 5771.58161193 0 -70.34436388 0 1750.14651364 0 12067
0.10650000 0.10649700 15940.04643005 0 222.54375765 0 5836.44293168 0 -389.47181732 0 919.56670250 0 12054
0.10750000 0.10749900 15886.91959666 0 285.93327556 0 6272.53770449 0 338.92701458 0 1629.03064297 0 12807
0.10850000 0.10850100 15718.22249108 0 66.25370862 0 6258.17460444 0 -37.30313361 0 1405.48756848 0 12736
0.10950000 0.10950300 15510.59528421 0 237.03662470 0 6192.71436006 0 -144.72791986 0 593.16608575 0 12933
0.11050000 0.11050200 15145.47308068 0 203.00106862 0 6795.45436701 0 137.09052164 0 741.31896722 0 13428
0.11150000 0.11150900 14907.89964204 0 223.40554365 0 5871.74621157 0 -281.68645625 0 594.46375579 0 13453
0.11250000 0.11250000 14652.58028830 0 67.86082306 0 6309.81521743 0 635.20061306 0 14.86375668 0 13668
0.11350000 0.11349100 14468.13368305 0 275.52751459 0 5540.01960205 0 104.24316549 0 141.17097300 0 13791
0.11450000 0.11448600 14329.49372120 0 92.66062852 0 5397.12062057 0 577.49089710 0 263.77860966 0 14205
0.11550000 0.11549300 14005.96350622 0 -28.08989813 0 4501.72829094 0 807.88500395 0 154.46931814 0 14776
0.11650000 0.11649800 13954.27852844 0 -58.08570754 0 3776.09782179 0 280.48971610 0 -550.01356578 0 14553
0.11750000 0.11747300 13983.11564050 0 174.11737353 0 3963.18413192 0 -75.75731164 0 17.56878870 0 14568
0.11850000 0.11849100 13672.78394989 0 289.83848601 0 3749.95587059 0 -499.90797445 0 -996.82243484 0 16015
0.11950000 0.11950300 13606.90224002 0 95.99087132 0 3873.31216305 0 13.84347747 0 -699.48519057 0 15270
0.12050000 0.12050700 13389.07113196 0 -89.42510455 0 3953.32405783 0 365.70449138 0 -942.95692774 0 15999
0.12150000 0.12150000 13591.92912414 0 -92.27842587 0 3898.12317062 0 371.17910619 0 -635.45238323 0 15670
0.12250000 0.12250700 13883.62760388 0 -240.60022628 0 3318.98523077 0 793.03943683 0 118.94754167 0 16887
0.12350000 0.12352200 14076.05987093 0 -103.42086415 0 2956.97965358 0 457.69487886 0 -252.61088345 0 16407
0.12450000 0.12449800 14289.56541218 0 34.54641661 0 3177.27300736 0 155.63278470 0 936.03712997 0 16306
0.12550000 0.12549900 13903.25902247 0 377.13840631 0 3774.61160140 0 -680.68228439 0 538.78927447 0 17523
0.12650000 0.12650100 13532.14757259 0 493.02588674 0 3734.66111000 0 -538.76931032 0 1204.70363012 0 17154
0.12750000 0.12750600 13063.65541349 0 363.57830892 0 5004.95807887 0 -397.24452814 0 765.74621938 0 18007
0.12850000 0.12850300 12785.48819403 0 158.19152383 0 4463.70766780 0 179.35463673 0 540.52061031 0 17496
0.12950000 0.12949900 12596.93784591 0 47.73396069 0 5130.11114523 0 310.72764634 0 795.39964354 0 18405
0.13050000 0.13049000 12440.99561682 0 157.85878792 0 4589.45965880 0 5.53994196 0 319.83906464 0 18100
0.13150000 0.13148800 12452.75228559 0 121.88559974 0 4832.93361420 0 281.01654796 0 1462.08594650 0 19059
0.13250000 0.13249300 12126.33835940 0 22.65598801 0 4300.84453181 0 66.55993657 0 581.22530311 0 18957
0.13350000 0.13349100 12174.25233022 0 125.94608695 0 4506.02058415 0 54.93514213 0 947.10947188 0 19468
0.13450000 0.13450700 12098.16671915 0 113.06698905 0 4548.51095966 0 -19.57307890 0 639.63931008 0 19953
0.13550000 0.13551000 11779.62754280 0 249.50756655 0 5058.45092175 0 -358.92333356 0 729.12530530 0 19956
0.13650000 0.13649900 11834.97261557 0 40.09456606 0 4496.67070513 0 242.15077561 0 813.96408900 0 19723
0.13750000 0.13749600 11471.18135567 0 94.54047549 0 4946.74038609 0 71.63404826 0 138.44253855 0 20946
0.13850000 0.13851100 11697.99633326 0 214.72002732 0 4791.61890557 0 -26.61099793 0 420.37189201 0 20955
0.13950000 0.13949800 11178.92831608 0 138.52794076 0 4967.74711311 0 233.29778221 0 559.87918547 0 20506
0.14050000 0.14048300 11157.52230597 0 -96.98264615 0 4259.43000240 0 503.67454493 0 954.80676256 0 21447
0.14150000 0.14148400 11348.17998151 0 -165.56495156 0 4139.78926092 0 599.35719189 0 500.83630763 0 21771
0.14250000 0.14249400 11396.20486430 0 115.41832280 0 3431.06177593 0 276.27949774 0 585.20815194 0 22470
0.14350000 0.14350900 11046.39960375 0 226.54546151 0 3495.29089746 0 -317.26368870 0 628.96403302 0 22519
0.14450000 0.14449900 10850.75088958 0 191.49395179 0 3670.38762368 0 -208.97811466 0 438.67347610 0 22218
0.14550000 0.14550500 10779.68959073 0 85.15421734 0 3848.57879385 0 177.22623604 0 668.33556395 0 23559
0.14650000 0.14650700 10570.05487722 0 121.21125497 0 3497.77532558 0 269.34749965 0 126.14905585 0 23044
0.14750000 0.14750500 10583.94105580 0 85.14944812 0 3797.83656781 0 316.79342195 0 1207.99771562 0 23649
0.14850000 0.14849900 10202.69225190 0 222.60475923 0 3474.07343770 0 83.11465713 0 861.36786475 0 23640
0.14950000 0.14949500 10342.61879260 0 156.70752168 0 4108.64517989 0 -59.05785095 0 1840.34012722 0 24457
0.15050000 0.15050000 9874.06008632 0 128.24640119 0 3966.93295649 0 146.91510390 0 1174.14738253 0 24591
0.15150000 0.15149900 10026.94114506 0 30.49968249 0 3742.09221195 0 120.26517587 0 1921.86042479 0 25020
0.15250000 0.15250500 9766.44220233 0 49.47306037 0 3810.24761720 0 43.89119368 0 1129.66059157 0 25297
0.15350000 0.15350100 9803.91935682 0 134.83235394 0 4016.79897797 0 -133.19418415 0 1429.30036832 0 25452
0.15450000 0.15450400 9662.88369643 0 118.06690063 0 3805.48949371 0 -240.33514667 0 846.16183374 0 26061
0.15550000 0.15549900 9405.07991456 0 227.67676359 0 3905.36572223 0 -231.04626923 0 230.32090495 0 26128
0.15650000 0.15649500 9416.11565553 0 28.90133010 0 3562.02662950 0 199.19456983 0 484.75739942 0 26331
0.15750000 0.15749700 9292.67063349 0 -107.84813724 0 3346.60231117 0 462.81901185 0 -416.85376434 0 27345
0.15850000 0.15849900 9519.97362375 0 -119.93465820 0 2843.36143204 0 568.24083885 0 -163.98778336 0 26980
0.15950000 0.15949700 9433.55101713 0 -112.58674022 0 2100.01832137 0 378.57915279 0 -878.99843142 0 27777
0.16050000 0.16050000 9393.93326163 0 171.15047835 0 2017.26690094 0 -261.90863386 0 -513.89175556 0 28224
0.16150000 0.16150500 9397.52680944 0 181.67269689 0 1855.44633747 0 -252.39682335 0 -1200.43351930 0 28075
0.16250000 0.16249700 9020.27083644 0 164.29722775 0 2068.73005478 0 -57.55832112 0 -1199.89005065 0 28590
0.16350000 0.16349900 8800.73168405 0 174.84273781 0 1898.83509993 0 -102.37407698 0 -1071.30093147 0 29163
0.16450000 0.16449100 8736.21419140 0 51.07917660 0 2134.33448473 0 133.86963805 0 -1606.32696281 0 28996
0.16550000 0.16550500 8622.46287550 0 34.12883304 0 2012.10949436 0 115.87749836 0 -1225.29998285 0 30777
0.16650000 0.16650700 8682.13351508 0 79.73040021 0 2101.74854810 0 -72.68161181 0 -1399.94197000 0 29211
0.16750000 0.16749900 8612.43643346 0 0.94812210 0 1797.38392144 0 162.68678596 0 -767.34113350 0 30922
0.16850000 0.16850800 8640.82989765 0 -54.99381456 0 2016.10232526 0 172.35498234 0 -1191.60492653 0 30867
0.16950000 0.16949900 8699.97925097 0 4.45402505 0 1828.29508734 0 139.84335672 0 -463.42126385 0 30852
0.17050000 0.17049200 8804.53596460 0 40.44648974 0 1850.94331151 0 236.91794889 0 -395.14940103 0 31257
0.17150000 0.17149500 8691.53885010 0 -5.23389148 0 1625.21527122 0 568.11661744 0 134.31439504 0 32608
0.17250000 0.17250900 8690.59609836 0 40.79419876 0 1619.41457521 0 206.56356108 0 623.23432068 0 32361
0.17350000 0.17350400 8704.37136497 0 136.06569504 0 1761.48171692 0 94.48823595 0 1270.44115443 0 32508
0.17450000 0.17449800 8464.39113660 0 135.94923747 0 1619.50330479 0 137.45653114 0 1195.99704052 0 32791
0.17550000 0.17549800 8277.62647119 0 171.38893908 0 2192.70745427 0 -391.52923435 0 1324.25564203 0 33633
0.17650000 0.17650100 8019.78941573 0 246.97988276 0 2208.31276838 0 -261.84319579 0 1505.16415545 0 33984
0.17750000 0.17750300 7862.05041273 0 185.56237966 0 2582.88467171 0 -199.92658883 0 1174.74630716 0 34069
0.17850000 0.17849800 7756.12948188 0 13.58993271 0 2875.67008875 0 -115.82093325 0 1596.75525985 0 34536
