### header ###
fiducial parameters:
Omega_m = 0.31
Omega_nu = 0
Omega_de = 0.69
Omega_k = 0
H_0 = 100
w_de = -1
zeff = 0
beta = 0
fgrowth = 0
b_1 = 2
gamma = 0.55
Lx = 3500 Ly = 3500 Lz = 3500
nx = 700 ny = 700 nz = 700
xoffset = 1379.75464 yoffset = 22.6059522 zoffset = 368.141391
bins = 400 dk = 0.001
kx_ny = 0.628318531 ky_ny = 0.628318531 kz_ny = 0.628318531
############################
A(data) = 3.36478969 (not used)
A(ran) = 3.37771597 (used)
Ngal = 189718
weighted Ngal = 0
Nran = 9399747
weighted Nran = 0
SN(data) = 6576.83378
SN(ran) = 134.349946
SN(data+ran) = 6711.18373
############################
13 columns: k_central k_mean P_0(k) sigma^{lin}_{P_0(k)} P^img_1(k) sigma^{lin}_{P_1(k)} P_2(k) sigma^{lin}_{P_2(k)} P^img_3(k) sigma^{lin}_{P_3(k)} P_4(k) sigma^{lin}_{P_4(k)} N_modes
### header ###
0.00050000 0 0 0 0 0 0 0 0 0 0 0 0
0.00150000 0.00179520 46002.40302230 0 -21109.09876777 0 10804.41186873 0 9800.94691604 0 151750.86576528 0 3
0.00250000 0.00253879 45005.41532862 0 -14466.47000351 0 15909.54563844 0 -20382.18171978 0 -43621.01212554 0 6
0.00350000 0.00331552 65131.94495874 0 -1421.07070019 0 24990.35222783 0 -7789.17015759 0 -35362.17414199 0 7
0.00450000 0.00420575 86392.99312470 0 -4639.12603873 0 31982.13187202 0 -2941.68489299 0 -6516.85459087 0 24
0.00550000 0.00557378 89402.70032857 0 2629.84479959 0 77973.66552130 0 17487.71205220 0 41465.43799866 0 45
0.00650000 0.00659388 101939.30206308 0 3396.52378864 0 55227.83881989 0 27047.32561384 0 23765.10770096 0 40
0.00750000 0.00754703 94291.14538350 0 3212.16591296 0 95099.47181708 0 31263.75504568 0 24213.74661751 0 57
0.00850000 0.00846663 111185.92204685 0 4802.03353951 0 75090.61978658 0 53782.65585753 0 56299.13753312 0 75
0.00950000 0.00948925 99419.04938054 0 6042.94992766 0 80653.40961596 0 32160.47831894 0 69922.45474462 0 112
0.01050000 0.01054430 91227.86769837 0 12491.12782703 0 82322.74566864 0 28478.42275607 0 68691.55370730 0 105
0.01150000 0.01145670 79898.43183970 0 10445.50073549 0 72858.18366484 0 32633.18513288 0 77272.14731433 0 144
0.01250000 0.01249090 70100.02480776 0 4123.09700952 0 68081.42696318 0 47904.65421089 0 74040.28343559 0 169
0.01350000 0.01339930 65060.96129827 0 -1539.10321811 0 49134.88977638 0 33016.27507547 0 82428.77751146 0 180
0.01450000 0.01448870 71159.12320435 0 -2083.44807313 0 34427.40806319 0 25812.32083366 0 78926.73207506 0 267
0.01550000 0.01550050 71984.75190517 0 670.86546597 0 14661.12050995 0 8831.21029326 0 49756.55136533 0 238
0.01650000 0.01653350 68511.32175690 0 832.62613698 0 21228.66187087 0 5113.09724912 0 66956.00320885 0 315
0.01750000 0.01747870 63742.88345295 0 2368.50292590 0 8721.99527692 0 12794.02841568 0 35558.26650403 0 297
0.01850000 0.01844180 68877.99672800 0 -4352.29659445 0 8437.10679210 0 8905.18857691 0 52882.16157731 0 388
0.01950000 0.01947590 69762.96333250 0 -3350.22913257 0 2929.62876190 0 13059.77349456 0 27281.12804551 0 399
0.02050000 0.02045430 72969.87201811 0 788.81369080 0 -3027.59730455 0 -259.48077084 0 31871.10899057 0 462
0.02150000 0.02154770 68147.64140896 0 5350.70396134 0 63.54989663 0 -9306.27953215 0 21209.47410015 0 571
0.02250000 0.02255340 63611.45276911 0 5987.52721651 0 14398.25914227 0 -7758.96882830 0 28104.98215483 0 510
0.02350000 0.02348930 55408.62533014 0 4451.39643918 0 11346.18356606 0 -6990.17142063 0 3928.63505342 0 555
0.02450000 0.02439640 53455.13281165 0 2833.80082027 0 24184.35494560 0 -2101.55999775 0 -2488.63168005 0 592
0.02550000 0.02547300 49361.48293003 0 2339.52162827 0 23227.18464897 0 -5102.94880391 0 346.29378760 0 837
0.02650000 0.02652900 49612.47671697 0 -402.90658418 0 21260.04995823 0 5091.12558796 0 -301.82252431 0 723
0.02750000 0.02749970 50686.21549353 0 -2811.71824715 0 26247.09575403 0 9988.82070114 0 -1946.32760526 0 826
0.02850000 0.02848090 53660.43086717 0 -3074.67943559 0 11066.21957270 0 6661.57252865 0 -2633.18324987 0 831
0.02950000 0.02946900 54513.67664839 0 -36.64165462 0 20320.07101687 0 -2158.93475956 0 4325.40044185 0 996
0.03050000 0.03053250 56748.22009755 0 1114.87602604 0 12489.57505945 0 626.25112625 0 7982.76700032 0 1041
0.03150000 0.03150510 58712.47107708 0 -1790.77356806 0 17315.35485163 0 3668.12501950 0 2934.90817165 0 1036
0.03250000 0.03246190 56344.16779273 0 687.53109850 0 21102.11131369 0 -1341.92391877 0 8190.49402796 0 1059
0.03350000 0.03345080 56095.17042124 0 1659.53143457 0 13151.27586939 0 283.09725650 0 229.29386011 0 1302
0.03450000 0.03451200 56932.44487886 0 -616.68829624 0 24334.08610440 0 3089.15344761 0 10716.79141284 0 1339
0.03550000 0.03553350 54246.26788997 0 -402.06476233 0 12270.85665564 0 3062.60112212 0 -306.52630094 0 1365
0.03650000 0.03647120 58365.42752457 0 2395.74290560 0 24605.82042963 0 -176.15149905 0 8536.25100162 0 1308
0.03750000 0.03744890 51509.40413103 0 3715.46224808 0 15809.72486590 0 -5572.46135312 0 3288.01860889 0 1579
0.03850000 0.03847530 48565.24590112 0 3142.41337536 0 25062.77774390 0 -572.93241516 0 4113.71385690 0 1662
0.03950000 0.03950240 45116.21638613 0 554.72177889 0 21805.07137627 0 4012.14067525 0 5674.13435554 0 1683
0.04050000 0.04050350 46428.97045692 0 -676.49979402 0 20624.52437310 0 4414.88421883 0 5641.73696926 0 1822
0.04150000 0.04152450 47169.19694125 0 -238.87110867 0 19933.87553913 0 5031.89859626 0 8599.51518902 0 1887
0.04250000 0.04250150 46359.20682812 0 -142.12814329 0 12960.17454597 0 82.85989234 0 4770.88945847 0 1920
0.04350000 0.04349210 44406.49069342 0 1288.37561990 0 21155.12723510 0 134.50072715 0 6683.88801691 0 2005
0.04450000 0.04448520 45770.37518214 0 1347.33642288 0 19580.62091633 0 -4492.97733654 0 3703.71667051 0 2151
0.04550000 0.04548030 43021.31110655 0 1544.36044546 0 21387.15507526 0 -2474.82313984 0 -789.83075356 0 2274
0.04650000 0.04648670 42386.11825733 0 1560.19867471 0 26087.71525388 0 -2420.04371812 0 1308.43959518 0 2311
0.04750000 0.04749250 40777.56196393 0 396.99830356 0 24895.18975801 0 -807.68092592 0 -7118.74057566 0 2568
0.04850000 0.04851840 39677.86978651 0 826.16329652 0 24390.09664899 0 3082.35454388 0 -5503.82902640 0 2493
0.04950000 0.04949480 39818.17342791 0 414.78858347 0 23522.87595961 0 2849.94960303 0 -3774.94433731 0 2644
0.05050000 0.05050630 37863.68270169 0 729.53013399 0 21314.72955919 0 4875.11343620 0 680.40944094 0 2829
0.05150000 0.05149060 37092.06813000 0 474.75092153 0 19025.28468513 0 2988.04609623 0 -486.19370942 0 2784
0.05250000 0.05249300 37280.28574221 0 233.19019760 0 14438.29836326 0 2790.86679688 0 4827.14400940 0 3055
0.05350000 0.05348950 34421.97337669 0 1323.93399732 0 19068.65126520 0 305.85417440 0 2455.12517406 0 3009
0.05450000 0.05448610 35524.88200122 0 659.90403603 0 16490.72435853 0 -1454.33319984 0 6089.92114674 0 3336
0.05550000 0.05550870 34499.61175532 0 342.07358716 0 20810.74556986 0 -334.63361224 0 5243.23026291 0 3349
0.05650000 0.05647670 32874.75140241 0 920.61703885 0 19804.10853484 0 273.56104537 0 3151.94071353 0 3324
0.05750000 0.05747970 33520.25906480 0 32.69030480 0 19648.16630575 0 785.67044558 0 4001.20475506 0 3639
0.05850000 0.05849280 34267.02935532 0 -714.47161589 0 21651.68012247 0 3454.91894057 0 4607.48285384 0 3846
0.05950000 0.05951020 33675.97946995 0 13.58605079 0 17898.64089913 0 1939.86143744 0 6947.33721802 0 3787
0.06050000 0.06049470 34030.67594835 0 391.15213365 0 18617.01772547 0 1757.99908108 0 6795.82037651 0 3930
0.06150000 0.06148310 33475.56154109 0 212.13023283 0 16238.73236386 0 918.58513157 0 7026.90546493 0 4083
0.06250000 0.06249100 32770.60506307 0 75.13553913 0 15617.40351082 0 1366.40219043 0 4880.42611954 0 4303
0.06350000 0.06350600 33559.63281396 0 246.79909625 0 12366.57368530 0 1318.53258440 0 5636.52410669 0 4470
0.06450000 0.06451750 32529.26061747 0 52.95613986 0 13802.99460206 0 689.57964258 0 4164.91082201 0 4479
0.06550000 0.06550280 32012.74357559 0 247.02646579 0 9285.98264173 0 687.59764569 0 1247.95929822 0 4636
0.06650000 0.06648880 33089.80971124 0 -366.55407706 0 11492.25462987 0 1029.99509579 0 3274.25443348 0 4653
0.06750000 0.06749660 31720.37962404 0 -291.02191672 0 7380.96974510 0 1436.52073754 0 -1807.46581947 0 5220
0.06850000 0.06852730 32475.02466440 0 503.18431403 0 10196.45899921 0 -545.20331367 0 -817.87262680 0 5029
0.06950000 0.06949320 32283.25786916 0 570.47571503 0 5603.01760071 0 -2649.36530622 0 -2521.90527089 0 5040
0.07050000 0.07048030 31223.60491273 0 502.32141890 0 11243.92273020 0 1028.20054013 0 -480.94979151 0 5475
0.07150000 0.07148790 30526.07953665 0 841.45916623 0 9298.50460309 0 -1159.34063460 0 -3108.11939439 0 5509
0.07250000 0.07249820 29696.79074084 0 463.33142515 0 9480.14513551 0 743.92872587 0 -1656.93609449 0 5916
0.07350000 0.07351270 29679.59938557 0 237.18635586 0 10731.04360092 0 1389.70479522 0 -1808.76348951 0 5721
0.07450000 0.07449140 28993.60885432 0 433.21993456 0 9518.57613293 0 257.20152987 0 -46.42597583 0 6028
0.07550000 0.07549160 27895.13670857 0 851.08632518 0 10916.99860895 0 -588.71297017 0 -854.47135849 0 6183
0.07650000 0.07648840 26952.71770388 0 1042.67787950 0 10311.29725241 0 -1468.69629988 0 -1630.19521865 0 6330
0.07750000 0.07749960 26084.72063071 0 258.52027319 0 10835.85541208 0 1012.20148853 0 -1437.57440125 0 6583
0.07850000 0.07848650 25756.75393695 0 36.40019926 0 10186.74311069 0 1249.19042108 0 -1530.79591160 0 6549
0.07950000 0.07947320 25355.47443136 0 320.11301720 0 8549.18333727 0 1415.55837530 0 -1861.54649579 0 6828
0.08050000 0.08048110 24456.53291871 0 592.19560602 0 8237.32106148 0 453.77746810 0 -1769.37864915 0 7147
0.08150000 0.08149960 23660.96136161 0 335.60631022 0 6200.26746518 0 1562.17290776 0 328.05985981 0 7386
0.08250000 0.08250610 23253.58169770 0 289.00997360 0 6262.86618075 0 1129.12821412 0 -674.67307388 0 7227
0.08350000 0.08350160 22820.69228082 0 211.77420541 0 5064.49562409 0 211.33388489 0 -472.38073274 0 7798
0.08450000 0.08449610 21828.91744971 0 592.28544471 0 4675.93772140 0 1007.86150316 0 389.61156640 0 7371
0.08550000 0.08548940 21607.98080650 0 96.50439373 0 4185.51826594 0 -383.63119300 0 -366.97110607 0 8256
0.08650000 0.08650700 21466.23530950 0 215.91898571 0 3306.67400216 0 841.03548251 0 -153.53433023 0 8037
0.08750000 0.08749060 21135.49581650 0 286.70965935 0 4869.32383139 0 30.28551147 0 -307.89495464 0 8155
0.08850000 0.08849210 20311.53079522 0 792.25528921 0 4623.90891652 0 -766.63573338 0 791.21382582 0 8718
0.08950000 0.08949900 19456.17768657 0 518.66318849 0 4639.44768344 0 570.16072504 0 545.21662310 0 8571
0.09050000 0.09049190 19009.64609744 0 163.32674802 0 4758.77787141 0 251.59382069 0 1459.30205607 0 8932
0.09150000 0.09150830 19201.85654055 0 -168.70265118 0 4886.79246658 0 759.06377322 0 1172.26187905 0 9285
0.09250000 0.09250820 19035.37767436 0 159.23409635 0 4648.06554347 0 413.99334465 0 586.48807607 0 9204
0.09350000 0.09350330 18511.65135446 0 593.57313268 0 4050.47185190 0 -996.12368943 0 1365.99181614 0 9349
0.09450000 0.09448040 18009.33104468 0 620.80423942 0 5064.47344169 0 -745.94954195 0 328.46357938 0 9564
0.09550000 0.09549270 17539.17520604 0 461.80638557 0 5785.66743206 0 -408.05068132 0 622.57217622 0 10155
0.09650000 0.09649430 16585.99774031 0 369.84261696 0 5585.98152220 0 153.50992960 0 395.84481908 0 9913
0.09750000 0.09749140 16737.94713850 0 -44.34205084 0 5347.34332866 0 1158.29806209 0 496.57617889 0 10476
0.09850000 0.09850240 16374.37770254 0 -207.87232232 0 4910.90472875 0 598.77268581 0 729.58004437 0 10575
0.09950000 0.09950330 16869.48873431 0 37.65716461 0 4568.80785008 0 669.56335945 0 1807.44363708 0 10882
0.10050000 0.10051200 16797.83960202 0 -128.94071012 0 3669.84415503 0 1027.36759124 0 1844.97624755 0 10875
0.10150000 0.10150300 16713.54650522 0 53.22454683 0 3675.89994856 0 -160.27555974 0 2346.98600382 0 11118
0.10250000 0.10250800 16725.41408595 0 239.70849404 0 3296.89156645 0 -230.25990336 0 1770.41013047 0 11575
0.10350000 0.10349800 16534.31276253 0 410.39536036 0 4770.80072890 0 -380.88057616 0 1665.53177212 0 11364
0.10450000 0.10450100 16073.47352933 0 85.65309938 0 4014.91347448 0 -258.01784197 0 2091.20081980 0 12093
0.10550000 0.10551000 15978.75470740 0 -15.98086203 0 5007.73087811 0 750.00448355 0 2117.30949742 0 12067
0.10650000 0.10649700 16010.91917855 0 209.11120902 0 3679.13857807 0 558.81886704 0 2524.31206063 0 12054
0.10750000 0.10749900 15645.57515107 0 128.30629366 0 3919.22971841 0 194.10592867 0 2092.12138915 0 12807
0.10850000 0.10850100 15285.22216222 0 352.66678936 0 4137.24937682 0 -338.09295657 0 1687.01542061 0 12736
0.10950000 0.10950300 14864.75488592 0 445.62654746 0 5114.50583113 0 -865.59915639 0 2155.21920858 0 12933
0.11050000 0.11050200 14502.07274571 0 337.80569457 0 5005.95628660 0 -923.14915911 0 1355.12244313 0 13428
0.11150000 0.11150900 14369.08929430 0 212.53395240 0 5886.78587463 0 43.73913337 0 1416.43457986 0 13453
0.11250000 0.11250000 14307.31132730 0 -61.14532513 0 5817.05551942 0 -295.73234807 0 -457.27119514 0 13668
0.11350000 0.11349100 14905.68140266 0 -325.58874113 0 5496.48665402 0 629.23909470 0 105.41239948 0 13791
0.11450000 0.11448600 14551.87222001 0 9.66301679 0 5598.96931383 0 108.10966766 0 -219.12877811 0 14205
0.11550000 0.11549300 14987.09078826 0 101.41269203 0 5248.52076385 0 38.01108471 0 450.18613853 0 14776
0.11650000 0.11649800 14504.29098510 0 225.85115258 0 5039.93971404 0 -2.83710600 0 -796.39341479 0 14553
0.11750000 0.11747300 14394.48813531 0 317.98683474 0 5470.49997957 0 -63.47835841 0 -345.06821033 0 14568
0.11850000 0.11849100 13802.32913025 0 360.36186181 0 5430.06147550 0 166.78165587 0 -445.57663708 0 16015
0.11950000 0.11950300 13454.95284183 0 95.87618834 0 5037.08927643 0 423.70368758 0 -409.83969139 0 15270
0.12050000 0.12050700 13138.63190486 0 -4.42403446 0 4934.06314798 0 782.81446237 0 349.64221995 0 15999
0.12150000 0.12150000 13228.35968818 0 46.61752081 0 3971.72435357 0 289.37820134 0 -301.98778315 0 15670
0.12250000 0.12250700 13166.58172117 0 -24.00966859 0 3807.84082746 0 721.69531246 0 451.49933625 0 16887
0.12350000 0.12352200 13251.20755389 0 60.11317834 0 3577.03301897 0 32.24166588 0 8.23993858 0 16407
0.12450000 0.12449800 12807.78149990 0 219.40383979 0 3734.51692444 0 -387.07722789 0 519.29427759 0 16306
0.12550000 0.12549900 12893.96010019 0 276.06654676 0 4477.48293441 0 -338.30812579 0 183.34524939 0 17523
0.12650000 0.12650100 12662.04317200 0 55.53273582 0 4519.07492296 0 -197.17708111 0 449.94656868 0 17154
0.12750000 0.12750600 12698.31138602 0 86.36005227 0 4877.95278262 0 -203.11974443 0 58.38960633 0 18007
0.12850000 0.12850300 12587.73215245 0 70.15492623 0 4880.11556602 0 171.56085263 0 270.88030307 0 17496
0.12950000 0.12949900 12703.30242465 0 -23.88400533 0 5179.11205335 0 155.29339407 0 325.90484025 0 18405
0.13050000 0.13049000 12507.76462245 0 55.64619877 0 4627.55792031 0 242.85617574 0 -197.94570105 0 18100
0.13150000 0.13148800 12557.78592069 0 121.51182641 0 4249.05973326 0 299.44457169 0 -72.71044892 0 19059
0.13250000 0.13249300 12250.33794128 0 104.86715623 0 4222.90669085 0 0.64697392 0 12.58784306 0 18957
0.13350000 0.13349100 11984.59286240 0 45.28879541 0 3443.08463342 0 823.96834864 0 -269.30646222 0 19468
0.13450000 0.13450700 12213.29334347 0 -65.21812356 0 3412.50620344 0 409.90956593 0 -263.34494386 0 19953
0.13550000 0.13551000 11873.45906898 0 189.39438821 0 2256.74802545 0 -98.00558724 0 -870.02121661 0 19956
0.13650000 0.13649900 11667.82827756 0 287.30858399 0 2929.90604183 0 -422.84522893 0 -629.26238622 0 19723
0.13750000 0.13749600 11358.71661861 0 185.51579663 0 3013.23420450 0 -210.09499819 0 -1272.61502904 0 20946
0.13850000 0.13851100 11389.55014613 0 86.77763583 0 3069.34456986 0 33.29477503 0 -1478.42327961 0 20955
0.13950000 0.13949800 11228.94961432 0 106.92856610 0 3493.32775560 0 -101.90713759 0 -889.99535320 0 20506
0.14050000 0.14048300 11200.00159028 0 -10.56932286 0 3176.60753555 0 206.75876615 0 -604.66211139 0 21447
0.14150000 0.14148400 11315.79368642 0 -54.02843678 0 3735.89223286 0 253.60021822 0 -191.93316319 0 21771
0.14250000 0.14249400 11405.52146974 0 68.05425353 0 3580.83729952 0 -219.41382187 0 -170.90536289 0 22470
0.14350000 0.14350900 11440.45874012 0 108.94694212 0 3862.43169884 0 -84.88425760 0 -92.79860301 0 22519
0.14450000 0.14449900 11213.75467450 0 110.52943410 0 4322.28381551 0 265.23155646 0 280.91118159 0 22218
0.14550000 0.14550500 11244.69911399 0 48.55670568 0 3926.17280770 0 -247.17065135 0 49.03839636 0 23559
0.14650000 0.14650700 11250.57744837 0 14.50218366 0 4307.48815878 0 529.80762318 0 519.78783586 0 23044
0.14750000 0.14750500 10911.64156083 0 50.13720124 0 3382.00541183 0 577.82252389 0 551.69831860 0 23649
0.14850000 0.14849900 11097.62984245 0 109.75526855 0 3604.22863389 0 -40.56716196 0 753.23867658 0 23640
0.14950000 0.14949500 10755.51078139 0 225.36313991 0 2860.39751055 0 305.25303153 0 697.37786315 0 24457
0.15050000 0.15050000 10379.61902562 0 267.96442739 0 3426.89148588 0 -64.43841241 0 586.23076030 0 24591
0.15150000 0.15149900 10240.46886870 0 132.43332804 0 2785.94230544 0 249.11604729 0 1220.41985620 0 25020
0.15250000 0.15250500 9927.22019329 0 -43.14386883 0 2690.20309338 0 488.34207427 0 666.33803938 0 25297
0.15350000 0.15350100 10129.68999358 0 -77.04710693 0 2244.54770881 0 287.24536416 0 758.11103940 0 25452
0.15450000 0.15450400 10027.89498799 0 152.53501339 0 2329.05153835 0 -30.10971600 0 624.10387052 0 26061
0.15550000 0.15549900 9948.27128510 0 176.61289284 0 2225.87013314 0 -277.96535968 0 488.91659827 0 26128
0.15650000 0.15649500 9745.51311369 0 52.22290083 0 2707.42772224 0 -224.50689951 0 497.12630225 0 26331
0.15750000 0.15749700 9717.41911182 0 175.43611685 0 2724.04233527 0 -381.11238218 0 -90.41155560 0 27345
0.15850000 0.15849900 9539.88232227 0 191.38303982 0 3326.58270068 0 -128.57580974 0 277.23888628 0 26980
0.15950000 0.15949700 9313.17825665 0 130.07755781 0 3569.31354589 0 -59.36030789 0 142.75035944 0 27777
0.16050000 0.16050000 9342.04864231 0 107.54434935 0 3213.54122138 0 164.58448975 0 167.80870071 0 28224
0.16150000 0.16150500 9147.63105100 0 56.35037886 0 3586.71563390 0 107.47103654 0 202.05720776 0 28075
0.16250000 0.16249700 9080.61803904 0 141.43494348 0 3471.54464479 0 33.77424747 0 394.08020965 0 28590
0.16350000 0.16349900 8932.83893090 0 110.58477917 0 3575.29170105 0 235.71011754 0 965.00289992 0 29163
0.16450000 0.16449100 8813.15382463 0 -6.28054555 0 3075.89946726 0 343.58198994 0 527.46405327 0 28996
0.16550000 0.16550500 8805.25689241 0 -41.74682167 0 2869.70302479 0 287.70786708 0 865.27307520 0 30777
0.16650000 0.16650700 8893.15462822 0 21.10410773 0 2610.82339682 0 -34.05784938 0 181.15695623 0 29211
0.16750000 0.16749900 8874.35504939 0 105.11615360 0 2765.92269495 0 42.11272025 0 623.79886260 0 30922
0.16850000 0.16850800 8734.47287348 0 68.75710268 0 2375.35728561 0 -33.31862110 0 356.47328816 0 30867
0.16950000 0.16949900 8640.79662406 0 23.06314585 0 2370.46606776 0 147.94658521 0 600.48183926 0 30852
0.17050000 0.17049200 8788.13208432 0 49.25644929 0 2369.45676884 0 109.53133729 0 320.23169301 0 31257
0.17150000 0.17149500 8579.42903134 0 75.22848336 0 2341.56240851 0 282.14230445 0 243.95974983 0 32608
0.17250000 0.17250900 8449.70639184 0 74.27874417 0 2325.45799054 0 -38.45805995 0 1014.09142849 0 32361
0.17350000 0.17350400 8415.73405558 0 70.92143885 0 2225.89231554 0 126.31875116 0 626.72250212 0 32508
0.17450000 0.17449800 8433.23596437 0 66.13004177 0 2220.76818255 0 150.06722207 0 1009.86679157 0 32791
0.17550000 0.17549800 8261.49987082 0 113.31875922 0 2179.26492357 0 -127.32139537 0 807.81402029 0 33633
0.17650000 0.17650100 8160.47015782 0 99.58142450 0 2588.92937405 0 -120.76538885 0 793.76923759 0 33984
0.17750000 0.17750300 8184.82642632 0 59.31816134 0 2377.89716971 0 90.57858903 0 791.75174887 0 34069
0.17850000 0.17849800 7988.73406427 0 217.92094676 0 2746.90129218 0 -222.78665486 0 751.92658799 0 34536
