### header ###
fiducial parameters:
Omega_m = 0.31
Omega_nu = 0
Omega_de = 0.69
Omega_k = 0
H_0 = 100
w_de = -1
zeff = 0
beta = 0
fgrowth = 0
b_1 = 2
gamma = 0.55
Lx = 3500 Ly = 3500 Lz = 3500
nx = 700 ny = 700 nz = 700
xoffset = 1379.75464 yoffset = 22.6059522 zoffset = 368.141391
bins = 400 dk = 0.001
kx_ny = 0.628318531 ky_ny = 0.628318531 kz_ny = 0.628318531
############################
A(data) = 3.30693928 (not used)
A(ran) = 3.30621336 (used)
Ngal = 185901
weighted Ngal = 0
Nran = 9399747
weighted Nran = 0
SN(data) = 6684.40872
SN(ran) = 131.505902
SN(data+ran) = 6815.91463
############################
13 columns: k_central k_mean P_0(k) sigma^{lin}_{P_0(k)} P^img_1(k) sigma^{lin}_{P_1(k)} P_2(k) sigma^{lin}_{P_2(k)} P^img_3(k) sigma^{lin}_{P_3(k)} P_4(k) sigma^{lin}_{P_4(k)} N_modes
### header ###
0.00050000 0 0 0 0 0 0 0 0 0 0 0 0
0.00150000 0.00179520 37358.03503282 0 -30422.15502125 0 -57512.18174334 0 62917.36566409 0 55498.68584936 0 3
0.00250000 0.00253879 74688.45298524 0 -41327.24168468 0 -34388.92160978 0 -39085.26713357 0 -13636.95938375 0 6
0.00350000 0.00331552 85970.19669703 0 -18212.74359671 0 -38549.67323294 0 -58640.60012086 0 -27034.57073735 0 7
0.00450000 0.00420575 103469.11085815 0 3064.51989919 0 -22218.55119850 0 -65767.91419175 0 -2535.27016321 0 24
0.00550000 0.00557378 80337.64323885 0 6267.73521621 0 11342.52347107 0 -25363.12735726 0 11618.47245114 0 45
0.00650000 0.00659388 75462.72944419 0 2779.73123515 0 -1473.86479766 0 30958.63621763 0 -20216.92288525 0 40
0.00750000 0.00754703 72883.24976995 0 -15846.43672780 0 3810.29198199 0 -5717.05728773 0 -39957.81159748 0 57
0.00850000 0.00846663 89894.70582519 0 4107.26987147 0 -4178.60845024 0 -11343.74350273 0 -39914.00136954 0 75
0.00950000 0.00948925 86564.57394149 0 8042.18254237 0 25954.17724263 0 -40171.53896268 0 -32532.92071247 0 112
0.01050000 0.01054430 68644.30520831 0 15727.42818455 0 27147.59003426 0 -38540.46753947 0 -36618.91766819 0 105
0.01150000 0.01145670 61729.72029488 0 6075.61350268 0 47907.20518618 0 6432.31748773 0 -8723.85859800 0 144
0.01250000 0.01249090 69658.70608119 0 -15861.74257959 0 23665.61966433 0 25342.71955487 0 -38362.67565239 0 169
0.01350000 0.01339930 84143.25473572 0 -13524.05099882 0 11568.45115290 0 33188.96501195 0 -42801.37267107 0 180
0.01450000 0.01448870 92419.06225061 0 -45.78168820 0 -1342.86667051 0 -6160.81607763 0 -27011.61195967 0 267
0.01550000 0.01550050 93278.85183803 0 3367.42048784 0 7620.15140729 0 -39938.18017889 0 -40013.93305404 0 238
0.01650000 0.01653350 83189.63362211 0 12536.93447042 0 19037.26317784 0 -13482.79174617 0 -13800.11089086 0 315
0.01750000 0.01747870 70458.60320510 0 5973.84067948 0 32372.98565247 0 4135.81861242 0 -25613.45567238 0 297
0.01850000 0.01844180 67560.02979465 0 -1651.06885130 0 27119.08565810 0 8948.96553126 0 -1420.27213401 0 388
0.01950000 0.01947590 69138.41803235 0 4172.19773841 0 23155.86825259 0 21563.61601870 0 -9130.17350700 0 399
0.02050000 0.02045430 62194.55235898 0 3620.69906135 0 19622.87837670 0 46.63670858 0 9745.24692496 0 462
0.02150000 0.02154770 58122.19757550 0 3237.37620363 0 17737.92945535 0 2510.75861796 0 10072.08231664 0 571
0.02250000 0.02255340 52480.32751187 0 3065.05227664 0 23821.78371736 0 1646.66564611 0 17184.58963961 0 510
0.02350000 0.02348930 49067.78803485 0 477.75330854 0 16918.29000088 0 6183.77485532 0 14127.52302477 0 555
0.02450000 0.02439640 51436.42405511 0 497.65091587 0 22699.57641014 0 -357.36169303 0 4823.09572251 0 592
0.02550000 0.02547300 50871.77121847 0 -2082.17258548 0 13982.45016869 0 6264.85150501 0 15517.25000238 0 837
0.02650000 0.02652900 55333.09427893 0 -2161.79628838 0 13530.37298108 0 5865.98988035 0 12385.09598420 0 723
0.02750000 0.02749970 55513.32622934 0 -177.39925871 0 10242.31000740 0 596.33927720 0 10539.78700074 0 826
0.02850000 0.02848090 58117.53927278 0 1118.36975308 0 14031.58417117 0 -2180.08567214 0 6241.71526817 0 831
0.02950000 0.02946900 54045.62813718 0 2082.06167351 0 15768.24378932 0 497.06973715 0 14311.63689411 0 996
0.03050000 0.03053250 54811.69711039 0 -31.74633302 0 14880.61529755 0 1451.73785975 0 13744.32217021 0 1041
0.03150000 0.03150510 52230.77558054 0 1138.11208364 0 14979.99242221 0 1635.36371642 0 3347.73361326 0 1036
0.03250000 0.03246190 51535.69026779 0 1981.35360522 0 16335.55851322 0 -892.63949455 0 10905.25303139 0 1059
0.03350000 0.03345080 49087.97401329 0 3404.29871770 0 23832.76400234 0 -3116.80380160 0 7084.00294681 0 1302
0.03450000 0.03451200 45634.17528361 0 1586.99500653 0 16920.84097618 0 1066.03372204 0 11380.78810054 0 1339
0.03550000 0.03553350 42951.65838972 0 1059.80157847 0 25737.45525426 0 5716.59145746 0 5404.24116901 0 1365
0.03650000 0.03647120 43783.16542493 0 143.91715336 0 17930.47263437 0 -1170.08800445 0 7935.93996680 0 1308
0.03750000 0.03744890 41907.53310901 0 581.75768057 0 20936.29791931 0 1782.13352564 0 3238.44095853 0 1579
0.03850000 0.03847530 42100.96358379 0 543.37770265 0 19777.93331004 0 -955.46336142 0 8589.55529416 0 1662
0.03950000 0.03950240 40907.43988019 0 118.62256960 0 20495.42284062 0 1889.97323357 0 1362.62009227 0 1683
0.04050000 0.04050350 42559.25184169 0 -517.93560597 0 16330.90021050 0 390.20494543 0 -2202.84480828 0 1822
0.04150000 0.04152450 42418.72637636 0 552.94496914 0 19414.69660999 0 404.45380615 0 -2024.64254691 0 1887
0.04250000 0.04250150 40815.49385749 0 6.90948296 0 14318.62434819 0 380.29274272 0 -5353.28821023 0 1920
0.04350000 0.04349210 40912.20909488 0 497.05975507 0 15786.43335231 0 1171.60749843 0 -3901.04015542 0 2005
0.04450000 0.04448520 40910.43450337 0 276.50132168 0 13510.51973854 0 1903.61540581 0 -6897.16064302 0 2151
0.04550000 0.04548030 38768.16981282 0 1062.75072774 0 12427.90800442 0 113.58162059 0 -5383.76681944 0 2274
0.04650000 0.04648670 39319.95686099 0 1303.68147169 0 12984.68609122 0 643.45135447 0 -4499.76514908 0 2311
0.04750000 0.04749250 36925.47835184 0 -244.39785211 0 10985.08746702 0 2821.32322370 0 -2989.23285430 0 2568
0.04850000 0.04851840 36359.93821945 0 1037.71345975 0 11491.92189396 0 1495.15989580 0 1372.25834242 0 2493
0.04950000 0.04949480 35691.69360332 0 457.15251933 0 10496.58678863 0 1143.38040220 0 2561.68939434 0 2644
0.05050000 0.05050630 35677.94051910 0 -216.86950129 0 9435.66943575 0 3115.00702770 0 3999.21943080 0 2829
0.05150000 0.05149060 36593.62973915 0 -123.80104946 0 11508.11504151 0 488.63155451 0 7437.54594074 0 2784
0.05250000 0.05249300 35817.13504080 0 257.95240390 0 9308.84159864 0 -857.94401225 0 6494.20636670 0 3055
0.05350000 0.05348950 35530.76033560 0 659.19752678 0 13952.83667283 0 933.90540191 0 8385.10016961 0 3009
0.05450000 0.05448610 35328.56781523 0 -300.06013312 0 8724.39097546 0 2430.80217916 0 8626.11187930 0 3336
0.05550000 0.05550870 36010.12186770 0 -417.74549658 0 12103.15775778 0 2248.21889500 0 8969.14041851 0 3349
0.05650000 0.05647670 35657.64362869 0 566.28435171 0 8178.75954159 0 268.11083119 0 6257.95278050 0 3324
0.05750000 0.05747970 35294.07419273 0 668.22132462 0 8576.01294268 0 -549.48895217 0 8210.10326416 0 3639
0.05850000 0.05849280 32918.78345429 0 523.65866359 0 8219.33114003 0 -278.04521629 0 4122.64227044 0 3846
0.05950000 0.05951020 34668.97433272 0 -408.71504402 0 7972.03072167 0 728.08495103 0 5677.50607942 0 3787
0.06050000 0.06049470 33889.59592317 0 -867.53013378 0 4040.95560492 0 3134.13934243 0 2185.72000019 0 3930
0.06150000 0.06148310 35463.54768209 0 -178.39968467 0 1849.04671683 0 984.80623207 0 3016.32864845 0 4083
0.06250000 0.06249100 34206.58233195 0 547.98054938 0 2595.00734998 0 -1274.65580927 0 -3133.67351216 0 4303
0.06350000 0.06350600 33846.22934310 0 1883.71779849 0 3787.58830183 0 -2486.65744699 0 994.39235359 0 4470
0.06450000 0.06451750 30285.62238682 0 2106.91704588 0 7589.49533893 0 -4711.61810198 0 -3434.71077973 0 4479
0.06550000 0.06550280 29128.47780921 0 1318.68786116 0 9611.40945139 0 -1396.39278698 0 -2504.71391562 0 4636
0.06650000 0.06648880 28068.27029293 0 27.98486449 0 10719.59748567 0 718.86483900 0 -2371.54191386 0 4653
0.06750000 0.06749660 28181.28958983 0 100.98878648 0 11320.11925323 0 1637.37122307 0 -1950.65317207 0 5220
0.06850000 0.06852730 28469.54979851 0 -202.61620409 0 9336.89123573 0 2585.31364384 0 1096.76742878 0 5029
0.06950000 0.06949320 27726.99416283 0 370.24300917 0 10245.63736648 0 827.67946314 0 1410.86679900 0 5040
0.07050000 0.07048030 28050.52437781 0 524.27311590 0 9495.50644328 0 480.87769873 0 5545.98666600 0 5475
0.07150000 0.07148790 27012.83199134 0 -178.87327878 0 8566.37469254 0 2268.72651815 0 4750.23764976 0 5509
0.07250000 0.07249820 27466.79468243 0 -28.36839808 0 8966.78908476 0 1393.79744689 0 6816.12835812 0 5916
0.07350000 0.07351270 26548.77631102 0 789.82077148 0 7938.32457415 0 -593.23928765 0 4966.99291172 0 5721
0.07450000 0.07449140 26338.37630491 0 878.37288791 0 9626.72639438 0 -962.37650448 0 6647.08742543 0 6028
0.07550000 0.07549160 25122.67020742 0 582.02276017 0 8508.44537087 0 -187.26931487 0 4568.31983741 0 6183
0.07650000 0.07648840 24631.21927064 0 302.16635142 0 9915.29715658 0 -180.91738638 0 3931.66295019 0 6330
0.07750000 0.07749960 24094.73807426 0 263.10870136 0 9168.10540057 0 837.47742653 0 2712.91786473 0 6583
0.07850000 0.07848650 24229.60702915 0 -204.33090314 0 8918.57565163 0 653.86155193 0 2293.70389368 0 6549
0.07950000 0.07947320 24228.83064536 0 -16.98084435 0 7271.85454953 0 -355.10796181 0 814.99557031 0 6828
0.08050000 0.08048110 23527.09061445 0 885.66645903 0 8280.27726726 0 -982.32180395 0 -133.39382570 0 7147
0.08150000 0.08149960 22742.05569445 0 140.36575210 0 7222.01071044 0 443.72218895 0 633.39940268 0 7386
0.08250000 0.08250610 22645.34045706 0 -34.69193311 0 7543.34486843 0 1554.99690334 0 -1220.63058894 0 7227
0.08350000 0.08350160 23048.06181825 0 394.54049432 0 7082.43908804 0 -350.31989209 0 -785.63051727 0 7798
0.08450000 0.08449610 21696.82129405 0 676.49757578 0 8036.51494073 0 -388.80301814 0 -397.46413384 0 7371
0.08550000 0.08548940 21439.06187698 0 277.27326899 0 7174.68457306 0 -197.25804684 0 -49.36969042 0 8256
0.08650000 0.08650700 20749.96581058 0 47.84764546 0 7578.18231804 0 1169.83290692 0 231.85259925 0 8037
0.08750000 0.08749060 21287.66703863 0 355.29096656 0 7806.03986814 0 14.00418891 0 -488.09917706 0 8155
0.08850000 0.08849210 20584.26332818 0 165.40412921 0 6927.29542513 0 134.02269656 0 654.05010228 0 8718
0.08950000 0.08949900 19771.05676793 0 377.75840422 0 7745.20465288 0 550.23317148 0 94.58118018 0 8571
0.09050000 0.09049190 19907.47849040 0 335.74051370 0 6717.67180281 0 335.78598761 0 2019.17458682 0 8932
0.09150000 0.09150830 19377.54110021 0 -241.10043926 0 5526.37742980 0 1752.87494809 0 496.91335127 0 9285
0.09250000 0.09250820 19714.15892759 0 -329.05584930 0 4996.49549560 0 1489.30374381 0 1292.71227791 0 9204
0.09350000 0.09350330 19897.71823708 0 84.78610051 0 3415.75592414 0 92.84618425 0 567.37572548 0 9349
0.09450000 0.09448040 19648.16630575 0 275.90017881 0 3675.93322216 0 143.58996305 0 840.19698802 0 9564
0.09550000 0.09549270 18677.35383687 0 350.78794060 0 3621.51980993 0 -657.40740759 0 200.39574646 0 10155
0.09650000 0.09649430 18561.45082876 0 509.62164474 0 3461.48492916 0 163.44320559 0 381.42515393 0 9913
0.09750000 0.09749140 17983.48855579 0 284.24186803 0 3914.51595971 0 -186.22785148 0 140.45780903 0 10476
0.09850000 0.09850240 17548.26998754 0 628.96514214 0 4361.71302066 0 -826.54816105 0 -82.91612471 0 10575
0.09950000 0.09950330 16613.94755662 0 736.84477837 0 5631.45542969 0 -892.68718669 0 -485.56262032 0 10882
0.10050000 0.10051200 15919.30589175 0 708.77961362 0 6497.35626663 0 -1276.74095430 0 -670.08020923 0 10875
0.10150000 0.10150300 15525.45748812 0 234.98475326 0 7155.64098790 0 -685.21192922 0 -860.87541561 0 11118
0.10250000 0.10250800 15273.46549346 0 -78.26957866 0 7410.32814343 0 694.33776607 0 -1546.01303381 0 11575
0.10350000 0.10349800 15696.59465703 0 -472.35633211 0 6723.89396430 0 1164.44258520 0 -825.63202818 0 11364
0.10450000 0.10450100 15846.54763977 0 -316.37861119 0 5323.13124572 0 1489.22610543 0 -1655.23914136 0 12093
0.10550000 0.10551000 16327.90558733 0 -248.93747902 0 4249.95812021 0 945.26056935 0 -797.06110485 0 12067
0.10650000 0.10649700 16323.35819658 0 76.16058756 0 3336.43168357 0 -130.15297795 0 -1559.34465254 0 12054
0.10750000 0.10749900 16180.28175595 0 524.11340267 0 4016.78788677 0 -892.43541652 0 -1367.07875344 0 12807
0.10850000 0.10850100 15551.07815307 0 337.33542782 0 3703.79430889 0 -356.85482533 0 -1980.25557673 0 12736
0.10950000 0.10950300 14954.59358120 0 385.34921941 0 4879.51664139 0 -107.22192826 0 -1598.10838588 0 12933
0.11050000 0.11050200 14455.04607065 0 297.01116308 0 4357.83110173 0 -268.31490921 0 -2934.54216215 0 13428
0.11150000 0.11150900 14545.55023775 0 136.37403032 0 5181.21938077 0 765.73845554 0 -1224.00231281 0 13453
0.11250000 0.11250000 14276.69962372 0 8.38617602 0 3775.92036264 0 497.46569288 0 -2160.72044227 0 13668
0.11350000 0.11349100 14401.80832530 0 -163.55079020 0 4382.30937339 0 683.41404620 0 -521.14983484 0 13791
0.11450000 0.11448600 14238.87864213 0 -46.06229549 0 3602.16567125 0 149.67681194 0 -1065.98713901 0 14205
0.11550000 0.11549300 14434.97100417 0 -19.26208174 0 2753.27873043 0 398.27490033 0 -654.17986928 0 14776
0.11650000 0.11649800 14373.96942096 0 2.33639391 0 2786.57450367 0 419.36370221 0 -535.32993014 0 14553
0.11750000 0.11747300 14346.24142859 0 71.48775537 0 2051.89361782 0 436.58278547 0 -667.85753336 0 14568
0.11850000 0.11849100 14166.89677393 0 16.63424445 0 2550.32091747 0 88.62664928 0 -284.77535460 0 16015
0.11950000 0.11950300 14056.76118824 0 244.80489904 0 1940.32726771 0 -99.36492434 0 -1785.76034704 0 15270
0.12050000 0.12050700 13770.71921894 0 400.53417715 0 2442.72521588 0 -602.16659207 0 -702.09605834 0 15999
0.12150000 0.12150000 13411.91899767 0 171.48654161 0 2597.01485662 0 -381.23438534 0 -1411.06644054 0 15670
0.12250000 0.12250700 13275.49727521 0 13.31520376 0 2842.85123698 0 169.21839184 0 -774.49273730 0 16887
0.12350000 0.12352200 13330.39870010 0 92.03109218 0 2370.85425965 0 104.52432734 0 -1669.53569422 0 16407
0.12450000 0.12449800 13078.07396953 0 157.70462029 0 2839.61260747 0 321.23322809 0 -674.13847819 0 16306
0.12550000 0.12549900 12935.21935283 0 31.35525742 0 2597.72469323 0 565.80188464 0 -537.60251640 0 17523
0.12650000 0.12650100 13180.11298145 0 -9.14583428 0 2690.10327261 0 308.97856458 0 -33.77236197 0 17154
0.12750000 0.12750600 12910.59689561 0 85.79828314 0 2130.08655630 0 -81.28538602 0 85.17728703 0 18007
0.12850000 0.12850300 12697.86773814 0 322.02181219 0 2509.17257679 0 72.36407084 0 1095.14145931 0 17496
0.12950000 0.12949900 12538.70906194 0 209.73342517 0 2344.41284613 0 -111.41661894 0 997.05534998 0 18405
0.13050000 0.13049000 12170.14858735 0 107.44940871 0 2631.80794145 0 240.75772127 0 539.53016643 0 18100
0.13150000 0.13148800 12107.92697247 0 134.78022531 0 2452.88475228 0 -74.76110033 0 1131.18008555 0 19059
0.13250000 0.13249300 11841.29459783 0 83.46868814 0 2638.18537970 0 -457.85237386 0 -381.66139642 0 18957
0.13350000 0.13349100 12034.05960079 0 118.33198024 0 3052.05339382 0 -184.86917985 0 137.60515318 0 19468
0.13450000 0.13450700 11719.62416731 0 108.79909646 0 3130.42379145 0 -322.34567515 0 -714.54592691 0 19953
0.13550000 0.13551000 11846.50746040 0 64.19751162 0 3037.06918674 0 -169.91824637 0 -675.60029795 0 19956
0.13650000 0.13649900 11660.17535167 0 38.63618457 0 2849.69450550 0 167.52809342 0 -822.50209241 0 19723
0.13750000 0.13749600 11495.69290092 0 271.50251922 0 3373.96429404 0 -179.21377853 0 -1653.30927309 0 20946
0.13850000 0.13851100 11406.07602958 0 143.08420447 0 3046.79616646 0 253.98730099 0 -291.72177125 0 20955
0.13950000 0.13949800 11127.57607421 0 55.94998665 0 3160.95785665 0 628.13884797 0 -443.27965019 0 20506
0.14050000 0.14048300 11227.06411084 0 -36.32256089 0 2548.12486048 0 246.46746946 0 75.42213566 0 21447
0.14150000 0.14148400 11073.98341056 0 -75.15505964 0 2297.75218057 0 476.13066643 0 -515.11622370 0 21771
0.14250000 0.14249400 11339.63975986 0 -37.64884622 0 1942.51223351 0 274.80436855 0 630.53676475 0 22470
0.14350000 0.14350900 11100.95720154 0 -3.12192793 0 1728.35231164 0 386.23207869 0 181.31223299 0 22519
0.14450000 0.14449900 11200.55615013 0 152.89880465 0 1275.80929376 0 -50.53803710 0 163.71050343 0 22218
0.14550000 0.14550500 10780.36615375 0 269.01365462 0 1582.10378868 0 -350.26776346 0 139.29212423 0 23559
0.14650000 0.14650700 10576.09957955 0 322.87139788 0 2081.29638092 0 -397.12363409 0 -362.65884869 0 23044
0.14750000 0.14750500 10158.61583523 0 197.91575482 0 2191.91997929 0 -219.49035113 0 -444.38322429 0 23649
0.14850000 0.14849900 10011.09182462 0 160.70811642 0 2284.80875373 0 38.56187355 0 -450.44678166 0 23640
0.14950000 0.14949500 9872.44077157 0 62.78826413 0 2393.66885177 0 117.79627543 0 -253.27524615 0 24457
0.15050000 0.15050000 9828.67490841 0 18.60503923 0 1873.70244764 0 375.19855596 0 -207.01719104 0 24591
0.15150000 0.15149900 9908.86426235 0 -5.73645579 0 2490.56154831 0 264.44629972 0 184.75494052 0 25020
0.15250000 0.15250500 9774.08403703 0 58.64082194 0 1558.27989763 0 57.53203499 0 11.36747866 0 25297
0.15350000 0.15350100 9533.87089353 0 265.55098293 0 2379.10611018 0 -209.90312048 0 142.99880225 0 25452
0.15450000 0.15450400 9443.58855037 0 112.18302065 0 2062.23061337 0 -375.57232930 0 45.62452594 0 26061
0.15550000 0.15549900 9270.31078045 0 43.10427326 0 2420.26554206 0 297.67330753 0 -147.51624677 0 26128
0.15650000 0.15649500 9344.04505776 0 92.61892562 0 1938.16448431 0 127.08737111 0 278.33136918 0 26331
0.15750000 0.15749700 9107.95783952 0 12.66093405 0 1896.29521583 0 244.34350525 0 -184.40334958 0 27345
0.15850000 0.15849900 9117.21898897 0 130.10528580 0 1747.82845348 0 178.83889607 0 531.67094427 0 26980
0.15950000 0.15949700 8897.83511333 0 104.23850719 0 1698.99391332 0 45.01129366 0 267.71154810 0 27777
0.16050000 0.16050000 8800.04402984 0 39.09236550 0 1719.44608049 0 73.48638906 0 438.75555096 0 28224
0.16150000 0.16150500 8698.29338904 0 155.96662973 0 2144.52729473 0 -378.97178116 0 -91.43538399 0 28075
0.16250000 0.16249700 8539.77800225 0 198.21743538 0 1997.84621509 0 -279.75658798 0 -307.13520765 0 28590
0.16350000 0.16349900 8396.44646409 0 122.05529506 0 2333.17746362 0 -112.35271597 0 -75.93432714 0 29163
0.16450000 0.16449100 8305.79811143 0 81.34594395 0 2272.05387724 0 -269.76009217 0 -141.48818123 0 28996
0.16550000 0.16550500 8326.11718424 0 57.57029962 0 2597.35868373 0 226.60535397 0 -379.15811327 0 30777
0.16650000 0.16650700 8271.32667132 0 6.54815395 0 2356.10296771 0 162.01687766 0 -590.66169348 0 29211
0.16750000 0.16749900 8245.95001270 0 58.56628910 0 2534.77105935 0 -19.00842607 0 204.46732486 0 30922
0.16850000 0.16850800 8133.92892352 0 133.82970974 0 2221.05655367 0 56.16016484 0 -411.06970513 0 30867
0.16950000 0.16949900 8184.07222493 0 36.28351987 0 2770.54772408 0 84.71300952 0 508.80533264 0 30852
0.17050000 0.17049200 7960.81752156 0 25.89306475 0 2476.45354580 0 124.13489448 0 151.26728958 0 31257
0.17150000 0.17149500 8076.85362403 0 77.67863968 0 2504.37008851 0 278.18718362 0 478.92121158 0 32608
0.17250000 0.17250900 7794.57157050 0 67.43026279 0 2546.06189784 0 66.00448942 0 1126.83233635 0 32361
0.17350000 0.17350400 7929.59580215 0 10.57438044 0 2215.73277913 0 379.76812911 0 1000.09544706 0 32508
0.17450000 0.17449800 7965.02108520 0 -86.47828443 0 2262.51544786 0 365.42277497 0 1529.83097746 0 32791
0.17550000 0.17549800 7923.32927587 0 -11.31435183 0 1755.99157443 0 210.56748318 0 1193.00241734 0 33633
0.17650000 0.17650100 8044.92206801 0 70.26239993 0 1931.64286050 0 -209.79220852 0 1560.16540112 0 33984
0.17750000 0.17750300 7920.22374073 0 -0.05018744 0 1758.96401522 0 -60.78563761 0 1029.57806679 0 34069
0.17850000 0.17849800 7977.32122262 0 90.16788201 0 2103.06840053 0 -269.02807318 0 770.63410988 0 34536
