### header ###
fiducial parameters:
Omega_m = 0.31
Omega_nu = 0
Omega_de = 0.69
Omega_k = 0
H_0 = 100
w_de = -1
zeff = 0
beta = 0
fgrowth = 0
b_1 = 2
gamma = 0.55
Lx = 3500 Ly = 3500 Lz = 3500
nx = 700 ny = 700 nz = 700
xoffset = 1379.75464 yoffset = 22.6059522 zoffset = 368.141391
bins = 400 dk = 0.001
kx_ny = 0.628318531 ky_ny = 0.628318531 kz_ny = 0.628318531
############################
A(data) = 3.27241103 (not used)
A(ran) = 3.26858453 (used)
Ngal = 183717
weighted Ngal = 0
Nran = 9399747
weighted Nran = 0
SN(data) = 6795.74158
SN(ran) = 130.009201
SN(data+ran) = 6925.75078
############################
13 columns: k_central k_mean P_0(k) sigma^{lin}_{P_0(k)} P^img_1(k) sigma^{lin}_{P_1(k)} P_2(k) sigma^{lin}_{P_2(k)} P^img_3(k) sigma^{lin}_{P_3(k)} P_4(k) sigma^{lin}_{P_4(k)} N_modes
### header ###
0.00050000 0 0 0 0 0 0 0 0 0 0 0 0
0.00150000 0.00179520 95562.52928967 0 -31539.92584969 0 -55836.85644431 0 103649.67554447 0 44946.74289676 0 3
0.00250000 0.00253879 113521.72812414 0 -24181.02758651 0 5165.42551632 0 -33657.78990695 0 -72073.70330470 0 6
0.00350000 0.00331552 131521.63165141 0 -3747.84854317 0 10860.88824359 0 -39738.20589791 0 41796.84296347 0 7
0.00450000 0.00420575 131009.21835241 0 14867.08403728 0 31602.48020048 0 -40816.49206521 0 15769.13108507 0 24
0.00550000 0.00557378 88501.09692865 0 31731.13808508 0 77866.63547075 0 -7435.42752212 0 46255.50413665 0 45
0.00650000 0.00659388 72600.75698368 0 10312.78347281 0 72815.03890872 0 60428.50106891 0 -10049.02371818 0 40
0.00750000 0.00754703 59905.55113280 0 -761.71678753 0 95119.32505962 0 46104.99659407 0 29741.48826454 0 57
0.00850000 0.00846663 75600.70393423 0 -2987.99064025 0 64835.25544038 0 32064.31764140 0 13024.83622418 0 75
0.00950000 0.00948925 65626.72325460 0 1265.11737990 0 55607.71231536 0 27211.47532868 0 48744.47964380 0 112
0.01050000 0.01054430 61957.42256822 0 3702.47445645 0 41310.16124138 0 4658.69091015 0 24135.11003115 0 105
0.01150000 0.01145670 70522.26667558 0 -256.97859681 0 44500.76586748 0 27772.57898229 0 46561.17752455 0 144
0.01250000 0.01249090 64430.09401586 0 -3732.89760968 0 28332.79534014 0 17994.35792880 0 23139.89692899 0 169
0.01350000 0.01339930 71162.22873949 0 -2221.82184626 0 11192.23775242 0 12840.05688302 0 38982.78447377 0 180
0.01450000 0.01448870 73702.33466457 0 -1521.42385018 0 13781.25585604 0 2052.63672801 0 23017.33920271 0 267
0.01550000 0.01550050 72136.59039139 0 1492.87510923 0 9108.54567296 0 -4028.48909955 0 -1239.18616143 0 238
0.01650000 0.01653350 72738.84238568 0 -1004.30455630 0 12892.29642064 0 1027.22340568 0 14305.53673579 0 315
0.01750000 0.01747870 69452.52072992 0 -1346.02766164 0 893.04099588 0 -5121.61528837 0 -9863.86727633 0 297
0.01850000 0.01844180 78866.61778760 0 -4302.20874903 0 -227.30853586 0 -3476.92387531 0 -9290.71858283 0 388
0.01950000 0.01947590 77356.88405901 0 -2330.83722106 0 3845.51762349 0 881.94868981 0 -27465.02009091 0 399
0.02050000 0.02045430 88319.53403460 0 1095.41984835 0 984.97260002 0 -7477.52970573 0 -21990.07254136 0 462
0.02150000 0.02154770 77605.21595868 0 2951.94425016 0 10236.75331773 0 -14884.05356861 0 -30463.74700981 0 571
0.02250000 0.02255340 76593.58788504 0 5971.50043692 0 6767.49345950 0 -9089.16935189 0 -33984.64748102 0 510
0.02350000 0.02348930 69357.46917208 0 5375.24878018 0 27330.92751981 0 -12593.38866289 0 -34056.51843724 0 555
0.02450000 0.02439640 67126.91855382 0 2232.49157772 0 25126.44121438 0 -1448.72105418 0 -48210.77124666 0 592
0.02550000 0.02547300 64343.91541557 0 1764.65379925 0 34564.93890535 0 -4605.77480951 0 -36993.57830110 0 837
0.02650000 0.02652900 61949.54781839 0 2873.21893422 0 33366.20233919 0 -3095.75270979 0 -36557.69426104 0 723
0.02750000 0.02749970 61889.54444290 0 68.51697827 0 26316.19391102 0 10652.17409942 0 -23344.19677677 0 826
0.02850000 0.02848090 62011.10396145 0 -1230.72357816 0 31288.26659094 0 5868.59631164 0 -28263.25353528 0 831
0.02950000 0.02946900 61316.46229658 0 313.39729745 0 14964.57565845 0 8904.52310509 0 -22004.49109740 0 996
0.03050000 0.03053250 60209.56084115 0 2651.40608646 0 24728.26724394 0 -3018.85744135 0 -12550.79846661 0 1041
0.03150000 0.03150510 55220.62954187 0 3397.92127945 0 17903.96467367 0 -3891.85664434 0 -13556.54820587 0 1036
0.03250000 0.03246190 51858.44409899 0 3216.26965583 0 25548.90490614 0 1110.98301591 0 -930.40058368 0 1059
0.03350000 0.03345080 48566.90958066 0 322.82259661 0 18828.52685127 0 5047.83664627 0 -11728.71894881 0 1302
0.03450000 0.03451200 48181.82322262 0 1871.40656988 0 26518.94099123 0 3359.53464681 0 2571.76020117 0 1339
0.03550000 0.03553350 47381.92609872 0 478.98886788 0 21598.55328909 0 2858.39000391 0 90.75161170 0 1365
0.03650000 0.03647120 44765.62365060 0 545.32198947 0 19660.03388648 0 5344.57052942 0 7256.45996816 0 1308
0.03750000 0.03744890 47119.50837892 0 -373.62138776 0 20107.00912349 0 2822.66525853 0 8059.15207370 0 1579
0.03850000 0.03847530 46679.63150795 0 -641.26306131 0 16088.77938112 0 3991.15613062 0 8528.25424862 0 1662
0.03950000 0.03950240 47591.21698513 0 404.70890368 0 15223.99875507 0 256.13566584 0 4500.65244483 0 1683
0.04050000 0.04050350 45660.01777250 0 394.65806101 0 14541.11375897 0 -1215.32899680 0 1364.05085668 0 1822
0.04150000 0.04152450 47332.01571245 0 -148.33144975 0 10979.79696607 0 1855.47961106 0 8217.22381261 0 1887
0.04250000 0.04250150 45046.78549324 0 175.77107100 0 12898.84022684 0 1735.99414634 0 -3727.30764642 0 1920
0.04350000 0.04349210 44870.76819767 0 2006.68589905 0 10932.35991673 0 -700.95921065 0 -2040.30331700 0 2005
0.04450000 0.04448520 42574.55769348 0 1054.72070115 0 8666.11782669 0 615.80876432 0 -3162.85445133 0 2151
0.04550000 0.04548030 39295.00166786 0 1149.63583727 0 7690.95760861 0 1574.55068356 0 4063.63710268 0 2274
0.04650000 0.04648670 38496.87913546 0 1126.03377017 0 7225.16061037 0 1568.30633968 0 129.49859733 0 2311
0.04750000 0.04749250 37715.94795834 0 1078.01997858 0 8339.51535016 0 1701.32306468 0 964.31746395 0 2568
0.04850000 0.04851840 35310.71098815 0 1241.23803287 0 8935.32335902 0 -1964.42843868 0 -12.84693343 0 2493
0.04950000 0.04949480 34414.32045079 0 1445.08314158 0 11549.26338218 0 -2428.60612216 0 2259.34336553 0 2644
0.05050000 0.05050630 33040.56479679 0 582.30669482 0 13713.59955466 0 -452.85578964 0 434.01295514 0 2829
0.05150000 0.05149060 32112.34252419 0 57.52316203 0 13014.41049904 0 -268.82954075 0 396.34392294 0 2784
0.05250000 0.05249300 33707.81120519 0 -380.64655190 0 12821.75640805 0 2575.25392821 0 2154.38736881 0 3055
0.05350000 0.05348950 34402.34195809 0 -754.76926176 0 12688.44022074 0 3125.24420248 0 3954.79918702 0 3009
0.05450000 0.05448610 34222.77547950 0 -213.31255443 0 11760.66159602 0 2376.97660037 0 7068.47527109 0 3336
0.05550000 0.05550870 35350.30656125 0 406.67980938 0 12004.33519297 0 607.33287161 0 8093.14659235 0 3349
0.05650000 0.05647670 34436.50284469 0 -76.43498377 0 10848.66574456 0 1897.80361861 0 10638.32119443 0 3324
0.05750000 0.05747970 34593.44328151 0 105.72927497 0 11242.48087460 0 422.94061323 0 8156.29986777 0 3639
0.05850000 0.05849280 33735.42828559 0 623.13782726 0 9664.62501435 0 -51.38285357 0 9860.42900527 0 3846
0.05950000 0.05951020 33491.86560061 0 1122.95041742 0 13932.87251833 0 -427.00664603 0 8888.31886635 0 3787
0.06050000 0.06049470 32506.74548767 0 557.57665298 0 11496.58019668 0 -819.94668063 0 10160.54570349 0 3930
0.06150000 0.06148310 32097.36940831 0 -117.85616789 0 13846.47209410 0 2614.91604850 0 7864.57920564 0 4083
0.06250000 0.06249100 31965.38416462 0 -263.59005931 0 9366.81528509 0 2171.35690014 0 6676.76746847 0 4303
0.06350000 0.06350600 32113.34073191 0 193.40940150 0 10195.43860909 0 745.30514341 0 8701.54310974 0 4470
0.06450000 0.06451750 31510.64508975 0 -7.51434139 0 7666.10223625 0 750.38712985 0 8014.77619471 0 4479
0.06550000 0.06550280 31441.10328488 0 458.18067329 0 7901.69035063 0 1691.39644341 0 7451.52084889 0 4636
0.06650000 0.06648880 31000.11729422 0 355.29540304 0 6078.46394029 0 105.84606528 0 6545.54751737 0 4653
0.06750000 0.06749660 29918.17103192 0 767.80030906 0 6859.33966143 0 -329.75237647 0 4819.89036659 0 5220
0.06850000 0.06852730 28562.93767682 0 690.07652820 0 7543.27832124 0 -730.76458421 0 7251.46892954 0 5029
0.06950000 0.06949320 28084.46344047 0 448.08546583 0 5969.08255599 0 437.27376704 0 4762.78179351 0 5040
0.07050000 0.07048030 28166.76012183 0 519.40851692 0 7612.38756943 0 1579.09807431 0 5152.11607998 0 5475
0.07150000 0.07148790 26306.98821755 0 699.88891014 0 6817.06001866 0 -769.81003394 0 3032.31106325 0 5509
0.07250000 0.07249820 25638.18904157 0 924.25384233 0 8120.96331429 0 -1385.43468439 0 4557.47264680 0 5916
0.07350000 0.07351270 24885.42950470 0 907.73239535 0 10012.32294748 0 -979.07430148 0 4022.51094439 0 5721
0.07450000 0.07449140 23941.79046834 0 301.81808783 0 9071.83381106 0 784.15538808 0 3331.99520479 0 6028
0.07550000 0.07549160 24277.85373587 0 -344.65450869 0 10063.91919568 0 1377.10519549 0 4306.82268696 0 6183
0.07650000 0.07648840 24272.86269725 0 -219.64562788 0 7817.18652108 0 1279.25865601 0 2207.49201980 0 6330
0.07750000 0.07749960 24318.11478079 0 413.31123604 0 9050.90472242 0 69.35314361 0 3950.76199134 0 6583
0.07850000 0.07848650 23416.84411678 0 622.30487837 0 7628.68053774 0 -813.12559451 0 2975.61286445 0 6549
0.07950000 0.07947320 23056.71295187 0 406.78850311 0 8768.38975375 0 60.23640154 0 4605.34225283 0 6828
0.08050000 0.08048110 22743.49755006 0 206.70331016 0 8805.30125719 0 551.43102075 0 2470.06501635 0 7147
0.08150000 0.08149960 22374.49342759 0 326.89972061 0 8537.00520302 0 220.57174283 0 2247.73088233 0 7386
0.08250000 0.08250610 21850.21254785 0 508.36057564 0 8119.64346185 0 565.34270908 0 3839.62819791 0 7227
0.08350000 0.08350160 20958.92396109 0 227.92520641 0 9084.57759635 0 -371.31109143 0 2542.69017397 0 7798
0.08450000 0.08449610 21237.86756433 0 446.18443467 0 9037.01854384 0 719.63013159 0 2830.80619709 0 7371
0.08550000 0.08548940 20579.93776137 0 258.07884355 0 8569.20294776 0 451.32298622 0 1813.88762250 0 8256
0.08650000 0.08650700 20206.82989603 0 -33.98997126 0 8767.92392348 0 121.51737200 0 3260.95608834 0 8037
0.08750000 0.08749060 20597.12911664 0 -71.28689379 0 7968.23753231 0 443.48372821 0 1802.37496007 0 8155
0.08850000 0.08849210 20494.64645683 0 -259.41089630 0 7626.37356878 0 1057.36151514 0 2296.27705137 0 8718
0.08950000 0.08949900 20758.39512026 0 141.44159820 0 6107.91106819 0 -82.20251709 0 1116.66170875 0 8571
0.09050000 0.09049190 20505.07218197 0 229.30827867 0 7235.27578199 0 -306.45531728 0 1007.91917739 0 8932
0.09150000 0.09150830 20107.67459531 0 327.87130947 0 6533.29174474 0 -807.86282155 0 -397.54399045 0 9285
0.09250000 0.09250820 19626.42755973 0 216.86950129 0 7020.09547000 0 -236.13269215 0 -1103.52307684 0 9204
0.09350000 0.09350330 19434.77167646 0 490.58471429 0 6891.29339984 0 -212.50622441 0 -2423.00506770 0 9349
0.09450000 0.09448040 18911.82174035 0 257.19598427 0 7037.59737878 0 -258.73655153 0 -2455.35808920 0 9564
0.09550000 0.09549270 18347.83437554 0 132.93243190 0 6520.53686825 0 691.86997475 0 -2222.75350680 0 10155
0.09650000 0.09649430 18818.65568599 0 -55.93368259 0 6236.16966970 0 1428.37979898 0 -1975.29781169 0 9913
0.09750000 0.09749140 18181.02277343 0 304.08956497 0 6051.46796692 0 -323.89622448 0 -2079.95434609 0 10476
0.09850000 0.09850240 17917.71775788 0 772.82573039 0 6838.00019850 0 -652.89329043 0 -1609.98705781 0 10575
0.09950000 0.09950330 17056.37540289 0 489.58872481 0 7183.63516900 0 -665.59049270 0 -1452.41442276 0 10882
0.10050000 0.10051200 16466.32372524 0 194.39873627 0 7842.14171421 0 -457.84904650 0 -1157.72131985 0 10875
0.10150000 0.10150300 16652.10127412 0 101.71914180 0 7495.40871521 0 828.82074731 0 -1581.72668798 0 11118
0.10250000 0.10250800 16733.62157169 0 -28.50892355 0 8227.58299055 0 757.09397664 0 -362.41262412 0 11575
0.10350000 0.10349800 16371.49399133 0 238.54391836 0 6996.73740923 0 -52.73420501 0 -1269.65367945 0 11364
0.10450000 0.10450100 16102.31064140 0 446.34969351 0 8143.25662016 0 -68.23947652 0 335.14602554 0 12093
0.10550000 0.10551000 15594.99929299 0 285.69703307 0 7810.16579341 0 -64.06630276 0 -924.43130148 0 12067
0.10650000 0.10649700 15403.12158578 0 249.15043001 0 8518.13907701 0 217.70023194 0 1007.58089588 0 12054
0.10750000 0.10749900 14828.48667190 0 2.55026546 0 7804.01017910 0 209.21324803 0 -560.42709060 0 12807
0.10850000 0.10850100 14931.08024367 0 132.02184463 0 8081.29010281 0 470.86678436 0 321.05133246 0 12736
0.10950000 0.10950300 15090.90439169 0 -14.17188781 0 7194.87055151 0 621.84126634 0 -521.37942262 0 12933
0.11050000 0.11050200 14962.24650709 0 28.64456889 0 7492.59155119 0 102.63338917 0 52.14559519 0 13428
0.11150000 0.11150900 14810.29710890 0 102.75062312 0 6138.99969324 0 98.22563659 0 -581.38279811 0 13453
0.11250000 0.11250000 14650.36204891 0 36.84240529 0 6620.52400874 0 349.36161267 0 -1198.68111018 0 13668
0.11350000 0.11349100 14826.37934448 0 19.16215006 0 5448.09576174 0 594.04118119 0 -714.93522792 0 13791
0.11450000 0.11448600 14485.76868620 0 -8.97740336 0 5395.90058890 0 534.49587213 0 -1093.38683195 0 14205
0.11550000 0.11549300 14434.30553236 0 205.20821682 0 4822.35261231 0 251.33650492 0 -943.67563730 0 14776
0.11650000 0.11649800 14099.35138452 0 329.98750984 0 4535.35680008 0 3.97354331 0 -559.29135203 0 14553
0.11750000 0.11747300 13691.08442486 0 293.32666745 0 4999.72303391 0 403.35355942 0 -446.26650953 0 14568
0.11850000 0.11849100 13387.07471650 0 146.52025728 0 4665.48981388 0 11.27209437 0 -210.59521117 0 16015
0.11950000 0.11950300 13339.27165766 0 -0.38671565 0 4813.12473645 0 142.58399149 0 -656.16075706 0 15270
0.12050000 0.12050700 12989.23348197 0 294.92047245 0 4988.18818908 0 -278.24596696 0 -52.97133480 0 15999
0.12150000 0.12150000 12798.46489446 0 298.08479094 0 5318.02929513 0 -265.36797818 0 -136.54927123 0 15670
0.12250000 0.12250700 12572.53721263 0 -4.33833278 0 5070.48487044 0 468.25702572 0 -105.60405536 0 16887
0.12350000 0.12352200 12784.15725040 0 -124.81256662 0 5227.17020973 0 508.67556564 0 260.65421948 0 16407
0.12450000 0.12449800 12879.43063218 0 -21.42553062 0 4886.60391624 0 459.63805657 0 242.06870075 0 16306
0.12550000 0.12549900 12813.32709837 0 19.45961596 0 4591.97736050 0 586.24517885 0 863.45744626 0 17523
0.12650000 0.12650100 12778.05709208 0 54.37692219 0 4135.60787967 0 -27.20970074 0 890.17946706 0 17154
0.12750000 0.12750600 12721.49198764 0 283.51650375 0 4591.91081332 0 -460.67730172 0 1284.18314745 0 18007
0.12850000 0.12850300 12365.24274166 0 232.54912641 0 4737.48277327 0 268.93047064 0 547.49253672 0 17496
0.12950000 0.12949900 12243.90504705 0 153.66409724 0 4729.41947309 0 -223.68615093 0 1088.03754766 0 18405
0.13050000 0.13049000 12019.19739688 0 50.19432091 0 4525.26381086 0 235.79219240 0 476.34694477 0 18100
0.13150000 0.13148800 12222.49903694 0 -184.82592418 0 4378.95983192 0 654.43163945 0 1286.34593086 0 19059
0.13250000 0.13249300 12351.93330533 0 -71.02813617 0 3927.72557527 0 294.41249563 0 600.35429049 0 18957
0.13350000 0.13349100 12183.90167156 0 212.21008945 0 3539.52259089 0 160.67484283 0 908.24924513 0 19468
0.13450000 0.13450700 11819.44493984 0 223.76822579 0 3751.75264449 0 -19.98267681 0 989.31924011 0 19953
0.13550000 0.13551000 11731.15901214 0 166.87038545 0 3747.68217521 0 -140.29698668 0 942.64637423 0 19956
0.13650000 0.13649900 11505.23133030 0 100.46173281 0 3851.51796104 0 195.73411638 0 962.52956300 0 19723
0.13750000 0.13749600 11442.45515557 0 128.62793837 0 3887.43125676 0 124.68834521 0 839.34185673 0 20946
0.13850000 0.13851100 11195.56511151 0 45.06209135 0 3519.56952758 0 50.99366347 0 1082.32336300 0 20955
0.13950000 0.13949800 11279.63638437 0 50.18444974 0 3643.39165031 0 146.95725044 0 827.14486745 0 20506
0.14050000 0.14048300 11033.74454803 0 203.68539548 0 3619.68976243 0 124.02065516 0 744.21931523 0 21447
0.14150000 0.14148400 10910.61007951 0 28.89312261 0 3230.28892878 0 -39.35422866 0 550.98626375 0 21771
0.14250000 0.14249400 10860.36695734 0 0.51854784 0 3494.21505136 0 78.92384836 0 91.19392864 0 22470
0.14350000 0.14350900 10749.19989032 0 277.24886835 0 3050.92209173 0 -293.58731058 0 -324.19235944 0 22519
0.14450000 0.14449900 10318.93908711 0 282.31421800 0 3490.96533065 0 -296.17266859 0 -693.63569330 0 22218
0.14550000 0.14550500 10135.33541283 0 245.95838352 0 3557.95616022 0 -425.69123007 0 -653.55321665 0 23559
0.14650000 0.14650700 9764.91161715 0 86.25612775 0 3707.83150458 0 298.51291114 0 -1380.32164260 0 23044
0.14750000 0.14750500 9874.84756130 0 -70.16912296 0 3361.14287037 0 500.20854589 0 -816.11910856 0 23649
0.14850000 0.14849900 9778.57597179 0 -48.43326066 0 3120.64135575 0 191.58600872 0 -1703.66330723 0 23640
0.14950000 0.14949500 10100.29832167 0 7.99785103 0 2867.30732625 0 32.48489583 0 -809.08174410 0 24457
0.15050000 0.15050000 9753.18822198 0 53.94780378 0 2907.65710075 0 21.84023047 0 -1282.66365347 0 24591
0.15150000 0.15149900 9791.91868172 0 307.95817446 0 3076.56493907 0 -333.25053999 0 -727.50709966 0 25020
0.15250000 0.15250500 9552.30446285 0 230.78895346 0 3266.14676851 0 -160.15355657 0 -1154.38286957 0 25297
0.15350000 0.15350100 9258.05500782 0 181.95774065 0 3872.10322258 0 42.88211658 0 -435.11874748 0 25452
0.15450000 0.15450400 9111.64011690 0 -3.56698439 0 3419.12764802 0 318.65674304 0 -140.61863139 0 26061
0.15550000 0.15549900 9220.26729981 0 -149.05903227 0 3330.64207876 0 776.74092292 0 -72.82790470 0 26128
0.15650000 0.15649500 9353.08438327 0 -31.25854218 0 2890.86502857 0 479.91498283 0 411.68637568 0 26331
0.15750000 0.15749700 9379.21524328 0 -27.26670949 0 2395.84272638 0 173.51401242 0 139.26994184 0 27345
0.15850000 0.15849900 9360.43784685 0 152.13018470 0 2488.35440012 0 -99.07721869 0 400.54637747 0 26980
0.15950000 0.15949700 8987.32998151 0 190.68540353 0 2140.47900784 0 -173.57390488 0 -46.00595221 0 27777
0.16050000 0.16050000 8956.68500434 0 36.46752283 0 2411.71422921 0 3.57137651 0 301.92345420 0 28224
0.16150000 0.16150500 8926.88295814 0 -3.96245211 0 2312.39256054 0 162.53483656 0 -355.57601032 0 28075
0.16250000 0.16249700 8871.94825966 0 52.42287511 0 2136.16453223 0 193.99945318 0 -533.71283363 0 28590
0.16350000 0.16349900 8833.02924956 0 92.92238077 0 2323.79431100 0 -206.11658585 0 -297.88847676 0 29163
0.16450000 0.16449100 8746.51791337 0 44.32031209 0 2222.76459800 0 152.66810775 0 -108.82904270 0 28996
0.16550000 0.16550500 8760.42627434 0 53.68560788 0 2297.24198551 0 142.57179117 0 199.78683975 0 30777
0.16650000 0.16650700 8685.74924529 0 133.30620524 0 2113.08375138 0 -37.07166033 0 99.66050474 0 29211
0.16750000 0.16749900 8613.53446196 0 91.70190546 0 2489.45242862 0 179.93248809 0 769.31314832 0 30922
0.16850000 0.16850800 8513.52513908 0 17.42449223 0 2482.26533300 0 158.08726658 0 1030.90679218 0 30867
0.16950000 0.16949900 8556.62553042 0 -72.04808264 0 2073.37726630 0 429.59422228 0 1237.55575548 0 30852
0.17050000 0.17049200 8693.79036308 0 -8.35198186 0 2079.28887428 0 335.28577463 0 1232.12106898 0 31257
0.17150000 0.17149500 8586.72703894 0 -31.01564497 0 1473.56533534 0 303.47844002 0 1073.68221145 0 32608
0.17250000 0.17250900 8425.18375538 0 221.42354675 0 1847.90432354 0 -172.34832762 0 1793.94565039 0 32361
0.17350000 0.17350400 8123.29246565 0 357.23414427 0 1611.34018383 0 -427.22070613 0 1267.42434886 0 32508
0.17450000 0.17449800 7928.45340886 0 154.77765341 0 2158.52438528 0 176.93342844 0 1377.22719865 0 32791
0.17550000 0.17549800 7567.97841685 0 122.60430931 0 1869.12178331 0 -93.54626060 0 859.64762011 0 33633
0.17650000 0.17650100 7609.51494942 0 150.70607501 0 2198.16432317 0 -15.90610737 0 1084.89984805 0 33984
0.17750000 0.17750300 7312.19323283 0 75.92301412 0 1827.31906201 0 -48.40719634 0 739.26598667 0 34069
0.17850000 0.17849800 7448.52622571 0 -73.13812548 0 1935.90188013 0 248.92306047 0 1178.85005004 0 34536
