### header ###
fiducial parameters:
Omega_m = 0.31
Omega_nu = 0
Omega_de = 0.69
Omega_k = 0
H_0 = 100
w_de = -1
zeff = 0
beta = 0
fgrowth = 0
b_1 = 2
gamma = 0.55
Lx = 3500 Ly = 3500 Lz = 3500
nx = 700 ny = 700 nz = 700
xoffset = 1379.75464 yoffset = 22.6059522 zoffset = 368.141391
bins = 400 dk = 0.001
kx_ny = 0.628318531 ky_ny = 0.628318531 kz_ny = 0.628318531
############################
A(data) = 3.34937311 (not used)
A(ran) = 3.35135232 (used)
Ngal = 188890
weighted Ngal = 0
Nran = 9399747
weighted Nran = 0
SN(data) = 6579.53819
SN(ran) = 133.301322
SN(data+ran) = 6712.83952
############################
13 columns: k_central k_mean P_0(k) sigma^{lin}_{P_0(k)} P^img_1(k) sigma^{lin}_{P_1(k)} P_2(k) sigma^{lin}_{P_2(k)} P^img_3(k) sigma^{lin}_{P_3(k)} P_4(k) sigma^{lin}_{P_4(k)} N_modes
### header ###
0.00050000 0 0 0 0 0 0 0 0 0 0 0 0
0.00150000 0.00179520 94248.11153934 0 -86849.39587912 0 -147485.19141899 0 182023.17871576 0 77289.44958157 0 3
0.00250000 0.00253879 151012.19204852 0 -85066.81870560 0 -49188.57116961 0 -119512.08359588 0 -37529.06128976 0 6
0.00350000 0.00331552 179148.34046678 0 -19095.60287379 0 -56982.13344119 0 -152086.92903281 0 -55744.46677374 0 7
0.00450000 0.00420575 199141.33208564 0 21426.63973639 0 -36532.73906790 0 -130322.67326131 0 12406.72381825 0 24
0.00550000 0.00557378 131489.46718026 0 31626.32627392 0 36696.11239895 0 -55459.09027626 0 50992.88708915 0 45
0.00650000 0.00659388 110508.69356119 0 31976.14262566 0 46555.41010213 0 18109.37364115 0 -64858.10330609 0 40
0.00750000 0.00754703 88721.47901201 0 6940.34976394 0 79124.37720468 0 18945.09533120 0 -11919.37662435 0 57
0.00850000 0.00846663 85346.87142854 0 8867.94433756 0 68133.00102899 0 19961.60353150 0 -30701.32044844 0 75
0.00950000 0.00948925 84209.13644559 0 6315.47172788 0 82798.55801772 0 22091.55699344 0 30228.16998662 0 112
0.01050000 0.01054430 71825.37140503 0 -394.49058393 0 61442.12555801 0 30800.47574915 0 10960.80883690 0 105
0.01150000 0.01145670 76411.69225508 0 -3098.92479212 0 40484.19980465 0 37413.04736968 0 19478.80372835 0 144
0.01250000 0.01249090 86180.70761511 0 -5660.21490337 0 38219.82103570 0 30737.92139837 0 41068.26223594 0 169
0.01350000 0.01339930 87572.54192014 0 -834.32863571 0 25700.18883251 0 16517.01049529 0 43294.59819936 0 180
0.01450000 0.01448870 91079.24565926 0 3840.23821375 0 14674.54085825 0 916.93697970 0 41014.80266665 0 267
0.01550000 0.01550050 75125.00249712 0 667.72776635 0 10908.81330561 0 -4823.00699293 0 -5690.15004394 0 238
0.01650000 0.01653350 78147.24275354 0 9840.58685393 0 41885.68345102 0 -20532.24561449 0 13152.49590105 0 315
0.01750000 0.01747870 70136.18210981 0 5489.77647987 0 34155.34100205 0 -6508.41418999 0 13291.57951078 0 297
0.01850000 0.01844180 71798.97435629 0 -4007.09418064 0 50882.64059148 0 17785.17795435 0 -3011.48179538 0 388
0.01950000 0.01947590 76544.56479452 0 -2997.68434638 0 38823.07123771 0 10061.53458834 0 -4400.64312195 0 399
0.02050000 0.02045430 77172.10471785 0 -3572.98473208 0 19714.38075153 0 12154.62091162 0 -271.47922770 0 462
0.02150000 0.02154770 85019.23747069 0 -1899.19001823 0 24229.16338127 0 14996.96195354 0 20684.74957253 0 571
0.02250000 0.02255340 80568.11831143 0 -1166.13953833 0 7372.48497944 0 5953.23323555 0 9852.72062339 0 510
0.02350000 0.02348930 82269.39701132 0 7133.65823555 0 28116.29517571 0 -6750.31319543 0 22239.84629664 0 555
0.02450000 0.02439640 72776.33063137 0 7278.38726453 0 20908.68083891 0 -4825.30287070 0 7055.11037876 0 592
0.02550000 0.02547300 65037.78069665 0 5808.75930410 0 40881.48647933 0 -8562.99187747 0 27377.62145896 0 837
0.02650000 0.02652900 60491.94271545 0 2235.89657519 0 35016.23970917 0 1530.30789893 0 7292.90564133 0 723
0.02750000 0.02749970 61925.59083298 0 -1622.85284627 0 40846.32738501 0 7288.43588896 0 3316.75590018 0 826
0.02850000 0.02848090 61193.68274637 0 370.31066547 0 33652.46613242 0 2737.05230929 0 -6031.65908917 0 831
0.02950000 0.02946900 62443.77155440 0 2296.14395701 0 33455.70829856 0 -2021.49264698 0 -3991.86596723 0 996
0.03050000 0.03053250 57194.19712684 0 2591.49144054 0 33095.35530971 0 -1679.66195704 0 -10659.86029891 0 1041
0.03150000 0.03150510 54494.15614176 0 968.48442664 0 25220.05091662 0 3179.63543231 0 -18892.41214569 0 1036
0.03250000 0.03246190 54322.24258907 0 -1377.97030885 0 22027.11713917 0 8576.95569442 0 -10589.64193103 0 1059
0.03350000 0.03345080 54284.42160747 0 -177.89614433 0 13798.00356344 0 3540.19915390 0 -19070.53676868 0 1302
0.03450000 0.03451200 54175.50605344 0 417.92406485 0 11367.81140011 0 3597.90665162 0 -8762.57796655 0 1339
0.03550000 0.03553350 49721.83591888 0 544.72306484 0 3458.87849788 0 6081.46965466 0 -13833.27356973 0 1365
0.03650000 0.03647120 52226.78274964 0 349.20300856 0 8085.14983935 0 -2.97774237 0 2339.88763777 0 1308
0.03750000 0.03744890 48712.09334872 0 913.62514829 0 5039.07460068 0 3664.55365409 0 -3367.98613889 0 1579
0.03850000 0.03847530 49127.90232230 0 1091.32054196 0 5781.69678355 0 1132.68848834 0 116.26014465 0 1662
0.03950000 0.03950240 48191.36165200 0 1267.80144956 0 9444.89731161 0 -3327.68072918 0 3136.92323287 0 1683
0.04050000 0.04050350 43959.18272049 0 2763.32735486 0 11972.61436970 0 -3586.34962440 0 -370.72436711 0 1822
0.04150000 0.04152450 43166.49487460 0 2967.10591639 0 22487.29090055 0 -8532.20271474 0 1314.48429752 0 1887
0.04250000 0.04250150 38960.38025593 0 2480.18018797 0 20834.59164330 0 -3327.79164115 0 -6973.84517872 0 1920
0.04350000 0.04349210 38793.90138974 0 1063.84099240 0 29215.98735313 0 298.87226592 0 1533.59089323 0 2005
0.04450000 0.04448520 36905.18146142 0 -203.51015456 0 23610.94006338 0 2262.92582215 0 -6075.55804669 0 2151
0.04550000 0.04548030 38627.97708339 0 -44.18832685 0 25959.72284110 0 3766.29320369 0 -451.80323504 0 2274
0.04650000 0.04648670 38619.54777371 0 -686.35543163 0 19983.45318949 0 5299.40717545 0 -2074.07601171 0 2311
0.04750000 0.04749250 37625.66561518 0 102.86375333 0 18729.03881465 0 1890.49451982 0 1675.20329586 0 2568
0.04850000 0.04851840 37967.49630513 0 1290.68258886 0 17985.04132336 0 1377.13846908 0 3494.75852001 0 2493
0.04950000 0.04949480 36354.72535688 0 658.53760056 0 18297.81307730 0 -105.57510733 0 982.54584613 0 2644
0.05050000 0.05050630 36239.04417271 0 315.29721948 0 18800.57703496 0 215.48975639 0 3706.26764581 0 2829
0.05150000 0.05149060 35392.45310966 0 -458.92267437 0 15754.37979313 0 2710.72180774 0 1722.30760930 0 2784
0.05250000 0.05249300 36219.96731396 0 12.16083198 0 17293.61610561 0 1753.62914948 0 4180.69359527 0 3055
0.05350000 0.05348950 36504.45651569 0 315.06208611 0 14505.06736889 0 1364.54996054 0 1675.20329586 0 3009
0.05450000 0.05448610 35418.85015839 0 254.44647655 0 16225.75566343 0 1327.99337540 0 6736.77084396 0 3336
0.05550000 0.05550870 35556.71373646 0 -49.15041745 0 13796.45079586 0 3764.97335126 0 5542.77021889 0 3349
0.05650000 0.05647670 35273.99912625 0 289.25508905 0 12664.81597124 0 -460.66177405 0 6037.65942672 0 3324
0.05750000 0.05747970 35215.32669439 0 52.42498244 0 13422.12289886 0 177.41256814 0 4743.52747560 0 3639
0.05850000 0.05849280 34120.29281970 0 1299.35590488 0 14163.23667894 0 -2197.70958409 0 4045.12589497 0 3846
0.05950000 0.05951020 33890.15048302 0 1410.80025181 0 15374.72812160 0 -2082.50532139 0 3536.96052439 0 3787
0.06050000 0.06049470 32611.44638686 0 246.74474939 0 16910.96981089 0 -167.27521413 0 597.75118657 0 3930
0.06150000 0.06148310 32275.49403130 0 -5.66996407 0 16313.26520735 0 1997.86839748 0 2727.68024787 0 4083
0.06250000 0.06249100 31634.20102375 0 631.07136044 0 17460.64953165 0 1070.45134578 0 343.67626512 0 4303
0.06350000 0.06350600 31252.88567267 0 805.37173872 0 15276.12738073 0 1195.98594932 0 2576.68469262 0 4470
0.06450000 0.06451750 29920.72200722 0 550.31524634 0 16831.33501681 0 889.70809119 0 3228.82489078 0 4479
0.06550000 0.06550280 28763.91016552 0 1000.66553458 0 15357.86950223 0 300.59694705 0 3352.71356069 0 4636
0.06650000 0.06648880 27877.27988148 0 912.02690681 0 16235.40500478 0 -367.81070968 0 1978.23697888 0 4653
0.06750000 0.06749660 26695.06919877 0 622.01983461 0 14819.28097843 0 403.45559843 0 1610.92980955 0 5220
0.06850000 0.06852730 26438.30798942 0 22.58822079 0 16074.91538494 0 596.66757663 0 2527.05158627 0 5029
0.06950000 0.06949320 26336.15806552 0 -24.85592692 0 13249.54387435 0 1143.76859409 0 759.40981857 0 5040
0.07050000 0.07048030 26585.48817292 0 -164.85733320 0 14387.94432911 0 729.51127895 0 312.43569067 0 5475
0.07150000 0.07148790 26205.06011760 0 546.60413184 0 14138.28148581 0 -93.15895600 0 131.35526370 0 5509
0.07250000 0.07249820 26216.81678636 0 169.01985941 0 13889.72776220 0 163.63619241 0 576.55923656 0 5916
0.07350000 0.07351270 25771.28340495 0 -238.05590570 0 13026.83263963 0 1574.27340363 0 340.96557658 0 5721
0.07450000 0.07449140 26251.08858493 0 -167.94512243 0 12476.37653509 0 745.65673435 0 -33.45415553 0 6028
0.07550000 0.07549160 26423.44578551 0 345.39761888 0 12966.27470429 0 447.74385696 0 1319.66388649 0 6183
0.07650000 0.07648840 25556.11418416 0 293.66716720 0 10633.55197975 0 972.05579206 0 1344.41943808 0 6330
0.07750000 0.07749960 26120.87793276 0 -376.77905153 0 12005.88796054 0 1266.91415380 0 2567.97810301 0 6583
0.07850000 0.07848650 25813.76268926 0 -128.69337643 0 8043.44693882 0 2708.09319406 0 1576.61364619 0 6549
0.07950000 0.07947320 26185.42869900 0 -16.29873574 0 9272.71757018 0 611.70502145 0 3222.09253423 0 6828
0.08050000 0.08048110 25643.73464005 0 698.85521059 0 7316.86262674 0 -1063.82435561 0 1385.44577559 0 7147
0.08150000 0.08149960 24126.45889753 0 937.14624966 0 8716.17239852 0 -823.40713408 0 727.26087509 0 7386
0.08250000 0.08250610 23819.01091812 0 595.47638207 0 9424.67805957 0 -1488.64936319 0 363.99422881 0 7227
0.08350000 0.08350160 22897.66518764 0 443.95732232 0 9554.78889097 0 120.32506833 0 -2735.69918326 0 7798
0.08450000 0.08449610 22395.78852573 0 468.14944111 0 10472.40797928 0 -226.68742883 0 -968.33802284 0 7371
0.08550000 0.08548940 21901.01022987 0 322.58968148 0 9123.56315362 0 -161.12736367 0 -3779.19226574 0 8256
0.08650000 0.08650700 21780.55983101 0 89.83669887 0 10484.83011987 0 823.38273344 0 -1219.12218615 0 8037
0.08750000 0.08749060 21573.48718399 0 -10.59761650 0 9646.12489784 0 1174.38029767 0 -2554.25829239 0 8155
0.08850000 0.08849210 21362.53261803 0 326.23979439 0 8844.25354088 0 898.49121006 0 -616.61509434 0 8718
0.08950000 0.08949900 21148.02886905 0 299.07412571 0 8642.41593881 0 210.09499819 0 -967.34203335 0 8571
0.09050000 0.09049190 20263.72773637 0 364.82385034 0 7841.59824556 0 538.93789651 0 -155.24681104 0 8932
0.09150000 0.09150830 19960.16167590 0 317.18050473 0 8826.68508491 0 587.70034389 0 -235.21101368 0 9285
0.09250000 0.09250820 19674.11970660 0 276.01885461 0 7174.45165793 0 197.30462987 0 -288.86024244 0 9204
0.09350000 0.09350330 18924.46570487 0 5.97916445 0 6808.98562729 0 1489.73630049 0 -87.15684386 0 9349
0.09450000 0.09448040 18885.53560359 0 277.54389419 0 5479.57257868 0 151.34603708 0 -1090.73270852 0 9564
0.09550000 0.09549270 18272.08150038 0 382.96572119 0 5464.73255716 0 369.62966598 0 31.89495506 0 10155
0.09650000 0.09649430 18068.55803638 0 67.12425667 0 4892.55988900 0 426.36113837 0 -1046.09064080 0 9913
0.09750000 0.09749140 17768.31933499 0 6.44307595 0 4257.32267498 0 280.82245201 0 -640.20385201 0 10476
0.09850000 0.09850240 17591.41474367 0 158.64848115 0 4249.82502585 0 -50.74255877 0 -2268.70433576 0 10575
0.09950000 0.09950330 17779.85417982 0 226.56320742 0 4451.61826312 0 -670.18224824 0 -898.36477041 0 10882
0.10050000 0.10051200 16924.39015920 0 287.28751071 0 5164.27203183 0 -502.96138097 0 -3185.22539558 0 10875
0.10150000 0.10150300 17191.24435778 0 463.53106670 0 5723.26835802 0 -1148.36034963 0 -2934.12069667 0 11118
0.10250000 0.10250800 16398.33468795 0 250.14198301 0 5911.45269665 0 101.21637785 0 -3642.79272567 0 11575
0.10350000 0.10349800 16120.83294030 0 268.45133093 0 6518.86209751 0 -290.53834054 0 -2433.37533685 0 11364
0.10450000 0.10450100 16138.35703148 0 28.38902771 0 6061.08403467 0 831.17097194 0 -3370.62584376 0 12093
0.10550000 0.10551000 15835.01279495 0 266.53255386 0 5865.06931101 0 474.47364161 0 -2589.75012262 0 12067
0.10650000 0.10649700 15466.78505627 0 377.81829668 0 5676.74078683 0 110.69081102 0 -1425.05243989 0 12054
0.10750000 0.10749900 15035.44840695 0 -30.73781049 0 4937.47923664 0 825.10741457 0 -1253.08343121 0 12807
0.10850000 0.10850100 15329.14330214 0 -213.37577425 0 4615.70143078 0 1409.45821698 0 -1025.77489535 0 12736
0.10950000 0.10950300 14787.33833122 0 260.00760270 0 3869.50788249 0 -111.42992838 0 -721.04425920 0 12933
0.11050000 0.11050200 15030.45736832 0 428.49952114 0 4228.94030199 0 -411.13403408 0 -737.16420485 0 13428
0.11150000 0.11150900 14229.34021275 0 -24.95652408 0 4535.70062719 0 -173.46410203 0 -107.53492184 0 13453
0.11250000 0.11250000 14422.54886359 0 103.11042155 0 4311.90245517 0 -52.41034206 0 -1568.63907558 0 13668
0.11350000 0.11349100 14322.28444318 0 219.17868849 0 4816.40773075 0 -174.64420539 0 -869.29474321 0 13791
0.11450000 0.11448600 14298.54928171 0 102.02337334 0 5362.47172130 0 -177.47911533 0 -792.37840149 0 14205
0.11550000 0.11549300 14206.60325901 0 67.32944381 0 5336.81778276 0 165.39858361 0 51.65214784 0 14776
0.11650000 0.11649800 14332.93199225 0 -31.56942843 0 5692.29064495 0 287.89974478 0 -148.50447242 0 14553
0.11750000 0.11747300 14375.74401247 0 108.71469245 0 5474.08243619 0 -46.20182274 0 -167.67227898 0 14568
0.11850000 0.11849100 14229.89477260 0 208.65757907 0 6072.92943301 0 -147.47410022 0 1128.03018562 0 16015
0.11950000 0.11950300 14074.28527942 0 116.30783680 0 5820.53815526 0 214.23756025 0 683.24989648 0 15270
0.12050000 0.12050700 13969.14073235 0 -37.34461468 0 6170.08831828 0 457.13810078 0 1548.76365065 0 15999
0.12150000 0.12150000 14133.06862324 0 -13.53813682 0 5310.97529387 0 425.91194489 0 450.40907159 0 15670
0.12250000 0.12250700 14001.08337956 0 111.70055359 0 5757.97271328 0 291.75726308 0 2233.81143016 0 16887
0.12350000 0.12352200 13766.83730001 0 211.26179211 0 5407.20251859 0 302.92831665 0 1305.47824559 0 16407
0.12450000 0.12449800 13742.43666673 0 179.13614015 0 5114.38382796 0 217.86549077 0 2677.18202817 0 16306
0.12550000 0.12549900 13249.43296238 0 163.53858988 0 5437.24857112 0 120.80753540 0 1517.89684955 0 17523
0.12650000 0.12650100 13153.49410878 0 117.80293015 0 4668.96135852 0 245.73877782 0 2073.99837333 0 17154
0.12750000 0.12750600 12991.11898545 0 50.47104627 0 4781.15990685 0 611.64845634 0 1880.47916898 0 18007
0.12850000 0.12850300 12798.46489446 0 149.09230586 0 4178.28680553 0 230.30537727 0 1524.29647019 0 17496
0.12950000 0.12949900 12651.06288702 0 217.48949920 0 4108.50099433 0 397.14914384 0 2339.48835468 0 18405
0.13050000 0.13049000 12187.89450246 0 310.76535641 0 3908.27161583 0 -170.49609773 0 1089.74891935 0 18100
0.13150000 0.13148800 11986.47836588 0 206.55136077 0 4124.41686195 0 -275.75044765 0 1833.23066998 0 19059
0.13250000 0.13249300 11811.57019001 0 1.93441566 0 4301.49891243 0 162.66682180 0 1031.38038629 0 18957
0.13350000 0.13349100 11739.14467394 0 25.03527158 0 3987.98404829 0 197.24473741 0 1090.54083081 0 19468
0.13450000 0.13450700 11631.22732763 0 116.74150260 0 3803.43762227 0 -194.14363874 0 836.79531791 0 19953
0.13550000 0.13551000 11613.70323645 0 133.01117940 0 4247.61787765 0 175.46273572 0 1456.95072232 0 19956
0.13650000 0.13649900 11324.66664398 0 209.95857647 0 4226.92170415 0 250.04216224 0 1548.32000277 0 19723
0.13750000 0.13749600 11338.75246411 0 42.87878923 0 4210.79510379 0 371.22125274 0 1867.25846222 0 20946
0.13850000 0.13851100 11161.29331294 0 75.38464742 0 4077.12399817 0 157.57152592 0 2436.44759840 0 20955
0.13950000 0.13949800 11234.71703673 0 120.43154382 0 3962.17483300 0 220.20573333 0 2310.34068910 0 20506
0.14050000 0.14048300 11014.39040936 0 95.27992559 0 4379.09292628 0 -163.26796468 0 2797.72115660 0 21447
0.14150000 0.14148400 10853.50150643 0 156.32820275 0 4359.12877177 0 -355.52831818 0 1740.54153708 0 21771
0.14250000 0.14249400 10779.22376046 0 163.72381287 0 4330.21402133 0 35.18393861 0 1809.69515006 0 22470
0.14350000 0.14350900 10555.03739655 0 124.49646750 0 4684.88831734 0 -396.65003998 0 744.04407431 0 22519
0.14450000 0.14449900 10485.98360435 0 -3.60269805 0 3865.19340688 0 111.06946448 0 635.98365157 0 22218
0.14550000 0.14550500 10654.17051487 0 -94.84015963 0 4571.25900460 0 442.45890162 0 925.07348178 0 23559
0.14650000 0.14650700 10596.86230024 0 -64.41767188 0 2942.89383345 0 130.28163583 0 -615.96182284 0 23044
0.14750000 0.14750500 10716.53631531 0 74.55258582 0 3464.06917805 0 497.42687369 0 617.99594836 0 23649
0.14850000 0.14849900 10367.45198256 0 234.18840532 0 2795.83565312 0 -55.16251167 0 -420.98301697 0 23640
0.14950000 0.14949500 10096.64931788 0 281.29050052 0 3322.50114020 0 -126.05145332 0 956.36729397 0 24457
0.15050000 0.15050000 9710.06564825 0 281.93268083 0 3382.54888048 0 158.44883960 0 183.99297529 0 24591
0.15150000 0.15149900 9470.09651107 0 82.73112354 0 3230.35547596 0 271.67554189 0 1401.05108970 0 25020
0.15250000 0.15250500 9453.98100191 0 -11.54005769 0 3005.47036664 0 641.78212933 0 1099.74208780 0 25297
0.15350000 0.15350100 9349.12482596 0 67.35761545 0 2919.25849276 0 76.95826644 0 1527.92329159 0 25452
0.15450000 0.15450400 9382.74224391 0 83.59102404 0 2664.53806364 0 -90.79253822 0 1319.83025444 0 26061
0.15550000 0.15549900 8974.66383459 0 165.77457519 0 3027.66385173 0 -119.09172723 0 1011.63805572 0 26128
0.15650000 0.15649500 9074.02986805 0 117.92271507 0 2964.36639075 0 -222.19438494 0 1195.33156870 0 26331
0.15750000 0.15749700 9013.63830067 0 -78.57503022 0 3085.11625192 0 5.54436735 0 159.34611744 0 27345
0.15850000 0.15849900 9102.47878822 0 7.12772445 0 2971.32057123 0 62.13022342 0 546.49654723 0 26980
0.15950000 0.15949700 9096.28990033 0 114.26705656 0 3022.53971874 0 -340.83026398 0 -318.71552638 0 27777
0.16050000 0.16050000 8957.99376558 0 99.80391391 0 3158.00759826 0 -30.67547796 0 130.74524787 0 28224
0.16150000 0.16150500 8997.11241722 0 -47.75581035 0 3027.98549644 0 102.63427646 0 -300.55147314 0 28075
0.16250000 0.16249700 8905.93168711 0 8.89183478 0 2701.07246639 0 451.78881649 0 -253.50483393 0 28590
0.16350000 0.16349900 9021.79033043 0 50.45485313 0 2819.42662903 0 186.50956788 0 331.01899116 0 29163
0.16450000 0.16449100 8780.43479364 0 210.14158122 0 2765.20176715 0 27.43607207 0 -73.60761584 0 28996
0.16550000 0.16550500 8665.95145874 0 104.92416499 0 2700.87282485 0 91.79684610 0 725.37980809 0 30777
0.16650000 0.16650700 8429.90860528 0 137.06612101 0 2858.60073665 0 -16.36949758 0 208.10634658 0 29211
0.16750000 0.16749900 8363.79398028 0 156.80623333 0 2673.59957155 0 -2.09051317 0 442.76280041 0 30922
0.16850000 0.16850800 8206.68717550 0 1.66262588 0 2922.78549339 0 -3.66068283 0 352.02017258 0 30867
0.16950000 0.16949900 8275.86297087 0 -36.40219568 0 2522.74820186 0 385.29043607 0 447.45770408 0 30852
0.17050000 0.17049200 8345.69314686 0 -84.43129312 0 2245.93410842 0 249.37225394 0 383.59681029 0 31257
0.17150000 0.17149500 8259.96928564 0 114.94583781 0 2137.60638783 0 27.85598478 0 -75.77982676 0 32608
0.17250000 0.17250900 8169.44293615 0 169.78293376 0 1963.06422146 0 -97.48019724 0 -82.99221032 0 32361
0.17350000 0.17350400 7962.91375778 0 63.56087691 0 2094.38399332 0 -65.65522763 0 -334.07905240 0 32508
0.17450000 0.17449800 7760.47723108 0 191.58157225 0 2076.74899018 0 -204.95533753 0 -415.36421659 0 32791
0.17550000 0.17549800 7752.44720449 0 65.03112598 0 2164.62454360 0 18.82364672 0 -781.85285559 0 33633
0.17650000 0.17650100 7649.90908870 0 33.85964969 0 1979.94502321 0 29.93447509 0 -855.08802904 0 33984
0.17750000 0.17750300 7619.53030026 0 60.85839586 0 2083.32606997 0 56.69087861 0 -618.43848711 0 34069
0.17850000 0.17849800 7603.39260870 0 -50.67967169 0 1749.63631858 0 227.39171983 0 -559.75829142 0 34536
