### header ###
fiducial parameters:
Omega_m = 0.31
Omega_nu = 0
Omega_de = 0.69
Omega_k = 0
H_0 = 100
w_de = -1
zeff = 0
beta = 0
fgrowth = 0
b_1 = 2
gamma = 0.55
Lx = 3500 Ly = 3500 Lz = 3500
nx = 700 ny = 700 nz = 700
xoffset = 1379.75464 yoffset = 22.6059522 zoffset = 368.141391
bins = 400 dk = 0.001
kx_ny = 0.628318531 ky_ny = 0.628318531 kz_ny = 0.628318531
############################
A(data) = 3.3023864 (not used)
A(ran) = 3.31063338 (used)
Ngal = 185773
weighted Ngal = 0
Nran = 9399747
weighted Nran = 0
SN(data) = 6676.25732
SN(ran) = 131.68171
SN(data+ran) = 6807.93903
############################
13 columns: k_central k_mean P_0(k) sigma^{lin}_{P_0(k)} P^img_1(k) sigma^{lin}_{P_1(k)} P_2(k) sigma^{lin}_{P_2(k)} P^img_3(k) sigma^{lin}_{P_3(k)} P_4(k) sigma^{lin}_{P_4(k)} N_modes
### header ###
0.00050000 0 0 0 0 0 0 0 0 0 0 0 0
0.00150000 0.00179520 15242.29923003 0 -33344.90724104 0 -49048.48935216 0 46729.98554210 0 45628.96242105 0 3
0.00250000 0.00253879 21896.90648700 0 -26804.31748871 0 -13819.96413339 0 -59220.66972125 0 -63678.88724656 0 6
0.00350000 0.00331552 49921.58837592 0 -22491.17281948 0 -62911.48732971 0 23851.50812518 0 5782.53971452 0 7
0.00450000 0.00420575 79370.49086496 0 -32869.42762787 0 -62795.69523357 0 -17781.40694739 0 -5669.44277924 0 24
0.00550000 0.00557378 114096.25212606 0 -10297.47762102 0 -72928.05820562 0 -49720.06132737 0 13885.73493130 0 45
0.00650000 0.00659388 139073.62765346 0 -13709.38489982 0 -63977.68409234 0 -13128.31709170 0 -7192.24193783 0 40
0.00750000 0.00754703 132467.71075110 0 -6467.89804754 0 -54019.56382435 0 12481.36757371 0 16751.36748681 0 57
0.00850000 0.00846663 135094.10618844 0 5109.69225165 0 -45739.09800674 0 -29318.91366081 0 -20336.26416441 0 75
0.00950000 0.00948925 122595.43634748 0 21111.87156700 0 6432.08457259 0 -48626.69113221 0 2907.65710075 0 112
0.01050000 0.01054430 89855.77572390 0 25346.37964986 0 6368.99784435 0 -4430.13461463 0 11310.58082386 0 105
0.01150000 0.01145670 67614.37665969 0 8519.45892944 0 38118.22567165 0 6737.92432844 0 44569.42037659 0 144
0.01250000 0.01249090 64419.55737876 0 -2266.59700834 0 23000.36967138 0 34209.13330725 0 4116.16501142 0 169
0.01350000 0.01339930 79817.24427804 0 -5931.74958706 0 12039.82702320 0 19488.67489363 0 10139.31715254 0 180
0.01450000 0.01448870 73532.08479142 0 -3904.36751450 0 4999.77848990 0 9566.19064143 0 48176.49944809 0 267
0.01550000 0.01550050 74926.24824781 0 -3849.80991671 0 -20238.88345521 0 10949.25180968 0 29138.57079843 0 238
0.01650000 0.01653350 88977.68566151 0 -2519.30993080 0 -7254.15299920 0 5331.15018112 0 36590.41329203 0 315
0.01750000 0.01747870 81353.26414340 0 3480.14032243 0 -18232.37501531 0 -7270.60124427 0 1368.06586997 0 297
0.01850000 0.01844180 82182.99658709 0 66.20790197 0 -1329.21340706 0 -4227.97536786 0 38416.68978153 0 388
0.01950000 0.01947590 73423.83470920 0 6841.53829033 0 -1533.81271717 0 -9270.11113890 0 24183.13491394 0 399
0.02050000 0.02045430 74142.32244751 0 4066.31008114 0 12980.24961244 0 410.19793705 0 10627.84001332 0 462
0.02150000 0.02154770 70737.10316047 0 1856.94364906 0 17772.86672574 0 -5952.53449014 0 -753.11667342 0 571
0.02250000 0.02255340 63859.67375681 0 2631.46411434 0 29234.95329991 0 -16533.20364284 0 -11159.74054536 0 510
0.02350000 0.02348930 66257.70144899 0 4012.21831363 0 26396.60508889 0 -3997.32283612 0 -13925.44141637 0 555
0.02450000 0.02439640 64215.59026688 0 -2589.88321699 0 29987.93466073 0 -7529.09268035 0 -21876.16594870 0 592
0.02550000 0.02547300 67096.52867418 0 -1601.66866010 0 24504.00324165 0 6116.50674582 0 -22542.08141348 0 837
0.02650000 0.02652900 76452.17512395 0 -1978.98008908 0 27136.16610140 0 6220.58653799 0 -24641.53408381 0 723
0.02750000 0.02749970 68112.03866676 0 410.13582635 0 10708.05154965 0 9955.21437439 0 -11338.97428805 0 826
0.02850000 0.02848090 69298.79674022 0 3739.50796306 0 15798.96640487 0 4768.72667507 0 -10386.12955822 0 831
0.02950000 0.02946900 61430.81253712 0 4611.16513122 0 8986.06558506 0 -3929.64435235 0 -7563.23138455 0 996
0.03050000 0.03053250 55958.63778681 0 3887.86381344 0 14335.92661543 0 2833.60117873 0 258.43487097 0 1041
0.03150000 0.03150510 50565.65418270 0 2848.34137947 0 12577.08460338 0 1086.08549700 0 1496.21355951 0 1036
0.03250000 0.03246190 51131.08340312 0 -985.49832276 0 11315.35003855 0 7599.49959857 0 6275.11086218 0 1059
0.03350000 0.03345080 50195.31911660 0 -2119.10627132 0 5811.88702164 0 7900.68105170 0 2964.93204179 0 1302
0.03450000 0.03451200 52049.76724634 0 -1750.77871187 0 -2623.78900606 0 4771.89875740 0 8441.58763567 0 1339
0.03550000 0.03553350 53670.74568033 0 -55.54626708 0 713.44013457 0 -2718.15290969 0 4998.92446773 0 1365
0.03650000 0.03647120 54864.26938393 0 1625.82528705 0 -295.11345928 0 -6438.78365555 0 5420.48977254 0 1308
0.03750000 0.03744890 50973.58840646 0 3380.27518511 0 7206.93777379 0 -3161.84515241 0 3290.20357469 0 1579
0.03850000 0.03847530 48531.86139831 0 2401.18868331 0 12098.05580718 0 -6510.99843888 0 1266.09340523 0 1662
0.03950000 0.03950240 45665.45245901 0 2637.86373498 0 18179.02635798 0 -1940.79309798 0 1473.93134484 0 1683
0.04050000 0.04050350 44168.02995903 0 841.06764698 0 20384.39995917 0 1813.49943061 0 169.47348937 0 1822
0.04150000 0.04152450 42272.65531255 0 842.75572715 0 19873.53942773 0 -379.45092087 0 3665.77368575 0 1887
0.04250000 0.04250150 40566.16375009 0 1678.69702290 0 20862.09781173 0 1372.69089910 0 586.24628797 0 1920
0.04350000 0.04349210 40682.06675820 0 474.78308600 0 19464.38517231 0 1808.68585113 0 2294.16972395 0 2005
0.04450000 0.04448520 37687.99814203 0 883.92292287 0 19849.47153036 0 1420.27213401 0 79.16474916 0 2151
0.04550000 0.04548030 37898.17632420 0 526.39818924 0 18962.95215828 0 1943.84317715 0 2776.33732888 0 2274
0.04650000 0.04648670 37268.63998542 0 565.53347767 0 17300.04899984 0 -1071.20998365 0 -2808.42416165 0 2311
0.04750000 0.04749250 35867.82181086 0 17.21098669 0 14621.52493684 0 1366.08054572 0 -2277.43310776 0 2568
0.04850000 0.04851840 36708.86727544 0 -364.53215186 0 16386.13437130 0 954.76128865 0 -765.51774073 0 2493
0.04950000 0.04949480 36419.71977100 0 107.39927650 0 12117.46540184 0 703.59558816 0 -4935.02808211 0 2644
0.05050000 0.05050630 36611.93021411 0 532.76453629 0 14921.54181429 0 942.87263465 0 -1973.31248744 0 2829
0.05150000 0.05149060 35894.32977156 0 839.98070968 0 12386.75966374 0 -688.63356348 0 -4367.44716948 0 2784
0.05250000 0.05249300 35395.11499692 0 194.29447902 0 15361.19686132 0 3053.81689413 0 4299.50249698 0 3055
0.05350000 0.05348950 35281.43022820 0 -175.18101932 0 11097.62984245 0 1993.80901940 0 -740.88530142 0 3009
0.05450000 0.05448610 36096.07864405 0 -79.28908148 0 12348.05138640 0 1574.89451066 0 5278.75536673 0 3336
0.05550000 0.05550870 34603.31444679 0 528.26594681 0 11001.29170576 0 -329.23219933 0 2232.29193618 0 3349
0.05650000 0.05647670 35002.70844890 0 523.20503364 0 12273.29671896 0 404.95956473 0 5452.49896693 0 3324
0.05750000 0.05747970 34046.20362408 0 280.57068184 0 11522.64450951 0 1025.27800973 0 4278.36267560 0 3639
0.05850000 0.05849280 34450.47775284 0 -18.31722267 0 11900.74341347 0 2522.93675221 0 3354.25523707 0 3846
0.05950000 0.05951020 34238.85771507 0 321.26650168 0 10803.01437792 0 256.99745185 0 6750.49065458 0 3787
0.06050000 0.06049470 32722.69109225 0 802.10981770 0 10734.79242549 0 1159.99501522 0 5043.20052595 0 3930
0.06150000 0.06148310 32315.86598819 0 604.19628111 0 11930.13508539 0 -656.74193578 0 9848.25087102 0 4083
0.06250000 0.06249100 31390.41651483 0 628.98621541 0 10445.21236437 0 1227.05239197 0 6647.95253880 0 4303
0.06350000 0.06350600 31811.99291083 0 291.56871273 0 13663.35643248 0 -320.89716482 0 6694.69084273 0 4470
0.06450000 0.06451750 30522.75217757 0 747.09748083 0 11566.56564942 0 -2200.68202488 0 4557.71665313 0 4479
0.06550000 0.06550280 30885.54522975 0 382.41227046 0 14724.11850861 0 609.98366768 0 6123.60511187 0 4636
0.06650000 0.06648880 29579.11314121 0 -685.06552542 0 13387.51836438 0 1590.78819589 0 4653.91060426 0 4653
0.06750000 0.06749660 31300.68873152 0 -554.35687851 0 10348.99623084 0 2879.51873409 0 3169.78644942 0 5220
0.06850000 0.06852730 30682.24358969 0 703.85401305 0 11677.14488300 0 -8.44111071 0 2978.20820454 0 5029
0.06950000 0.06949320 29863.04778309 0 981.54098369 0 9493.73185177 0 -582.82798107 0 3400.79389946 0 5040
0.07050000 0.07048030 28635.80684077 0 1008.40497181 0 11225.51134327 0 -1329.79014930 0 2557.82965781 0 5475
0.07150000 0.07148790 28180.06955817 0 528.35689462 0 12370.34469226 0 -1274.56707970 0 -115.53921685 0 5509
0.07250000 0.07249820 27209.92256111 0 156.07975993 0 11020.33529092 0 1115.68568342 0 817.45448867 0 5916
0.07350000 0.07351270 26850.56777998 0 195.64538681 0 11058.38918765 0 583.06422357 0 -1811.20355284 0 5721
0.07450000 0.07449140 27296.21207336 0 108.82394074 0 10398.77352275 0 762.56082762 0 -1336.34504670 0 6028
0.07550000 0.07549160 26623.42006648 0 -17.16662190 0 10174.11023736 0 272.61718451 0 -1745.61021409 0 6183
0.07650000 0.07648840 26380.52285332 0 575.62646689 0 9499.15544708 0 -178.82780487 0 -2764.38101857 0 6330
0.07750000 0.07749960 25365.56742059 0 705.10620919 0 10620.50873213 0 -1072.70618612 0 -3721.93950710 0 6583
0.07850000 0.07848650 24737.69476135 0 844.43493437 0 10230.74188898 0 -910.83793050 0 -4333.48592443 0 6549
0.07950000 0.07947320 23760.67122218 0 255.37813709 0 10383.74495088 0 1844.76551481 0 -2628.36967040 0 6828
0.08050000 0.08048110 23855.94460396 0 -694.81246930 0 8929.85539892 0 1605.41748466 0 -3277.78143411 0 7147
0.08150000 0.08149960 24355.15937860 0 114.24820152 0 6298.57983493 0 1928.82569648 0 -2180.16331052 0 7386
0.08250000 0.08250610 23727.17580739 0 530.06715719 0 6829.06069376 0 860.47391428 0 -1585.30914460 0 7227
0.08350000 0.08350160 23288.51896809 0 692.42009812 0 5574.54649815 0 -68.19278258 0 -628.73777260 0 7798
0.08450000 0.08449610 21928.07275042 0 436.79795469 0 6416.84526799 0 186.14799486 0 1102.36515588 0 7371
0.08550000 0.08548940 21548.19925495 0 370.18977142 0 6674.28304035 0 696.19886892 0 752.89595860 0 8256
0.08650000 0.08650700 21038.44784321 0 191.17896180 0 5705.62226368 0 963.29929207 0 1557.20405153 0 8037
0.08750000 0.08749060 21246.96234583 0 64.69040441 0 7023.22318754 0 59.93749378 0 1851.79733367 0 8155
0.08850000 0.08849210 20396.37845187 0 273.99692941 0 5395.30166427 0 524.29640742 0 2117.27622382 0 8718
0.08950000 0.08949900 20657.79796394 0 220.62276233 0 6161.04899277 0 -676.18591315 0 2814.75723511 0 8571
0.09050000 0.09049190 20298.11044691 0 76.72146939 0 6027.54425510 0 973.50319326 0 1731.02529010 0 8932
0.09150000 0.09150830 19527.05043507 0 442.05740029 0 6327.17294066 0 -373.77111892 0 1682.83403936 0 9285
0.09250000 0.09250820 19420.24220846 0 498.52712043 0 5726.73990267 0 -589.75887005 0 1650.30355871 0 9204
0.09350000 0.09350330 18712.18019529 0 263.71317160 0 6665.32135322 0 476.67857156 0 1935.24749951 0 9349
0.09450000 0.09448040 18346.94707978 0 362.70210436 0 6704.75055837 0 -532.38854471 0 406.40142034 0 9564
0.09550000 0.09549270 18247.01539528 0 346.37586245 0 6068.77023416 0 98.73871536 0 1732.22313937 0 10155
0.09650000 0.09649430 17700.44120967 0 290.07916498 0 7260.20879273 0 -263.34605298 0 460.51426113 0 9913
0.09750000 0.09749140 17528.30583303 0 -28.17707493 0 6609.97628044 0 1165.58497849 0 2859.51021480 0 10476
0.09850000 0.09850240 17894.20442035 0 -334.75672453 0 6818.37987110 0 1154.84869984 0 1863.24344892 0 10575
0.09950000 0.09950330 17877.90036084 0 240.34734699 0 6031.82545712 0 -103.57092805 0 2940.15430781 0 10882
0.10050000 0.10051200 17656.52006975 0 309.84811442 0 6060.65147799 0 111.36449032 0 2393.99049649 0 10875
0.10150000 0.10150300 17464.42053861 0 197.83700732 0 6724.37088577 0 -50.52162213 0 3144.34324362 0 11118
0.10250000 0.10250800 16744.49094470 0 264.68586957 0 6297.98091029 0 195.43687230 0 2797.35514710 0 11575
0.10350000 0.10349800 17072.01399058 0 -124.86358612 0 6350.51991023 0 945.26278759 0 3128.89320628 0 11364
0.10450000 0.10450100 17115.49148262 0 -135.80837927 0 5034.64921310 0 942.40791349 0 2509.33894475 0 12093
0.10550000 0.10551000 16838.21155891 0 260.75293113 0 4782.11374979 0 50.82330269 0 2468.43461040 0 12067
0.10650000 0.10649700 16052.95481498 0 593.75613743 0 4214.56611075 0 -115.25306397 0 2534.40504985 0 12054
0.10750000 0.10749900 15593.44652541 0 578.11200413 0 4907.98774395 0 -632.11393295 0 1512.06287995 0 12807
0.10850000 0.10850100 14893.03743813 0 422.08104546 0 5106.80854045 0 -498.08569079 0 1316.04815629 0 12736
0.10950000 0.10950300 14639.93632378 0 148.12848084 0 5774.04385765 0 60.68659322 0 831.94624661 0 12933
0.11050000 0.11050200 14369.08929430 0 -43.22583278 0 4916.01777054 0 52.87672689 0 543.03054818 0 13428
0.11150000 0.11150900 14715.35646302 0 -104.46132934 0 5653.08326374 0 948.30288467 0 1389.44969769 0 13453
0.11250000 0.11250000 14748.07549402 0 -70.37663926 0 4441.78037143 0 241.09711190 0 1269.12130200 0 13668
0.11350000 0.11349100 14781.23817290 0 92.81113606 0 5084.06049550 0 365.09225730 0 2156.73870257 0 13791
0.11450000 0.11448600 14873.40601954 0 149.30192948 0 5319.44896834 0 -203.23509288 0 2588.29717582 0 14205
0.11550000 0.11549300 14636.27622878 0 203.37262372 0 5878.67820966 0 198.07435894 0 3397.47763157 0 14776
0.11650000 0.11649800 14542.00105472 0 -50.66281307 0 5625.04471785 0 31.10004898 0 2587.03277937 0 14553
0.11750000 0.11747300 14943.39147228 0 -177.42920494 0 6016.85234124 0 268.21730668 0 3257.12962539 0 14568
0.11850000 0.11849100 14754.61930022 0 101.76949584 0 5765.76982473 0 -98.89643218 0 2382.34473969 0 16015
0.11950000 0.11950300 14819.05915449 0 77.63915502 0 5467.20589408 0 91.84897473 0 2214.98966894 0 15270
0.12050000 0.12050700 14509.72567160 0 88.96082704 0 5801.56111728 0 302.06985800 0 2347.81784359 0 15999
0.12150000 0.12150000 14577.60379693 0 142.02055868 0 4187.00448633 0 379.62283443 0 923.08039369 0 15670
0.12250000 0.12250700 14265.49751480 0 254.72930207 0 4950.93285854 0 230.92426606 0 1314.00737605 0 16887
0.12350000 0.12352200 13672.00756610 0 321.81551593 0 4216.66234697 0 -585.19040602 0 823.48144510 0 16407
0.12450000 0.12449800 13415.24635675 0 255.28497104 0 3921.88051448 0 655.56959626 0 677.41149041 0 16306
0.12550000 0.12549900 13061.76991001 0 70.52925413 0 4275.55660277 0 141.93737471 0 162.37734156 0 17523
0.12650000 0.12650100 12951.74523629 0 -39.69029193 0 3236.11180717 0 485.32526870 0 527.36534161 0 17154
0.12750000 0.12750600 13061.10443820 0 -1.37155960 0 3267.77717446 0 205.77830434 0 330.43670332 0 18007
0.12850000 0.12850300 13033.93100567 0 27.92053555 0 2554.22501880 0 -88.10902312 0 -111.64066112 0 17496
0.12950000 0.12949900 12914.25699060 0 188.13886471 0 3359.88956512 0 -94.66303322 0 239.84713401 0 18405
0.13050000 0.13049000 12918.36073347 0 60.23030138 0 2883.92193928 0 43.72981677 0 -231.39675105 0 18100
0.13150000 0.13148800 12776.61523647 0 -62.90993456 0 3385.14422057 0 183.17666320 0 270.77271846 0 19059
0.13250000 0.13249300 12800.12857400 0 61.14976161 0 2749.16389636 0 233.62497252 0 -123.34520126 0 18957
0.13350000 0.13349100 12888.85814959 0 -2.57817091 0 2962.09269537 0 356.01854908 0 597.86875325 0 19468
0.13450000 0.13450700 12793.03020796 0 -131.63808922 0 2493.35652995 0 216.20735683 0 154.21200237 0 19953
0.13550000 0.13551000 12992.33901712 0 113.26773971 0 2556.55417016 0 135.10076091 0 527.52061837 0 19956
0.13650000 0.13649900 12871.88861826 0 333.02095221 0 2485.44850652 0 -416.07516232 0 240.68230114 0 19723
0.13750000 0.13749600 12304.79571830 0 328.44472435 0 3147.87024425 0 -567.04853517 0 -98.16818419 0 20946
0.13850000 0.13851100 12097.39033537 0 189.12709036 0 3146.50602703 0 -97.96432799 0 258.75429744 0 20955
0.13950000 0.13949800 11804.36091199 0 70.89204718 0 3400.12842764 0 327.34004113 0 531.69756314 0 20506
0.14050000 0.14048300 11964.73961986 0 111.53085827 0 3078.76099607 0 253.61020030 0 91.12438683 0 21447
0.14150000 0.14148400 11516.10070331 0 236.80814604 0 3269.68486034 0 48.64909535 0 158.96679850 0 21771
0.14250000 0.14249400 11337.86516835 0 330.56868856 0 3653.55118671 0 -738.07146476 0 315.88616204 0 22470
0.14350000 0.14350900 10982.03738786 0 219.15872434 0 4031.61681709 0 -276.38930059 0 490.96736059 0 22519
0.14450000 0.14449900 10833.17134242 0 99.28151854 0 4363.11051148 0 177.27836466 0 57.34936297 0 22218
0.14550000 0.14550500 10928.53345378 0 -50.37089276 0 3909.07018201 0 129.94002697 0 225.61712832 0 23559
0.14650000 0.14650700 10688.65304618 0 14.43219820 0 4049.88401846 0 388.03772555 0 -152.36753632 0 23044
0.14750000 0.14750500 10944.43823020 0 87.53283544 0 3719.96527404 0 417.50814496 0 763.88178918 0 23649
0.14850000 0.14849900 10653.64922862 0 125.69542589 0 3415.43427943 0 273.98140173 0 201.54812182 0 23640
0.14950000 0.14949500 10476.93318764 0 141.91741055 0 3814.80609914 0 25.00410531 0 880.63549209 0 24457
0.15050000 0.15050000 10232.94903717 0 151.72646513 0 3225.80808521 0 -7.57038521 0 529.32848347 0 24591
0.15150000 0.15149900 10168.66445966 0 77.68629261 0 3289.77101801 0 104.29008126 0 437.22274754 0 25020
0.15250000 0.15250500 10128.40341474 0 2.09269813 0 3134.32789278 0 106.30368806 0 79.37293093 0 25297
0.15350000 0.15350100 9953.30668852 0 99.59096293 0 2725.91674756 0 -11.60361025 0 -21.30508022 0 25452
0.15450000 0.15450400 9816.72968930 0 151.06653891 0 2684.48003576 0 206.06445722 0 -31.87277267 0 26061
0.15550000 0.15549900 9661.76348554 0 90.32992439 0 2480.66820064 0 139.95315957 0 -103.64867734 0 26128
0.15650000 0.15649500 9509.01552116 0 100.98157721 0 2211.48485070 0 395.86367412 0 -1.47975422 0 26331
0.15750000 0.15749700 9369.80990827 0 145.95349712 0 2353.56308361 0 1.67725517 0 -327.15149078 0 27345
0.15850000 0.15849900 9146.76593764 0 225.37977671 0 2188.00478676 0 37.85602978 0 519.37080685 0 26980
0.15950000 0.15949700 8794.87553206 0 168.32555048 0 2440.27406135 0 16.18682556 0 187.04527269 0 27777
0.16050000 0.16050000 8811.51232748 0 157.88097032 0 2342.49406906 0 3.04254824 0 796.46994405 0 28224
0.16150000 0.16150500 8545.95579895 0 47.44348224 0 2555.27868251 0 341.55451914 0 449.45522865 0 28075
0.16250000 0.16249700 8572.35284769 0 101.43986546 0 2559.34915179 0 -85.19348017 0 1117.61555168 0 28590
0.16350000 0.16349900 8476.59145324 0 16.70711361 0 2332.22362068 0 146.64780605 0 1046.72505727 0 29163
0.16450000 0.16449100 8603.72984386 0 -42.61359871 0 2373.54942051 0 105.66161867 0 931.79585625 0 28996
0.16550000 0.16550500 8501.35809602 0 45.57761018 0 2479.78090488 0 -249.09053754 0 588.46563648 0 30777
0.16650000 0.16650700 8566.78506682 0 46.98109024 0 2230.14024397 0 62.85214943 0 582.71817822 0 29211
0.16750000 0.16749900 8506.27149627 0 61.68912651 0 2337.86903993 0 56.34106226 0 435.69216236 0 30922
0.16850000 0.16850800 8384.19069146 0 40.98297093 0 2161.45246127 0 200.55767794 0 275.38887463 0 30867
0.16950000 0.16949900 8300.95125837 0 157.21771674 0 2235.22001217 0 145.17711333 0 578.64881806 0 30852
0.17050000 0.17049200 8058.36459872 0 162.78771585 0 2088.90494203 0 7.60709707 0 289.12421293 0 31257
0.17150000 0.17149500 7929.59580215 0 165.93428842 0 2346.78636227 0 -146.64780605 0 587.54284890 0 32608
0.17250000 0.17250900 7573.91220721 0 169.12855314 0 2217.44082346 0 59.46778159 0 705.96134047 0 32361
0.17350000 0.17350400 7625.87446492 0 29.63124177 0 2227.21216798 0 9.36166897 0 627.27706196 0 32508
0.17450000 0.17449800 7594.70820149 0 -107.55754788 0 2165.16801225 0 130.57777079 0 561.50293670 0 32791
0.17550000 0.17549800 7695.74900569 0 -10.25748276 0 1977.07240320 0 151.11977666 0 115.78987790 0 33633
0.17650000 0.17650100 7771.98989351 0 59.10809407 0 2066.85564250 0 -149.54926317 0 465.12265346 0 33984
0.17750000 0.17750300 7781.56159648 0 -44.09471715 0 1883.97289602 0 46.63205027 0 -22.04519579 0 34069
0.17850000 0.17849800 7782.87035772 0 -54.94978251 0 1689.44439274 0 259.59390105 0 72.60352978 0 34536
