### header ###
fiducial parameters:
Omega_m = 0.31
Omega_nu = 0
Omega_de = 0.69
Omega_k = 0
H_0 = 100
w_de = -1
zeff = 0
beta = 0
fgrowth = 0
b_1 = 2
gamma = 0.55
Lx = 3500 Ly = 3500 Lz = 3500
nx = 700 ny = 700 nz = 700
xoffset = 1379.75464 yoffset = 22.6059522 zoffset = 368.141391
bins = 400 dk = 0.001
kx_ny = 0.628318531 ky_ny = 0.628318531 kz_ny = 0.628318531
############################
A(data) = 3.33727878 (not used)
A(ran) = 3.33989156 (used)
Ngal = 187919
weighted Ngal = 0
Nran = 9399747
weighted Nran = 0
SN(data) = 6607.28267
SN(ran) = 132.845466
SN(data+ran) = 6740.12814
############################
13 columns: k_central k_mean P_0(k) sigma^{lin}_{P_0(k)} P^img_1(k) sigma^{lin}_{P_1(k)} P_2(k) sigma^{lin}_{P_2(k)} P^img_3(k) sigma^{lin}_{P_3(k)} P_4(k) sigma^{lin}_{P_4(k)} N_modes
### header ###
0.00050000 0 0 0 0 0 0 0 0 0 0 0 0
0.00150000 0.00179520 12503.21723170 0 -13270.61714855 0 4627.75756186 0 -22988.72391458 0 66731.07373474 0 3
0.00250000 0.00253879 26617.98537998 0 -16256.70010292 0 -15457.35753886 0 -8299.95305064 0 -21221.89624073 0 6
0.00350000 0.00331552 38269.06595015 0 -14335.48296755 0 -6025.86948436 0 -16560.70981127 0 13857.11964317 0 7
0.00450000 0.00420575 54980.39421597 0 -9325.85549476 0 389.13575405 0 -37317.88489987 0 -8211.12365428 0 24
0.00550000 0.00557378 68763.75739944 0 1435.11215552 0 35605.51500303 0 -40495.06917766 0 3400.64971390 0 45
0.00650000 0.00659388 69847.70007719 0 12564.32972689 0 46409.78268620 0 -5769.97338837 0 -24235.04171565 0 40
0.00750000 0.00754703 65832.90860587 0 10131.43131151 0 89454.16348241 0 -12160.94289388 0 9838.06915222 0 57
0.00850000 0.00846663 72689.26473532 0 -1951.91756852 0 67656.63412007 0 64733.21642845 0 31141.97370319 0 75
0.00950000 0.00948925 85846.19711515 0 -19688.20552673 0 64687.07704915 0 66179.84124641 0 52280.24231893 0 112
0.01050000 0.01054430 109800.18790014 0 -11761.10524390 0 28691.81738536 0 44689.64895150 0 30044.05611728 0 105
0.01150000 0.01145670 123191.03362360 0 -851.36471422 0 22615.83787318 0 18779.50376076 0 48346.08384942 0 144
0.01250000 0.01249090 120640.05832551 0 3617.28297269 0 12711.95355827 0 -2712.56294643 0 67788.28662784 0 169
0.01350000 0.01339930 116444.25852000 0 3504.91805641 0 20774.14461993 0 -6824.50221182 0 53340.67165915 0 180
0.01450000 0.01448870 110240.39750701 0 3590.03190179 0 31089.06869375 0 10227.98018094 0 44336.50524067 0 267
0.01550000 0.01550050 107017.51749780 0 1489.82503007 0 21471.66999600 0 12122.56735244 0 14596.23700780 0 238
0.01650000 0.01653350 104071.03011653 0 901.20411683 0 18616.13042971 0 6186.78056969 0 21494.62877369 0 315
0.01750000 0.01747870 99277.74753142 0 6690.12126959 0 32830.38661462 0 -10744.07575733 0 9770.82322513 0 297
0.01850000 0.01844180 84751.05232848 0 7550.07722497 0 19189.43439997 0 -4887.61321516 0 2796.15729783 0 388
0.01950000 0.01947590 82387.96190670 0 4675.18352001 0 30898.52193018 0 -2286.20624454 0 987.42597279 0 399
0.02050000 0.02045430 73746.14489252 0 1482.10555699 0 25045.58638863 0 3378.47841120 0 -11496.24746077 0 462
0.02150000 0.02154770 72724.20200571 0 1303.07145586 0 18610.47391927 0 4992.44720871 0 -13821.84963687 0 571
0.02250000 0.02255340 76094.26219843 0 -2149.24105343 0 4417.84556842 0 5856.49581577 0 -21056.19375832 0 510
0.02350000 0.02348930 69466.16290217 0 -710.44440228 0 12465.61807405 0 -8255.25552694 0 -30715.40626856 0 555
0.02450000 0.02439640 76239.55687845 0 3316.58953223 0 2867.46260301 0 -5886.45313872 0 -27430.63738037 0 592
0.02550000 0.02547300 67054.71486169 0 6067.26183137 0 19838.15850947 0 -14356.44532978 0 -27746.95831734 0 837
0.02650000 0.02652900 60971.63698346 0 4784.72018107 0 23907.62958174 0 -3176.20825246 0 -28271.12828511 0 723
0.02750000 0.02749970 59368.95902445 0 1939.46215435 0 32124.65375280 0 2743.69593626 0 -22010.81307966 0 826
0.02850000 0.02848090 58932.40951256 0 -487.22519074 0 32392.72798304 0 8542.63953107 0 -13913.79565958 0 831
0.02950000 0.02946900 57526.37847544 0 -37.12256892 0 27107.99446115 0 8985.48884281 0 -905.91232994 0 996
0.03050000 0.03053250 59407.44547786 0 -311.35097161 0 29144.67095675 0 4098.54109947 0 5753.08149542 0 1041
0.03150000 0.03150510 58153.14201498 0 3448.75223507 0 29373.37143783 0 883.93290494 0 5633.04147085 0 1036
0.03250000 0.03246190 57444.41452999 0 1942.04640324 0 31003.66647724 0 -2202.80044349 0 14862.31482259 0 1059
0.03350000 0.03345080 52927.96822070 0 1268.33382701 0 35361.28684623 0 482.48814052 0 5847.22357512 0 1302
0.03450000 0.03451200 51932.86603051 0 2371.59736985 0 35122.16064003 0 1720.73265934 0 12140.09144362 0 1339
0.03550000 0.03553350 50229.59091517 0 1210.13831663 0 38676.33470209 0 2020.18388574 0 1420.16122204 0 1365
0.03650000 0.03647120 48552.60193660 0 867.91167095 0 31188.44581840 0 2394.31214120 0 4770.23507785 0 1308
0.03750000 0.03744890 47139.36162146 0 1275.34346349 0 32159.92375910 0 2715.49102242 0 497.99141562 0 1579
0.03850000 0.03847530 44766.06729848 0 1517.54193124 0 28706.34685336 0 1204.77017730 0 -2967.71593222 0 1662
0.03950000 0.03950240 42683.80598342 0 1447.88921441 0 26645.60246038 0 2476.70864333 0 -1696.36529964 0 1683
0.04050000 0.04050350 41581.11918283 0 181.27785028 0 25690.53949117 0 3881.25346006 0 -4438.97429860 0 1822
0.04150000 0.04152450 43151.07811085 0 -1592.92879690 0 17428.81779641 0 5190.50271262 0 -635.15181180 0 1887
0.04250000 0.04250150 42356.06111360 0 -890.95695997 0 18181.02277343 0 2708.34829159 0 -7687.38624319 0 1920
0.04350000 0.04349210 43863.68751477 0 519.80336353 0 10070.87337617 0 610.22656489 0 -4682.49261880 0 2005
0.04450000 0.04448520 42293.17402690 0 1126.90997473 0 14427.87263813 0 -1676.23477718 0 -7900.95833163 0 2151
0.04550000 0.04548030 40855.53307847 0 1306.24353818 0 12153.73361586 0 -1839.49719626 0 -5260.11106466 0 2274
0.04650000 0.04648670 40784.99306588 0 483.43643786 0 17709.42507920 0 -611.36784906 0 -9812.82558797 0 2311
0.04750000 0.04749250 39071.51404935 0 507.34129464 0 15035.00475907 0 128.14879866 0 -9720.22518465 0 2568
0.04850000 0.04851840 39380.18206042 0 -123.19768834 0 17146.21409817 0 639.64929216 0 -5814.42690574 0 2493
0.04950000 0.04949480 39381.95665193 0 364.09848606 0 15804.95565122 0 224.31058532 0 -11271.42889863 0 2644
0.05050000 0.05050630 40560.28541571 0 -899.38294229 0 15990.62228813 0 1898.76855275 0 -4044.77097667 0 2829
0.05150000 0.05149060 40940.38073513 0 -716.23733445 0 12414.48765612 0 3190.11661343 0 -10690.01726341 0 2784
0.05250000 0.05249300 42335.98604712 0 -508.17757089 0 12009.65896750 0 2148.17629852 0 -2225.40430287 0 3055
0.05350000 0.05348950 41113.40340752 0 645.35238563 0 12465.39625011 0 193.46707573 0 -4442.37929607 0 3009
0.05450000 0.05448610 40113.08835476 0 1339.39512586 0 9929.89317176 0 -909.14430473 0 -1089.12559408 0 3336
0.05550000 0.05550870 40071.94001408 0 998.25098101 0 15021.25167486 0 2118.38534352 0 -533.95462172 0 3349
0.05650000 0.05647670 37112.69775633 0 1420.23886042 0 10106.60921273 0 359.29045218 0 1387.88583892 0 3324
0.05750000 0.05747970 35901.98269746 0 413.44987600 0 12661.59952412 0 2214.85657458 0 2356.81280432 0 3639
0.05850000 0.05849280 35277.88104518 0 764.31323674 0 9716.42090410 0 1454.00046393 0 2865.06690447 0 3846
0.05950000 0.05951020 33657.67899498 0 1020.34797269 0 10755.94333807 0 -282.24212522 0 4501.16263989 0 3787
0.06050000 0.06049470 32215.04700793 0 1421.84708397 0 13031.82367825 0 -2373.36087016 0 2501.75256603 0 3930
0.06150000 0.06148310 31829.29517807 0 514.66370287 0 11928.69322978 0 48.56092033 0 2175.36082224 0 4083
0.06250000 0.06249100 30314.12676297 0 316.56161594 0 12563.55334310 0 93.20853365 0 -28.36141063 0 4303
0.06350000 0.06350600 31203.86258216 0 -326.65682340 0 12542.14733299 0 1154.60469351 0 2346.75308868 0 4470
0.06450000 0.06451750 31127.66605913 0 -393.10862079 0 11248.02647307 0 2231.50446119 0 -700.24826492 0 4479
0.06550000 0.06550280 31614.23686924 0 -11.36526042 0 9955.17000960 0 1470.01615232 0 2788.14945363 0 4636
0.06650000 0.06648880 30929.91001754 0 142.67826666 0 8784.26125658 0 2282.84561187 0 4089.37977079 0 4653
0.06750000 0.06749660 31024.73975145 0 4.45985902 0 8488.13738926 0 1689.27802479 0 5547.80562230 0 5220
0.06850000 0.06852730 31258.65309508 0 38.34160238 0 6221.42946895 0 245.09327016 0 4268.20313919 0 5029
0.06950000 0.06949320 31425.24287325 0 749.33346614 0 8983.65879532 0 -324.16352233 0 3278.76855064 0 5040
0.07050000 0.07048030 29503.58209000 0 985.60036177 0 8596.03255317 0 -2587.14369134 0 4648.06554347 0 5475
0.07150000 0.07148790 28397.45701835 0 1313.35299543 0 10765.84777694 0 -1375.94061981 0 2512.46666229 0 5509
0.07250000 0.07249820 27830.91867824 0 814.07611008 0 11923.48036722 0 -574.17906569 0 2523.96823352 0 5916
0.07350000 0.07351270 25955.17545035 0 614.25821498 0 12920.57897286 0 1140.78506211 0 1989.10635189 0 5721
0.07450000 0.07449140 26372.09354364 0 82.72934895 0 11088.45742258 0 1414.11651970 0 1908.92808915 0 6028
0.07550000 0.07549160 25661.14781926 0 -107.26906584 0 11002.06808955 0 954.95205724 0 1116.01841932 0 6183
0.07650000 0.07648840 25858.57112493 0 240.01904756 0 9357.06612297 0 588.86935605 0 1222.16117412 0 6330
0.07750000 0.07749960 24964.17700303 0 539.50909315 0 9725.69314475 0 -983.23793682 0 150.06389471 0 6583
0.07850000 0.07848650 24301.81072128 0 463.34806195 0 8317.35513865 0 12.70430063 0 -1681.53636932 0 6549
0.07950000 0.07947320 24282.62295056 0 -533.53426536 0 8853.39268716 0 1040.20232435 0 -1914.76205875 0 6828
0.08050000 0.08048110 24993.45776297 0 -690.02218134 0 5845.89263148 0 1285.55845587 0 -4343.05762739 0 7147
0.08150000 0.08149960 25357.35993484 0 142.27232885 0 5483.88705429 0 750.33943770 0 -2664.67115801 0 7386
0.08250000 0.08250610 24629.77741504 0 378.01128351 0 3234.53685721 0 934.36790483 0 -3575.35824823 0 7227
0.08350000 0.08350160 24644.63961895 0 47.43205831 0 4371.09617328 0 782.39188776 0 -979.71093619 0 7798
0.08450000 0.08449610 24160.50887216 0 54.58676764 0 3660.47209361 0 1719.91191076 0 -277.85888419 0 7371
0.08550000 0.08548940 24225.72511022 0 298.93215839 0 3540.24351869 0 55.34706919 0 -198.70544805 0 8256
0.08650000 0.08650700 22903.76534596 0 789.77307933 0 3875.41949047 0 -519.36858861 0 761.27979437 0 8037
0.08750000 0.08749060 22462.66844333 0 1301.29686434 0 5843.80748646 0 -2444.91018168 0 580.06627303 0 8155
0.08850000 0.08849210 21159.34188994 0 773.74629974 0 6710.96162866 0 -1042.73444461 0 1678.60829333 0 8718
0.08950000 0.08949900 20490.32089002 0 246.43308675 0 7830.64014297 0 -142.10817914 0 126.51506535 0 8571
0.09050000 0.09049190 20377.96706494 0 190.93384634 0 8479.84117395 0 239.83493369 0 -696.69464542 0 8932
0.09150000 0.09150830 19661.36483011 0 592.88658759 0 8019.27922067 0 -961.60677541 0 -2541.58105428 0 9285
0.09250000 0.09250820 19517.73382963 0 448.30728977 0 8505.10692059 0 -130.39032956 0 -506.79338951 0 9204
0.09350000 0.09350330 18474.38493272 0 -1.83283139 0 8396.37991691 0 201.46271961 0 -1367.74422526 0 9349
0.09450000 0.09448040 19030.71937164 0 -185.39490259 0 7871.99921639 0 1427.91396871 0 -1321.79339630 0 9564
0.09550000 0.09549270 18960.84483086 0 -48.54694543 0 6468.74097851 0 602.60580347 0 -2745.24870384 0 10155
0.09650000 0.09649430 18816.77018251 0 245.75097814 0 5595.88596107 0 412.76776739 0 -2187.92714839 0 9913
0.09750000 0.09749140 18183.68466070 0 319.46972778 0 6033.13421836 0 -3.49913954 0 -928.24334587 0 10476
0.09850000 0.09850240 18163.27685832 0 251.50952760 0 5495.32207835 0 -110.48884032 0 -3250.90746390 0 10575
0.09950000 0.09950330 17692.23372393 0 384.07705912 0 5748.37882792 0 393.21176893 0 -1885.17074529 0 10882
0.10050000 0.10051200 16929.27028586 0 408.33461597 0 5646.82782866 0 -296.46880355 0 -2339.29980433 0 10875
0.10150000 0.10150300 16491.27891837 0 250.49135572 0 5810.57826040 0 333.36256107 0 -807.64543409 0 11118
0.10250000 0.10250800 16839.87523846 0 -409.87629234 0 4690.92192848 0 1926.95128419 0 -712.78575395 0 11575
0.10350000 0.10349800 16913.40987422 0 -237.82299056 0 4017.68627372 0 1215.02953448 0 -839.55369859 0 11364
0.10450000 0.10450100 17068.24298362 0 300.35959544 0 3846.37164566 0 -273.57990040 0 -172.16310463 0 12093
0.10550000 0.10551000 16522.77791771 0 401.17303010 0 3748.74693012 0 -449.56946798 0 244.87144622 0 12067
0.10650000 0.10649700 16204.57147726 0 439.86577977 0 5042.33541259 0 -967.59713088 0 937.41022015 0 12054
0.10750000 0.10749900 15742.84494831 0 101.72524196 0 4693.19562385 0 215.71379857 0 -329.27878236 0 12807
0.10850000 0.10850100 15650.67710167 0 179.69291824 0 5166.88955431 0 499.06726172 0 519.22662129 0 12736
0.10950000 0.10950300 15280.56385951 0 498.54819370 0 5272.23374293 0 -414.07874686 0 239.87042552 0 12933
0.11050000 0.11050200 15042.54677300 0 168.79470812 0 5663.94154555 0 393.01878210 0 799.30041751 0 13428
0.11150000 0.11150900 14575.16373360 0 178.74129354 0 5397.71954520 0 230.38079741 0 1028.61756913 0 13453
0.11250000 0.11250000 14574.83099769 0 35.19125880 0 5016.62601806 0 445.78182422 0 1253.21652557 0 13668
0.11350000 0.11349100 14622.19040866 0 -142.71597673 0 5225.52871258 0 304.15167567 0 1103.38110952 0 13791
0.11450000 0.11448600 14332.15560846 0 75.13088083 0 3671.72965851 0 234.06972951 0 270.21150389 0 14205
0.11550000 0.11549300 14440.73842659 0 176.88462717 0 4862.28092133 0 -260.89046198 0 377.75174950 0 14776
0.11650000 0.11649800 14362.43457613 0 -6.59548009 0 3709.65046088 0 51.58060962 0 -457.31555993 0 14553
0.11750000 0.11747300 14257.73367694 0 -165.66809970 0 4072.60988101 0 791.39017585 0 205.05183094 0 14568
0.11850000 0.11849100 14342.69224556 0 -41.30783209 0 3217.97770016 0 424.14400810 0 -736.52313366 0 16015
0.11950000 0.11950300 14593.13147265 0 27.76182052 0 2643.15423593 0 97.21256666 0 -379.75260143 0 15270
0.12050000 0.12050700 14128.29940855 0 141.17762771 0 3168.83260649 0 -2.33483005 0 -533.57530279 0 15999
0.12150000 0.12150000 14168.11680560 0 235.27201526 0 2924.33826096 0 -19.20418569 0 407.23880571 0 15670
0.12250000 0.12250700 14184.86451299 0 6.28451620 0 2931.15934708 0 122.49228822 0 -331.22639654 0 16887
0.12350000 0.12352200 13932.31795848 0 257.49988307 0 3200.98598644 0 -76.68320476 0 143.77962252 0 16407
0.12450000 0.12449800 13709.82854770 0 348.26469329 0 3557.93397782 0 -637.24139330 0 -337.47074042 0 16306
0.12550000 0.12549900 13162.81071421 0 422.80640974 0 3880.46598508 0 -728.16369852 0 -561.54397413 0 17523
0.12650000 0.12650100 12910.26415970 0 129.92560841 0 4556.11952077 0 5.94642324 0 -244.46218106 0 17154
0.12750000 0.12750600 12783.26995464 0 -20.96580050 0 4216.83980612 0 775.90353755 0 -82.89272228 0 18007
0.12850000 0.12850300 12780.27533147 0 26.17500297 0 3714.83004985 0 527.81675333 0 38.44497233 0 17496
0.12950000 0.12949900 12682.00732651 0 140.09623601 0 3678.31782950 0 420.90205123 0 413.16039576 0 18405
0.13050000 0.13049000 12268.97115215 0 220.60834378 0 3509.42108237 0 -7.25337662 0 886.79665200 0 18100
0.13150000 0.13148800 12105.26508520 0 204.96642872 0 3979.90965692 0 17.24426028 0 1506.24000155 0 19059
0.13250000 0.13249300 12134.43493317 0 77.34279824 0 3650.44565157 0 271.27625880 0 1076.46942925 0 18957
0.13350000 0.13349100 11915.93835329 0 113.14684567 0 3868.35439801 0 -51.37797345 0 1436.96438541 0 19468
0.13450000 0.13450700 11826.21056998 0 117.47241248 0 3760.68105804 0 151.71759217 0 1420.41631957 0 19953
0.13550000 0.13551000 11474.28689081 0 130.58442551 0 3390.96709896 0 106.73890663 0 1353.88022908 0 19956
0.13650000 0.13649900 11760.10703617 0 96.16955050 0 3723.98028734 0 189.22580201 0 1517.34228970 0 19723
0.13750000 0.13749600 11122.47412362 0 173.94324174 0 3384.57856952 0 23.94988704 0 904.26972367 0 20946
0.13850000 0.13851100 11195.67602347 0 184.89801696 0 3222.61382049 0 146.02226254 0 1617.12978864 0 20955
0.13950000 0.13949800 10926.58140312 0 73.72573709 0 2984.10872131 0 128.61906541 0 1275.36564588 0 20506
0.14050000 0.14048300 10835.24539625 0 88.74809788 0 3021.19768391 0 168.40873446 0 1159.60682333 0 21447
0.14150000 0.14148400 10652.90611842 0 114.27038392 0 3324.37555249 0 -117.45688480 0 166.05407335 0 21771
0.14250000 0.14249400 10539.48753843 0 66.08434604 0 2596.85957987 0 -216.10199046 0 638.03330476 0 22470
0.14350000 0.14350900 10564.49818755 0 36.05260115 0 3094.35521898 0 42.83741906 0 163.13597943 0 22519
0.14450000 0.14449900 10357.10389581 0 53.63702844 0 3065.15209741 0 -265.20050111 0 115.34290266 0 22218
0.14550000 0.14550500 10725.85292075 0 51.25353022 0 3212.80920239 0 98.88245727 0 -294.70197587 0 23559
0.14650000 0.14650700 10355.99477612 0 108.01572522 0 3398.15419459 0 -68.75421897 0 -339.38286278 0 23044
0.14750000 0.14750500 10451.31252269 0 60.37215779 0 2928.15363271 0 -5.71674673 0 182.67534110 0 23649
0.14850000 0.14849900 10399.72736568 0 -40.45602816 0 3468.87166633 0 265.77058863 0 -43.22283816 0 23640
0.14950000 0.14949500 10429.05249041 0 15.41487825 0 3347.41196855 0 160.58167678 0 262.12713043 0 24457
0.15050000 0.15050000 10608.17532113 0 76.70915816 0 3114.08645835 0 -0.22248276 0 -32.57251629 0 24591
0.15150000 0.15149900 10229.15584782 0 182.14629100 0 3369.45017689 0 -356.06513211 0 67.44201946 0 25020
0.15250000 0.15250500 10159.46985739 0 177.85732514 0 3187.34381419 0 -112.36380716 0 -375.18081005 0 25297
0.15350000 0.15350100 10082.09766748 0 -16.57213374 0 3441.04385319 0 232.22969994 0 -34.10188143 0 25452
0.15450000 0.15450400 9919.38980825 0 19.54390905 0 3107.38737539 0 386.60141555 0 -433.07020340 0 26061
0.15550000 0.15549900 10077.13990244 0 55.08986433 0 2761.05365949 0 261.63800865 0 -274.02687564 0 26128
0.15650000 0.15649500 9736.73997691 0 95.86032793 0 2775.45003313 0 145.94462416 0 -317.91585108 0 26331
0.15750000 0.15749700 9702.25744559 0 155.79582529 0 2596.17192566 0 86.01145595 0 -137.80812208 0 27345
0.15850000 0.15849900 9381.95476893 0 215.28346012 0 2716.62232451 0 -198.00448440 0 175.86645529 0 26980
0.15950000 0.15949700 9213.04693060 0 152.71912726 0 2784.46717625 0 110.07558232 0 19.84226225 0 27777
0.16050000 0.16050000 8994.19543242 0 107.43199553 0 2635.78968115 0 326.86533790 0 475.51288676 0 28224
0.16150000 0.16150500 8916.69014814 0 55.03285558 0 2562.46577813 0 267.57512638 0 404.82647037 0 28075
0.16250000 0.16249700 8926.41712787 0 -4.21688417 0 2482.53152172 0 195.08639048 0 677.67878825 0 28590
0.16350000 0.16349900 8815.12805769 0 -17.54283530 0 2215.47768160 0 308.72235793 0 715.02173926 0 29163
0.16450000 0.16449100 8959.69071871 0 27.07039530 0 2190.84413318 0 -194.22238624 0 430.69003253 0 28996
0.16550000 0.16550500 8923.64432863 0 166.55983193 0 2226.24723384 0 -326.23868527 0 361.35230569 0 30777
0.16650000 0.16650700 8689.52025225 0 130.29716351 0 2447.53879535 0 -294.79070545 0 -25.39351724 0 29211
0.16750000 0.16749900 8560.30780780 0 92.31857601 0 2788.64855749 0 -195.08639048 0 128.25083767 0 30922
0.16850000 0.16850800 8518.62708967 0 66.66142102 0 2637.66409344 0 28.44448369 0 -574.64933244 0 30867
0.16950000 0.16949900 8635.49503192 0 35.51245986 0 2771.88975891 0 9.61025597 0 -430.45489916 0 30852
0.17050000 0.17049200 8437.94972307 0 75.21994314 0 2914.36727490 0 51.92654405 0 -247.02979315 0 31257
0.17150000 0.17149500 8455.09671355 0 11.07071151 0 2543.37782818 0 377.54323500 0 -164.63550926 0 32608
0.17250000 0.17250900 8442.74112015 0 -49.44433417 0 2507.07634057 0 532.90650361 0 125.94165047 0 32361
0.17350000 0.17350400 8355.94141284 0 128.86528998 0 2252.63319138 0 -36.02842234 0 5.02935871 0 32508
0.17450000 0.17449800 8224.17799309 0 245.75208726 0 2381.20234640 0 -189.00065072 0 675.08233905 0 32791
0.17550000 0.17549800 7893.11685538 0 161.66861408 0 2502.04093716 0 -63.64062262 0 291.18384820 0 33633
0.17650000 0.17650100 7895.87856342 0 104.95022930 0 2419.11205757 0 75.89051691 0 621.46749300 0 33984
0.17750000 0.17750300 7522.78178928 0 85.18150168 0 2472.41635011 0 229.96709576 0 259.24341923 0 34069
0.17850000 0.17849800 7658.97059661 0 104.06215716 0 2307.72316662 0 -10.73274055 0 735.09236926 0 34536
