### header ###
fiducial parameters:
Omega_m = 0.31
Omega_nu = 0
Omega_de = 0.69
Omega_k = 0
H_0 = 100
w_de = -1
zeff = 0
beta = 0
fgrowth = 0
b_1 = 2
gamma = 0.55
Lx = 3500 Ly = 3500 Lz = 3500
nx = 700 ny = 700 nz = 700
xoffset = 1379.75464 yoffset = 22.6059522 zoffset = 368.141391
bins = 400 dk = 0.001
kx_ny = 0.628318531 ky_ny = 0.628318531 kz_ny = 0.628318531
############################
A(data) = 3.3455596 (not used)
A(ran) = 3.34018492 (used)
Ngal = 187937
weighted Ngal = 0
Nran = 9399747
weighted Nran = 0
SN(data) = 6646.27719
SN(ran) = 132.857134
SN(data+ran) = 6779.13432
############################
13 columns: k_central k_mean P_0(k) sigma^{lin}_{P_0(k)} P^img_1(k) sigma^{lin}_{P_1(k)} P_2(k) sigma^{lin}_{P_2(k)} P^img_3(k) sigma^{lin}_{P_3(k)} P_4(k) sigma^{lin}_{P_4(k)} N_modes
### header ###
0.00050000 0 0 0 0 0 0 0 0 0 0 0 0
0.00150000 0.00179520 16792.84856340 0 -24200.54809314 0 -19258.97620483 0 -5312.67224700 0 -39275.14842532 0 3
0.00250000 0.00253879 34810.05435791 0 -23769.87691564 0 -25244.22972597 0 -9432.54171821 0 -9136.95022834 0 6
0.00350000 0.00331552 56047.70009830 0 -24584.41441952 0 -42599.51288661 0 -4255.71445143 0 26350.35479762 0 7
0.00450000 0.00420575 74238.15038914 0 -19856.34807246 0 -53064.83359105 0 -26413.68553219 0 2161.33045810 0 24
0.00550000 0.00557378 96680.30011811 0 -2751.73705405 0 -49915.71004154 0 -50740.11871070 0 -13679.88231594 0 45
0.00650000 0.00659388 84612.30145466 0 8219.65278474 0 -26256.30144750 0 -27509.16305477 0 -45292.45550564 0 40
0.00750000 0.00754703 67982.16075050 0 16305.16863358 0 -119.00743413 0 -43365.24912392 0 2757.03864619 0 57
0.00850000 0.00846663 61168.06208142 0 9378.61631864 0 18184.23922055 0 -745.68446234 0 -18075.76731440 0 75
0.00950000 0.00948925 59788.76082894 0 -4381.89899911 0 11352.28372438 0 31298.91414001 0 11646.20044351 0 112
0.01050000 0.01054430 63124.21648718 0 -10124.17766870 0 -1392.67723600 0 22740.72475082 0 -8797.06049786 0 105
0.01150000 0.01145670 76439.86389533 0 -7391.76147973 0 -10617.55847375 0 3728.71622843 0 20234.44697643 0 144
0.01250000 0.01249090 72477.31196164 0 6570.90199360 0 -1565.27844291 0 -19458.95048581 0 202.41101695 0 169
0.01350000 0.01339930 67431.48282202 0 10639.49686131 0 -85.36151181 0 -23015.01005135 0 18885.42469162 0 180
0.01450000 0.01448870 58738.86812582 0 5463.05778642 0 35633.68664328 0 -10411.52839924 0 13813.42032719 0 267
0.01550000 0.01550050 60010.03020805 0 4432.28630684 0 41104.08680208 0 6346.87090644 0 7167.47529505 0 238
0.01650000 0.01653350 56027.95776773 0 -2085.67740372 0 42072.57011960 0 20323.06564005 0 27014.82840679 0 315
0.01750000 0.01747870 57605.12597377 0 -5798.78831805 0 36515.99136051 0 19698.29851595 0 20927.86860963 0 297
0.01850000 0.01844180 71972.66250050 0 -6649.50530637 0 31199.98066323 0 15608.30872933 0 27843.22990685 0 388
0.01950000 0.01947590 74411.06214956 0 -3482.90203047 0 27422.65171857 0 6784.16352852 0 19949.62503880 0 399
0.02050000 0.02045430 81978.36400340 0 993.44183801 0 25689.87401935 0 -10113.17520133 0 33704.81658201 0 462
0.02150000 0.02154770 77567.94953694 0 3235.10250825 0 36324.77912512 0 -8007.73328465 0 21649.24005914 0 571
0.02250000 0.02255340 77195.61805539 0 3538.59093035 0 38014.96662806 0 2430.41398726 0 14644.92736240 0 510
0.02350000 0.02348930 75482.47177476 0 -979.78302897 0 41776.10242518 0 9402.45130089 0 11405.96511761 0 555
0.02450000 0.02439640 72023.68200646 0 5579.69281353 0 41417.19129193 0 3705.08088774 0 15405.67256108 0 592
0.02550000 0.02547300 69752.20487146 0 3233.73829103 0 40897.23597900 0 2384.79589422 0 16925.49927890 0 837
0.02650000 0.02652900 61088.64911127 0 4741.69742811 0 35711.21410995 0 4147.06508612 0 6681.68086871 0 723
0.02750000 0.02749970 61759.33379073 0 2920.03487654 0 32908.13590522 0 6948.49070250 0 15663.09924225 0 826
0.02850000 0.02848090 50415.36846405 0 1316.95763444 0 23383.79234988 0 3010.15085175 0 1971.04988326 0 831
0.02950000 0.02946900 52806.07596624 0 226.62309988 0 25083.18554628 0 8834.39346679 0 -1716.22963337 0 996
0.03050000 0.03053250 49273.64065020 0 1382.16278129 0 16148.45002070 0 -579.94316075 0 -5548.64855327 0 1041
0.03150000 0.03150510 45220.80637335 0 2986.30477831 0 8655.05990333 0 -1081.81649529 0 -14367.42561476 0 1036
0.03250000 0.03246190 42334.54419152 0 981.46667267 0 10983.32396670 0 -3318.70795085 0 -8959.69071871 0 1059
0.03350000 0.03345080 40687.72326865 0 850.92883018 0 8419.62706571 0 -1334.28208407 0 -25202.30500151 0 1302
0.03450000 0.03451200 43389.98249311 0 -1016.38619714 0 10092.93376690 0 1334.48172561 0 -20814.07292894 0 1339
0.03550000 0.03553350 42086.54502776 0 -1154.46050795 0 2006.90772299 0 -1391.70121067 0 -27053.86942004 0 1365
0.03650000 0.03647120 45480.67311785 0 -1265.98249326 0 7978.36379513 0 -997.97148285 0 -18692.77060063 0 1308
0.03750000 0.03744890 44313.99011087 0 287.13888867 0 3983.78048465 0 31.90027884 0 -20307.31614038 0 1579
0.03850000 0.03847530 46979.09382556 0 -91.71244209 0 11430.47666287 0 3754.46998775 0 -11519.53897436 0 1662
0.03950000 0.03950240 45943.50876650 0 -132.80599226 0 4730.27349525 0 1008.58243097 0 -7086.88665802 0 1683
0.04050000 0.04050350 46205.92648630 0 556.96330979 0 9849.50417628 0 2933.63268400 0 -3968.76300398 0 1822
0.04150000 0.04152450 45912.23159111 0 -164.66656461 0 7390.56363046 0 1954.15799031 0 9304.64912620 0 1887
0.04250000 0.04250150 45316.41249105 0 -485.40623444 0 5334.56626978 0 7072.37937241 0 4432.72995472 0 1920
0.04350000 0.04349210 47387.69352113 0 -1051.73716917 0 6476.85973467 0 1257.00971493 0 14955.03722907 0 2005
0.04450000 0.04448520 46978.98291359 0 694.60506392 0 506.70244170 0 810.62674783 0 3080.15848688 0 2151
0.04550000 0.04548030 46641.47779045 0 1710.08511026 0 7861.38494092 0 -5614.19752724 0 10603.10664412 0 2274
0.04650000 0.04648670 42271.76801679 0 2606.47564762 0 7078.95645220 0 -6940.53831429 0 1061.21459696 0 2311
0.04750000 0.04749250 41900.76747887 0 1260.85836027 0 11403.74687822 0 -136.37957591 0 112.59339494 0 2568
0.04850000 0.04851840 40224.66579606 0 162.41505163 0 13025.16896008 0 282.94863447 0 -3146.31747668 0 2493
0.04950000 0.04949480 40555.84893693 0 46.51004711 0 10973.37516304 0 2125.77208069 0 -5008.62926506 0 2644
0.05050000 0.05050630 38409.81323942 0 1157.66586386 0 10521.37561381 0 -12.24811970 0 -1419.38483825 0 2829
0.05150000 0.05149060 37326.42512152 0 1809.46223492 0 10316.28829104 0 -621.92112296 0 -2220.80145614 0 2784
0.05250000 0.05249300 36129.35223490 0 708.68312020 0 11474.06506688 0 2879.24145417 0 1185.40494743 0 3055
0.05350000 0.05348950 34180.85075503 0 1008.72661653 0 12573.09177247 0 -1012.20148853 0 99.42370768 0 3009
0.05450000 0.05448610 33972.89081225 0 689.92457881 0 13277.82642656 0 1469.16213016 0 6467.06620777 0 3336
0.05550000 0.05550870 32572.95993345 0 365.10667586 0 15491.51842546 0 -199.12469529 0 5868.68504121 0 3349
0.05650000 0.05647670 33000.85831171 0 342.66585707 0 13090.16337420 0 1049.65313326 0 7411.61472227 0 3324
0.05750000 0.05747970 33220.90765916 0 -110.74637791 0 16911.30254680 0 2308.08917612 0 7595.69531802 0 3639
0.05850000 0.05849280 32167.02212514 0 671.92578440 0 12699.19868178 0 -306.28562196 0 7902.36691364 0 3846
0.05950000 0.05951020 32605.56805248 0 664.57232082 0 17077.55958906 0 1866.37116646 0 13648.71605251 0 3787
0.06050000 0.06049470 31744.22569748 0 -13.81342033 0 12532.49799164 0 1840.22921526 0 8995.29346092 0 3930
0.06150000 0.06148310 31436.55589413 0 -446.40071301 0 14665.33516479 0 3372.74426238 0 15462.12675355 0 4083
0.06250000 0.06249100 31771.95368985 0 272.66820401 0 12854.25361511 0 1298.72370665 0 10921.56818210 0 4303
0.06350000 0.06350600 31375.11066304 0 783.38676813 0 12660.60131640 0 -2037.31978503 0 11792.49333126 0 4470
0.06450000 0.06451750 29873.14077231 0 1248.22548695 0 15545.75437854 0 -1367.33385097 0 8941.37915255 0 4479
0.06550000 0.06550280 29045.51565604 0 905.69494248 0 14309.41865472 0 -2756.57281592 0 6073.97200553 0 4636
0.06650000 0.06648880 28133.37561901 0 268.75190237 0 17900.19366671 0 -275.71828318 0 4321.16360462 0 4653
0.06750000 0.06749660 28348.54483981 0 226.23601711 0 16086.11749385 0 -445.03316843 0 1144.97753456 0 5220
0.06850000 0.06852730 28225.87620156 0 -48.19790546 0 15936.27542308 0 2013.67335313 0 2260.91831550 0 5029
0.06950000 0.06949320 28274.34473223 0 -300.28972089 0 14575.16373360 0 1395.46112643 0 -191.15567028 0 5040
0.07050000 0.07048030 28611.40620748 0 -65.01715107 0 14386.50247351 0 1750.25742561 0 597.11455186 0 5475
0.07150000 0.07148790 28714.44342713 0 -114.21714617 0 12588.06488835 0 1058.75235124 0 2145.74732639 0 5509
0.07250000 0.07249820 27678.08198429 0 151.95938027 0 11082.85636812 0 1167.67012351 0 499.04286109 0 5916
0.07350000 0.07351270 28467.33155912 0 493.20889149 0 10196.11517211 0 520.34572307 0 2564.58419675 0 5721
0.07450000 0.07449140 27126.84949596 0 619.14721460 0 10023.28105006 0 218.59418241 0 -270.35901681 0 6028
0.07550000 0.07549160 25896.83575440 0 924.97366101 0 11554.03259687 0 -397.89114492 0 1877.01871553 0 6183
0.07650000 0.07648840 24975.93367179 0 1233.71820134 0 10344.06064820 0 -252.95581968 0 -474.01668429 0 6330
0.07750000 0.07749960 22973.86171067 0 491.66277864 0 11309.69352810 0 753.65237823 0 3006.29111521 0 6583
0.07850000 0.07848650 23205.11316704 0 76.71204187 0 10501.94383676 0 682.61658914 0 918.75039040 0 6549
0.07950000 0.07947320 23152.09724563 0 -22.10708467 0 10525.26862394 0 1463.69417006 0 3145.85164641 0 6828
0.08050000 0.08048110 23069.68965230 0 199.08033050 0 9834.59760758 0 477.93520417 0 1946.31651406 0 7147
0.08150000 0.08149960 22730.85358553 0 49.49147176 0 9469.50867764 0 -393.54561395 0 2082.82696610 0 7386
0.08250000 0.08250610 22689.15068501 0 398.30595568 0 10060.18146231 0 37.58828828 0 1995.57251971 0 7227
0.08350000 0.08350160 22460.33929197 0 140.78610846 0 9725.72641834 0 458.93154732 0 1945.21848557 0 7798
0.08450000 0.08449610 22088.22963435 0 34.56649167 0 9121.18963748 0 1311.26785040 0 3737.12335572 0 7371
0.08550000 0.08548940 22203.91081852 0 -169.65427588 0 7960.78424797 0 1865.35077634 0 2214.86766577 0 8256
0.08650000 0.08650700 22196.59062854 0 80.75777778 0 7757.89298219 0 685.88627400 0 3435.17661000 0 8037
0.08750000 0.08749060 21562.61781098 0 577.13376056 0 7258.87784910 0 -123.62026295 0 2478.41668766 0 8155
0.08850000 0.08849210 20894.26228288 0 521.92510951 0 7125.22892587 0 -217.96309331 0 3597.11917664 0 8718
0.08950000 0.08949900 20556.97898368 0 238.14352615 0 7142.39809875 0 -331.05115563 0 1184.32910133 0 8571
0.09050000 0.09049190 19736.34132148 0 543.35552025 0 7449.32479190 0 -730.64369016 0 802.27507653 0 8932
0.09150000 0.09150830 19322.08511547 0 504.22245006 0 7289.50064387 0 -194.54514007 0 89.45593807 0 9285
0.09250000 0.09250820 18823.42490068 0 78.39036179 0 7142.64210508 0 632.40674055 0 -990.87089856 0 9204
0.09350000 0.09350330 18972.26876372 0 -115.55474452 0 6221.46274255 0 898.41135344 0 -320.08972569 0 9349
0.09450000 0.09448040 18411.27602208 0 173.17905827 0 5215.25826421 0 344.68112756 0 -2542.05797574 0 9564
0.09550000 0.09549270 18496.78915055 0 5.76463852 0 5007.87506367 0 540.66590499 0 -612.21521651 0 10155
0.09650000 0.09649430 18370.01676943 0 155.54849160 0 4296.29714106 0 -41.44824664 0 -2779.33195206 0 9913
0.09750000 0.09749140 17923.37426833 0 707.01278594 0 4917.77017966 0 -711.70436225 0 -1672.76323253 0 10476
0.09850000 0.09850240 16809.59627079 0 396.59680224 0 5034.47175395 0 -536.85940620 0 -2824.91677152 0 10575
0.09950000 0.09950330 16490.28071065 0 235.39401843 0 5476.00121326 0 447.75272992 0 -1841.99271557 0 10882
0.10050000 0.10051200 16662.19426335 0 85.64045541 0 5484.14215182 0 151.39372922 0 -2929.78403866 0 10875
0.10150000 0.10150300 16100.53604989 0 397.61275588 0 5029.85781602 0 -304.26813324 0 -2676.32800600 0 11118
0.10250000 0.10250800 15623.72549308 0 223.34565119 0 5653.51582042 0 -253.25195464 0 -2191.49851380 0 11575
0.10350000 0.10349800 15447.26454964 0 257.45662740 0 5067.65661522 0 -21.86141466 0 -3042.52605564 0 11364
0.10450000 0.10450100 15261.93064863 0 146.20193993 0 5507.65548935 0 342.58600046 0 -2318.84763716 0 12093
0.10550000 0.10551000 14989.08720371 0 150.55967121 0 5143.56476713 0 82.98843931 0 -2806.62738775 0 12067
0.10650000 0.10649700 15062.84366341 0 -49.08464665 0 4685.12123247 0 478.38883413 0 -2141.97631943 0 12054
0.10750000 0.10749900 14754.06474037 0 41.25692350 0 4800.96878460 0 167.36727107 0 -3003.09685049 0 12807
0.10850000 0.10850100 14835.58503794 0 -8.79082725 0 3834.28224099 0 327.84247235 0 -2629.15714538 0 12736
0.10950000 0.10950300 15109.87033847 0 -67.67304909 0 3843.31047530 0 420.65249930 0 -2603.14828854 0 12933
0.11050000 0.11050200 14932.96574715 0 72.38303679 0 3670.05488777 0 58.22135288 0 -3284.73561459 0 13428
0.11150000 0.11150900 14732.10417042 0 265.45670776 0 4159.11012601 0 -416.78056244 0 -2068.96296992 0 13453
0.11250000 0.11250000 14604.55540551 0 235.42951026 0 3875.81877356 0 -296.83148569 0 -2939.64411275 0 13668
0.11350000 0.11349100 14297.99472186 0 205.66850149 0 4990.07369257 0 73.23029332 0 -1636.87211921 0 13791
0.11450000 0.11448600 14221.35455095 0 83.95370618 0 4588.30617431 0 254.29674539 0 -1929.13624999 0 14205
0.11550000 0.11549300 13995.31595715 0 51.41379801 0 4414.29638539 0 621.69042606 0 -212.61935462 0 14776
0.11650000 0.11649800 14068.62876897 0 48.15365158 0 4532.15144416 0 788.16707401 0 -46.59567115 0 14553
0.11750000 0.11747300 14045.66999129 0 50.18988443 0 4175.52509749 0 21.84377965 0 373.60253272 0 14568
0.11850000 0.11849100 13992.09951003 0 165.42963896 0 4538.52888241 0 309.64736376 0 836.78755408 0 16015
0.11950000 0.11950300 13703.50656544 0 153.99239667 0 4495.57267663 0 -459.04356841 0 1205.70183785 0 15270
0.12050000 0.12050700 13566.19754722 0 244.19488321 0 4722.96439646 0 -199.52065102 0 1020.07734748 0 15999
0.12150000 0.12150000 13725.13439949 0 -122.33812058 0 4584.05824588 0 178.94758980 0 455.11950293 0 15670
0.12250000 0.12250700 13473.80787664 0 37.97004728 0 4823.14008730 0 -247.99694552 0 24.62822465 0 16887
0.12350000 0.12352200 13597.47472261 0 57.53014948 0 4751.31349586 0 22.46655036 0 -668.63724450 0 16407
0.12450000 0.12449800 13508.30149915 0 139.25441416 0 4765.27731282 0 -263.54236717 0 -877.65972395 0 16306
0.12550000 0.12549900 13294.13048608 0 185.44370385 0 4694.46002030 0 -411.55439044 0 -1625.49255114 0 17523
0.12650000 0.12650100 13245.44013148 0 130.56778871 0 4803.66394546 0 417.43383394 0 -1314.65066547 0 17154
0.12750000 0.12750600 12898.06384306 0 -104.47042412 0 4249.35919558 0 271.15203739 0 -1878.16110882 0 18007
0.12850000 0.12850300 13129.20438746 0 59.88248144 0 4205.63769721 0 452.48978014 0 -1259.01722158 0 17496
0.12950000 0.12949900 12890.30000519 0 194.21462240 0 3585.28486950 0 351.27040767 0 -1403.73515936 0 18405
0.13050000 0.13049000 12555.12403342 0 244.15051842 0 3693.67913727 0 134.49739979 0 -1117.65991647 0 18100
0.13150000 0.13148800 12361.58264667 0 210.63624860 0 3707.45440388 0 40.55440708 0 -374.82145527 0 19059
0.13250000 0.13249300 12072.98970208 0 23.17084137 0 3374.56321868 0 475.79682140 0 -529.53588886 0 18957
0.13350000 0.13349100 12206.74953727 0 -56.70385531 0 3312.39705978 0 268.99923606 0 -381.50722879 0 19468
0.13450000 0.13450700 12191.66550943 0 49.82642591 0 3217.36768433 0 -35.51711816 0 -664.61890385 0 19953
0.13550000 0.13551000 12088.73920175 0 141.96843006 0 3285.22362726 0 57.97490648 0 -327.08938008 0 19956
0.13650000 0.13649900 11979.37999984 0 119.15161970 0 3407.75917114 0 -435.63670637 0 -479.64324850 0 19723
0.13750000 0.13749600 11963.40867623 0 83.17100041 0 3191.68047220 0 288.22582597 0 -660.17355211 0 20946
0.13850000 0.13851100 11720.95511094 0 96.06152224 0 3446.93327877 0 115.01016675 0 -801.49314715 0 20955
0.13950000 0.13949800 11581.87150121 0 155.04938774 0 2981.32483088 0 -122.08635041 0 -817.76947867 0 20506
0.14050000 0.14048300 11429.14571923 0 102.11110470 0 3201.93982938 0 368.17117358 0 -450.21164828 0 21447
0.14150000 0.14148400 11190.46316091 0 86.83686283 0 2547.19319993 0 204.94979193 0 -1145.29917927 0 21771
0.14250000 0.14249400 11138.55635919 0 236.36782552 0 2777.35771900 0 -157.60590863 0 -700.13069824 0 22470
0.14350000 0.14350900 10831.88476357 0 162.91193725 0 2720.58188182 0 -147.11807280 0 -1053.58828994 0 22519
0.14450000 0.14449900 10657.91933944 0 171.19927961 0 3015.48571748 0 -260.56770814 0 -1078.69654159 0 22218
0.14550000 0.14550500 10481.99077345 0 214.94628774 0 3347.02377666 0 -197.80040637 0 -1656.17080190 0 23559
0.14650000 0.14650700 10145.32858128 0 228.46978418 0 3478.19936296 0 -610.10012525 0 -1734.07536926 0 23044
0.14750000 0.14750500 10123.09073140 0 126.88107485 0 3813.36424354 0 152.76903765 0 -1131.59045984 0 23649
0.14850000 0.14849900 10131.77513861 0 -106.53893235 0 3541.76301267 0 505.92938527 0 -1652.98762838 0 23640
0.14950000 0.14949500 10106.20992964 0 -13.78924152 0 3403.23396279 0 295.74676662 0 -1052.19856296 0 24457
0.15050000 0.15050000 10086.41214309 0 211.63223809 0 3568.44843253 0 181.36657986 0 -642.97997860 0 24591
0.15150000 0.15149900 9800.92473365 0 162.72671427 0 3425.70472781 0 285.26780375 0 309.64736376 0 25020
0.15250000 0.15250500 9723.60799972 0 -8.23166455 0 3133.21877309 0 434.88472322 0 125.81964730 0 25297
0.15350000 0.15350100 9505.74361807 0 145.87696786 0 3299.06544105 0 124.76265623 0 217.56935582 0 25452
0.15450000 0.15450400 9538.36282829 0 96.78089727 0 3124.54545707 0 198.08877750 0 1069.66387080 0 26061
0.15550000 0.15549900 9332.47693934 0 14.48343953 0 3024.71359334 0 40.78332939 0 413.95119810 0 26128
0.15650000 0.15649500 9339.58639658 0 87.24901171 0 2741.36678490 0 68.71506704 0 651.22850177 0 26331
0.15750000 0.15749700 9307.66593177 0 99.96773089 0 2724.09779126 0 76.65902595 0 394.68689812 0 27345
0.15850000 0.15849900 9126.01430815 0 95.20184356 0 2867.66224455 0 60.57612490 0 566.38528160 0 26980
0.15950000 0.15949700 8991.04553249 0 150.93566279 0 2697.58983055 0 164.56452560 0 704.33869836 0 27777
0.16050000 0.16050000 9020.25974525 0 -64.74774590 0 2497.33826965 0 305.92959454 0 1297.71440773 0 28224
0.16150000 0.16150500 8847.80272390 0 4.36825683 0 2538.55315751 0 306.78472583 0 844.80094387 0 28075
0.16250000 0.16249700 9041.12228671 0 80.91560551 0 2210.95247325 0 75.93465987 0 1265.89376369 0 28590
0.16350000 0.16349900 8910.70090179 0 -17.72273452 0 2069.12933787 0 48.62147827 0 1144.66698104 0 29163
0.16450000 0.16449100 8710.81535039 0 207.75364652 0 2621.52640188 0 -287.67902996 0 1037.80884404 0 28996
0.16550000 0.16550500 8642.90395148 0 197.85586236 0 2401.26632168 0 -249.97117858 0 771.58351634 0 30777
0.16650000 0.16650700 8489.56815367 0 -50.53881349 0 2400.06847241 0 237.26621248 0 405.75702179 0 29211
0.16750000 0.16749900 8454.60870089 0 31.59649095 0 2262.51544786 0 154.86638299 0 306.59950284 0 30922
0.16850000 0.16850800 8533.75548231 0 34.85009358 0 1975.34217648 0 99.66250115 0 234.77069316 0 30867
0.16950000 0.16949900 8264.82722991 0 122.55994452 0 1961.25635635 0 -60.31004709 0 243.08465439 0 30852
0.17050000 0.17049200 8264.92705068 0 134.99095806 0 1984.59223473 0 -206.30069972 0 34.36152635 0 31257
0.17150000 0.17149500 8088.38846885 0 69.62676343 0 2100.89452593 0 -100.48202970 0 -401.68655251 0 32608
0.17250000 0.17250900 7953.27550763 0 174.84495605 0 2193.70566200 0 -234.33702736 0 -665.18122753 0 32361
0.17350000 0.17350400 7860.90801945 0 201.60579605 0 2510.89171232 0 -246.88560759 0 -661.43129385 0 32508
0.17450000 0.17449800 7611.82191838 0 69.05246126 0 2509.51640390 0 162.84539007 0 -707.99768423 0 32791
0.17550000 0.17549800 7666.64570490 0 20.39926216 0 2529.35855524 0 139.35090758 0 -609.87608307 0 33633
0.17650000 0.17650100 7498.29242642 0 48.72706646 0 2361.80384294 0 42.11227660 0 -472.74452400 0 33984
0.17750000 0.17750300 7464.77482924 0 92.16485202 0 2388.97727547 0 118.81888379 0 -402.40748032 0 34069
