### header ###
fiducial parameters:
Omega_m = 0.31
Omega_nu = 0
Omega_de = 0.69
Omega_k = 0
H_0 = 100
w_de = -1
zeff = 0
beta = 0
fgrowth = 0
b_1 = 2
gamma = 0.55
Lx = 3500 Ly = 3500 Lz = 3500
nx = 700 ny = 700 nz = 700
xoffset = 1379.75464 yoffset = 22.6059522 zoffset = 368.141391
bins = 400 dk = 0.001
kx_ny = 0.628318531 ky_ny = 0.628318531 kz_ny = 0.628318531
############################
A(data) = 3.34609122 (not used)
A(ran) = 3.350394 (used)
Ngal = 187743
weighted Ngal = 0
Nran = 9399747
weighted Nran = 0
SN(data) = 6608.18463
SN(ran) = 133.263204
SN(data+ran) = 6741.44784
############################
13 columns: k_central k_mean P_0(k) sigma^{lin}_{P_0(k)} P^img_1(k) sigma^{lin}_{P_1(k)} P_2(k) sigma^{lin}_{P_2(k)} P^img_3(k) sigma^{lin}_{P_3(k)} P_4(k) sigma^{lin}_{P_4(k)} N_modes
### header ###
0.00050000 0 0 0 0 0 0 0 0 0 0 0 0
0.00150000 0.00179520 58281.02351579 0 -59693.04379927 0 -34543.75471918 0 -10051.72997024 0 137295.70878266 0 3
0.00250000 0.00253879 82160.37054532 0 -44762.07446758 0 -49510.43770505 0 -56608.24919206 0 -61940.67486083 0 6
0.00350000 0.00331552 125542.36737663 0 -32952.27886908 0 -64956.92587090 0 -45679.98192701 0 31870.55443072 0 7
0.00450000 0.00420575 137389.98395672 0 -10808.19396689 0 -65196.93937286 0 -52829.36747983 0 -18349.71987902 0 24
0.00550000 0.00557378 142734.83176607 0 12855.25182284 0 -22373.49521986 0 -57230.57625283 0 9687.89434555 0 45
0.00650000 0.00659388 95313.42100622 0 15567.71494849 0 -17949.10584525 0 -8725.12299446 0 -26630.96208041 0 40
0.00750000 0.00754703 117560.03293299 0 7153.15655979 0 24046.60227950 0 3874.11072923 0 9741.64228596 0 57
0.00850000 0.00846663 77311.85379940 0 11474.28689081 0 2454.90335013 0 -5670.98445561 0 -23542.28555427 0 75
0.00950000 0.00948925 70425.88417410 0 18533.27918851 0 30504.45170261 0 -4349.54597761 0 5132.73975891 0 112
0.01050000 0.01054430 52319.61606809 0 358.56065142 0 15095.22995850 0 14410.57037089 0 14597.12430356 0 105
0.01150000 0.01145670 49627.56074482 0 -4314.25378892 0 9767.51804844 0 15671.63946390 0 -8235.63519954 0 144
0.01250000 0.01249090 55389.54847139 0 -1117.19408620 0 -1072.46107067 0 -2936.32784486 0 2937.17077583 0 169
0.01350000 0.01339930 55776.96398079 0 1681.95783480 0 -6013.80226208 0 -331.11881193 0 -8411.58594793 0 180
0.01450000 0.01448870 52736.20142547 0 1594.04900779 0 1162.21325461 0 -7489.56365442 0 8316.44566050 0 267
0.01550000 0.01550050 49130.34238563 0 16.56215167 0 6462.52990821 0 -3064.91918228 0 -10453.77476841 0 238
0.01650000 0.01653350 56648.95388486 0 -3910.70058796 0 4123.55174859 0 5535.77167362 0 10425.71404013 0 315
0.01750000 0.01747870 64240.10181214 0 -5306.11734961 0 -1341.39154131 0 14084.26735667 0 -1611.39563982 0 297
0.01850000 0.01844180 66028.22458413 0 -4323.33747922 0 -3923.98784190 0 1266.62578268 0 21006.06154812 0 388
0.01950000 0.01947590 67652.53037720 0 1073.95505490 0 5961.47399488 0 2673.55520676 0 11060.20814395 0 399
0.02050000 0.02045430 68925.91069882 0 3713.77638614 0 4730.08494490 0 -2450.63323930 0 24835.63003040 0 462
0.02150000 0.02154770 64475.78974729 0 2844.09345104 0 19414.91843392 0 -4418.49994904 0 21135.71764044 0 571
0.02250000 0.02255340 56200.31496831 0 5320.24753452 0 9423.52457509 0 -3919.48481594 0 14438.29836326 0 510
0.02350000 0.02348930 56937.32500552 0 2870.37958781 0 28486.18659394 0 -3906.39720354 0 13023.17254463 0 555
0.02450000 0.02439640 55067.57102399 0 1573.75211738 0 22319.03744285 0 161.51666468 0 7337.65862102 0 592
0.02550000 0.02547300 53068.71550998 0 533.12500019 0 29716.75489534 0 2659.21428911 0 14819.28097843 0 837
0.02650000 0.02652900 50392.29877440 0 862.87959490 0 21708.13431494 0 3603.38570292 0 -2569.94124487 0 723
0.02750000 0.02749970 51485.66896956 0 -798.58281707 0 22579.56965916 0 2612.20979644 0 7568.27787916 0 826
0.02850000 0.02848090 53616.73155119 0 -888.66551868 0 16497.48998866 0 10577.15324326 0 8615.93016050 0 831
0.02950000 0.02946900 54851.62541940 0 -217.62259356 0 20303.21239751 0 3088.60997896 0 18656.61329857 0 996
0.03050000 0.03053250 51331.83406789 0 3101.00993715 0 20845.90466418 0 194.22793184 0 11327.21761928 0 1041
0.03150000 0.03150510 50998.54359959 0 304.01303571 0 19005.32053063 0 622.60544981 0 14816.50817919 0 1036
0.03250000 0.03246190 48778.19688253 0 94.06976509 0 17895.75718793 0 1983.58293581 0 14515.71491796 0 1059
0.03350000 0.03345080 50404.27726711 0 323.10874950 0 24252.89854274 0 749.49761585 0 11413.17439563 0 1302
0.03450000 0.03451200 50902.71565796 0 227.96624383 0 15668.86666466 0 3805.40076413 0 13776.15390545 0 1339
0.03550000 0.03553350 49637.87555798 0 411.02423123 0 19139.74583764 0 733.97437660 0 6530.30821277 0 1365
0.03650000 0.03647120 47775.66359038 0 2816.36545867 0 16372.71402300 0 -37.22017145 0 10149.22159141 0 1308
0.03750000 0.03744890 43973.15762865 0 1783.15391576 0 21040.88790653 0 391.86751586 0 6616.80845776 0 1579
0.03850000 0.03847530 43254.11533050 0 1754.56081003 0 20814.84931273 0 580.22820451 0 10616.97064031 0 1662
0.03950000 0.03950240 41618.38560457 0 -253.09335052 0 16492.38803807 0 4728.05525586 0 7724.45302339 0 1683
0.04050000 0.04050350 41799.39393877 0 -191.71355749 0 17180.92954461 0 1827.15269405 0 9259.46358983 0 1822
0.04150000 0.04152450 42229.17782051 0 590.95006460 0 14367.75835067 0 1163.13382396 0 10090.66007152 0 1887
0.04250000 0.04250150 41962.32362194 0 -579.22334206 0 15775.23124340 0 1459.03586734 0 9317.41509388 0 1920
0.04350000 0.04349210 41869.71212742 0 224.65108507 0 15993.50599934 0 791.34248370 0 11562.68373049 0 2005
0.04450000 0.04448520 41331.01269164 0 1172.88298608 0 17144.77224256 0 -71.85254484 0 11338.19790426 0 2151
0.04550000 0.04548030 41035.54320494 0 1437.08638858 0 21628.72134479 0 -2719.73895086 0 11953.64842292 0 2274
0.04650000 0.04648670 39637.27600568 0 846.29049162 0 20493.31551320 0 552.31277091 0 11792.27150732 0 2311
0.04750000 0.04749250 39479.11553720 0 796.29913962 0 24209.08831479 0 2038.39563113 0 13806.43287312 0 2568
0.04850000 0.04851840 39388.61137010 0 287.93745485 0 25546.79757872 0 1497.06758168 0 12874.43959356 0 2493
0.04950000 0.04949480 37993.44970598 0 -93.76475718 0 20638.27745731 0 4140.19963521 0 12414.70948005 0 2644
0.05050000 0.05050630 38706.50275779 0 -12.30801217 0 23045.51084296 0 1965.67065274 0 14248.97163135 0 2829
0.05150000 0.05149060 36155.63837166 0 680.27523746 0 17498.13777733 0 2526.18647291 0 12520.74132288 0 2784
0.05250000 0.05249300 37444.21363311 0 1131.09135598 0 19878.30864242 0 -820.82953991 0 14374.74580474 0 3055
0.05350000 0.05348950 34746.72362333 0 1120.68781324 0 15682.39792494 0 372.16844096 0 6758.02157731 0 3009
0.05450000 0.05448610 34488.29873444 0 691.16457462 0 19430.88975753 0 1120.86527239 0 9427.45085881 0 3336
0.05550000 0.05550870 32752.41550007 0 545.85880341 0 16981.73164742 0 514.50620787 0 5552.13118911 0 3349
0.05650000 0.05647670 32420.01232753 0 105.89941393 0 16195.80943167 0 1607.21425857 0 6216.67134546 0 3324
0.05750000 0.05747970 32819.29541767 0 -489.90038744 0 14191.51923116 0 3962.41883933 0 5239.14870243 0 3639
0.05850000 0.05849280 33292.00223160 0 -783.00744919 0 11853.27309053 0 643.86838348 0 3049.42478014 0 3846
0.05950000 0.05951020 33878.28290228 0 533.55422951 0 11679.69585830 0 313.98180353 0 6121.29814291 0 3787
0.06050000 0.06049470 33297.65874205 0 626.40751212 0 13218.71034683 0 -1307.14192514 0 3240.71465391 0 3930
0.06150000 0.06148310 32589.37490493 0 540.31985965 0 13636.84847178 0 -1777.59722609 0 4649.34103112 0 4083
0.06250000 0.06249100 31988.67567822 0 695.68091002 0 15062.84366341 0 1146.84085564 0 3137.73289024 0 4303
0.06350000 0.06350600 31530.83106819 0 -409.68441463 0 13964.70425357 0 1447.95576159 0 4684.41139587 0 4470
0.06450000 0.06451750 32875.30596226 0 -1006.24218841 0 11826.87604180 0 3101.30939947 0 3088.46579340 0 4479
0.06550000 0.06550280 33376.84988826 0 126.56053926 0 13654.03982705 0 -480.77898707 0 2041.42352790 0 4636
0.06650000 0.06648880 32374.64933201 0 1284.88189286 0 10432.02493120 0 -2118.51843788 0 -1413.35122711 0 4653
0.06750000 0.06749660 30801.69578082 0 992.65658127 0 13543.46059347 0 -1196.13013488 0 1163.42219508 0 5220
0.06850000 0.06852730 30126.02006273 0 345.48634846 0 10762.26532033 0 2178.05598310 0 -835.80376491 0 5029
0.06950000 0.06949320 29823.56312195 0 -132.65182462 0 10691.60330457 0 3026.03344578 0 -1765.94037810 0 5040
0.07050000 0.07048030 28868.72197668 0 341.59333833 0 8155.39038962 0 2338.78960927 0 158.51205942 0 5475
0.07150000 0.07148790 28553.06651153 0 158.57527925 0 6604.16449324 0 2517.84589281 0 1788.12277199 0 5509
0.07250000 0.07249820 28210.12670190 0 -98.82234298 0 4922.27320562 0 1251.81903476 0 3049.00331466 0 5916
0.07350000 0.07351270 27759.60228186 0 313.87089156 0 3703.55030256 0 566.09469224 0 2949.74819317 0 5721
0.07450000 0.07449140 27636.71181967 0 474.90730741 0 4478.58096290 0 -647.69262819 0 2535.95781742 0 6028
0.07550000 0.07549160 26313.53202375 0 823.64004921 0 4062.16197348 0 -1121.22019069 0 1850.10038054 0 6183
0.07650000 0.07648840 25997.54382269 0 938.88978582 0 6912.75486593 0 -1255.14639384 0 1671.83157199 0 6330
0.07750000 0.07749960 24687.67346311 0 707.63500209 0 6688.36886047 0 -1618.86001537 0 709.37299265 0 6583
0.07850000 0.07848650 24310.90550278 0 532.12124687 0 7705.58689738 0 -961.02005109 0 -1104.05767254 0 6549
0.07950000 0.07947320 23345.74954434 0 628.06010047 0 8859.93649336 0 -703.01330032 0 -1078.62112145 0 6828
0.08050000 0.08048110 23237.61037410 0 280.37214941 0 8696.20824401 0 -126.34426092 0 -2791.08862082 0 7147
0.08150000 0.08149960 22431.61309187 0 4.62566133 0 8566.41905732 0 260.53998015 0 -3151.02014419 0 7386
0.08250000 0.08250610 22445.47708806 0 312.36359789 0 7923.37364066 0 739.71074367 0 -4529.37864493 0 7227
0.08350000 0.08350160 22369.16965305 0 240.20648879 0 8597.80714469 0 -504.52856710 0 -3561.03951297 0 7798
0.08450000 0.08449610 21451.81675347 0 642.30008823 0 8158.39610399 0 -1135.47237877 0 -4811.97125197 0 7371
0.08550000 0.08548940 21409.22655718 0 200.56211441 0 7636.74383793 0 645.74279576 0 -4977.11917453 0 8256
0.08650000 0.08650700 20938.95980658 0 -197.90577275 0 7292.18471353 0 700.65420273 0 -4865.80792196 0 8037
0.08750000 0.08749060 21181.52428384 0 -84.23608805 0 5900.27277012 0 1514.82458799 0 -5247.55582972 0 8155
0.08850000 0.08849210 20960.03308078 0 137.87799662 0 5872.30077142 0 938.65687069 0 -2737.95069624 0 8718
0.08950000 0.08949900 20726.56338502 0 217.44069793 0 4431.38791989 0 1158.37570047 0 -2650.46333472 0 8571
0.09050000 0.09049190 20297.44497509 0 147.84787356 0 4850.39115820 0 1187.64536922 0 -919.17740149 0 8932
0.09150000 0.09150830 19807.87954180 0 442.89811302 0 3981.35151252 0 -247.80063134 0 -1321.33865723 0 9285
0.09250000 0.09250820 19081.96070154 0 989.55215524 0 5313.04934770 0 -1247.63765351 0 -1489.07082868 0 9204
0.09350000 0.09350330 17758.33725774 0 1089.31525355 0 6034.39861482 0 -1069.56959562 0 -308.18110752 0 9349
0.09450000 0.09448040 16806.15799973 0 349.76422312 0 7101.43830842 0 -205.05626742 0 -1038.59299167 0 9564
0.09550000 0.09549270 16879.47081156 0 -126.30655085 0 6573.48624248 0 778.62642640 0 24.81000937 0 10155
0.09650000 0.09649430 17032.08568157 0 -90.98153221 0 5973.30830203 0 1447.03519224 0 -645.23370982 0 9913
0.09750000 0.09749140 16707.22452296 0 66.83488734 0 5964.57953003 0 144.11457667 0 731.14833962 0 10476
0.09850000 0.09850240 16569.47185686 0 112.22405808 0 5327.02425585 0 -6.30050970 0 -47.83034319 0 10575
0.09950000 0.09950330 16623.92963387 0 251.74577009 0 6154.00608271 0 -63.54656927 0 875.91286043 0 10882
0.10050000 0.10051200 16113.51275032 0 239.00974864 0 6102.02164261 0 -186.43858422 0 375.22628396 0 10875
0.10150000 0.10150300 16103.75249700 0 115.68229329 0 5660.62527766 0 296.66622685 0 -242.12415674 0 11118
0.10250000 0.10250800 16013.80288975 0 117.36815523 0 6202.89607885 0 -154.01568818 0 843.34245147 0 11575
0.10350000 0.10349800 16192.14933668 0 -26.99430969 0 5621.01861336 0 720.26343894 0 -257.04736223 0 11364
0.10450000 0.10450100 15672.85949556 0 90.43018881 0 5342.86248509 0 234.75627461 0 450.70853391 0 12093
0.10550000 0.10551000 15802.62649986 0 56.44609589 0 5374.91604428 0 544.37258301 0 366.18584932 0 12067
0.10650000 0.10649700 15683.28522070 0 43.32121707 0 4862.61365724 0 239.02638543 0 912.09789047 0 12054
0.10750000 0.10749900 15645.68606304 0 282.17668716 0 4960.83729741 0 -55.52807752 0 596.49122659 0 12807
0.10850000 0.10850100 15067.28014219 0 409.30398658 0 5502.47590038 0 40.51092959 0 358.82794927 0 12736
0.10950000 0.10950300 14771.36700761 0 284.74540837 0 4871.85262429 0 -227.54366923 0 1299.34481368 0 12933
0.11050000 0.11050200 14620.41581715 0 -52.02791759 0 5189.44904891 0 811.80352383 0 1483.84687491 0 13428
0.11150000 0.11150900 14687.51755868 0 -9.88679278 0 5320.23644332 0 670.39630834 0 2369.85605193 0 13453
0.11250000 0.11250000 14684.41202354 0 108.60233863 0 4349.19105931 0 612.14312373 0 1716.66219006 0 13668
0.11350000 0.11349100 14488.09783755 0 101.25530795 0 5242.19878159 0 -321.24653753 0 2827.31247006 0 13791
0.11450000 0.11448600 14270.82128934 0 222.59810451 0 4464.47296039 0 -129.10818720 0 2383.88641607 0 14205
0.11550000 0.11549300 14255.07178967 0 208.01650788 0 5788.05203940 0 48.05216713 0 2865.14454285 0 14776
0.11650000 0.11649800 13734.78374083 0 62.45641552 0 4415.01731319 0 417.63458461 0 1780.81367320 0 14553
0.11750000 0.11747300 13850.24310106 0 39.11543519 0 5213.71658783 0 270.44220079 0 2509.81586622 0 14568
0.11850000 0.11849100 13711.60313921 0 234.07860247 0 4951.50960078 0 -529.31517404 0 1858.45205184 0 16015
0.11950000 0.11950300 13463.49306348 0 335.52534448 0 5088.26405915 0 31.61667693 0 1693.30412928 0 15270
0.12050000 0.12050700 13260.85689523 0 52.12918022 0 5194.04080444 0 165.21557886 0 1961.46708910 0 15999
0.12150000 0.12150000 13342.70992871 0 -226.96027227 0 4778.67547873 0 563.10672378 0 969.69669446 0 15670
0.12250000 0.12250700 13386.74198060 0 -117.01434604 0 4793.01639639 0 369.34905869 0 1858.13040713 0 16887
0.12350000 0.12352200 13435.43233520 0 171.55530704 0 4618.96224268 0 -564.53083347 0 542.52257136 0 16407
0.12450000 0.12449800 13401.82600845 0 200.15950397 0 4734.61015326 0 -113.33650514 0 1438.90534488 0 16306
0.12550000 0.12549900 13132.42083457 0 104.95899134 0 4926.08857737 0 87.38798440 0 950.99471817 0 17523
0.12650000 0.12650100 12971.37665489 0 142.77919655 0 5273.20976826 0 157.08794974 0 1437.81840758 0 17154
0.12750000 0.12750600 13169.24360844 0 -7.32775418 0 4646.95642378 0 370.61234602 0 1066.57719069 0 18007
0.12850000 0.12850300 12813.43801034 0 171.52536080 0 5109.49261011 0 227.90302401 0 1315.77087636 0 17496
0.12950000 0.12949900 12664.81597124 0 168.41871654 0 4638.88203240 0 -345.66048025 0 1274.44507653 0 18405
0.13050000 0.13049000 12700.30780147 0 196.03468782 0 5238.27249787 0 -133.60234020 0 789.35494121 0 18100
0.13150000 0.13148800 12327.19993613 0 228.06162813 0 5623.55849746 0 -443.35396121 0 778.18166940 0 19059
0.13250000 0.13249300 12150.51716875 0 33.40557609 0 5250.83882402 0 -8.91997314 0 -112.38377132 0 18957
0.13350000 0.13349100 12243.12866326 0 151.50020471 0 5411.04007274 0 118.71462654 0 209.60587641 0 19468
0.13450000 0.13450700 11916.04926526 0 126.34204268 0 5178.76822625 0 110.65875746 0 -292.87636485 0 19953
0.13550000 0.13551000 11918.48932859 0 77.83735471 0 5160.07955939 0 359.35810848 0 272.50294518 0 19956
0.13650000 0.13649900 11531.96111494 0 169.93821052 0 5055.64484892 0 -114.06963325 0 -106.79591538 0 19723
0.13750000 0.13749600 11439.90418027 0 130.03541126 0 4756.34889928 0 331.40274657 0 55.75955080 0 20946
0.13850000 0.13851100 11451.77176101 0 2.34805076 0 4549.94172407 0 864.29815899 0 747.36477868 0 20955
0.13950000 0.13949800 11360.60212209 0 -244.98790379 0 3711.42505239 0 662.46610252 0 373.87759441 0 20506
0.14050000 0.14048300 11559.24545944 0 -29.36216933 0 3281.94063296 0 464.19099292 0 832.15919759 0 21447
0.14150000 0.14148400 11377.68256540 0 192.52099663 0 2986.40459908 0 37.79136810 0 432.87056185 0 21771
0.14250000 0.14249400 11172.16268594 0 173.34653534 0 2926.05739649 0 -285.81459976 0 537.88090544 0 22470
0.14350000 0.14350900 10929.36529355 0 109.10787539 0 2794.02778801 0 344.93400685 0 83.40779747 0 22519
0.14450000 0.14449900 10702.67231913 0 168.38655207 0 2634.96893258 0 -195.60545850 0 -45.36687744 0 22218
0.14550000 0.14550500 10724.43324754 0 143.03318496 0 2672.26862792 0 46.08680703 0 -29.10962277 0 23559
0.14650000 0.14650700 10419.25896351 0 195.32596034 0 2822.35470502 0 -440.56008870 0 -127.86708226 0 23044
0.14750000 0.14750500 10313.48221821 0 24.48071173 0 3017.69286567 0 -17.22429612 0 -536.46788695 0 23649
0.14850000 0.14849900 10388.76926310 0 -41.71931550 0 2666.68975585 0 -5.34557983 0 -1267.34671049 0 23640
0.14950000 0.14949500 10411.91659113 0 -54.02865861 0 2854.89627687 0 153.52545728 0 -1055.34957202 0 24457
0.15050000 0.15050000 10408.10121938 0 96.62362410 0 2772.85469304 0 -143.80402315 0 -1465.99004783 0 24591
0.15150000 0.15149900 10399.86046005 0 160.89223029 0 2973.16170993 0 -88.09549186 0 -1265.35029503 0 25020
0.15250000 0.15250500 10235.76620120 0 119.28249582 0 2824.22911730 0 205.40453100 0 -1172.00678152 0 25297
0.15350000 0.15350100 10018.80020650 0 152.14238502 0 2509.60513347 0 235.30861621 0 -841.84735812 0 25452
0.15450000 0.15450400 9867.48300653 0 45.21026974 0 2913.20269922 0 347.54931109 0 -157.89760711 0 26061
0.15550000 0.15549900 9766.99676218 0 158.23921598 0 2532.07589849 0 230.03031559 0 -462.59164232 0 26128
0.15650000 0.15649500 9499.69891573 0 158.51982326 0 2703.64562408 0 93.16461251 0 520.71727816 0 26331
0.15750000 0.15749700 9287.02521425 0 152.87662226 0 2416.45017031 0 -46.73220378 0 -68.49557226 0 27345
0.15850000 0.15849900 9251.59993119 0 65.41909605 0 2607.51822013 0 150.35004759 0 606.29473558 0 26980
0.15950000 0.15949700 9120.49089207 0 105.28939810 0 2454.52624943 0 129.93448137 0 -268.17405101 0 27777
0.16050000 0.16050000 8954.57767692 0 240.10444977 0 2514.24125380 0 -430.12992709 0 125.91392247 0 28224
0.16150000 0.16150500 8721.90654734 0 165.18452351 0 2704.88783814 0 -180.19424034 0 -381.63699579 0 28075
0.16250000 0.16249700 8491.80857545 0 47.45900992 0 2831.41621293 0 179.98239848 0 -193.15984957 0 28590
0.16350000 0.16349900 8574.32708075 0 -130.48904122 0 2345.68833378 0 451.00688710 0 130.86059631 0 29163
0.16450000 0.16449100 8614.39957532 0 -107.17933806 0 2202.24588365 0 450.96474056 0 -394.25545056 0 28996
0.16550000 0.16550500 8737.31221990 0 29.52121709 0 1549.93931753 0 347.62805859 0 198.25736369 0 30777
0.16650000 0.16650700 8668.24733650 0 108.62729382 0 1729.51688732 0 -88.64140057 0 -166.84154833 0 29211
0.16750000 0.16749900 8572.59685402 0 82.73311996 0 1363.67375598 0 33.90834005 0 308.62253716 0 30922
0.16850000 0.16850800 8312.09791130 0 194.74589074 0 1965.31573444 0 3.63263319 0 81.43112435 0 30867
0.16950000 0.16949900 8173.19176072 0 209.69127862 0 1707.81141489 0 -423.02490632 0 63.19508924 0 30852
0.17050000 0.17049200 7979.31763807 0 169.58440134 0 2196.87774432 0 -80.26909964 0 -61.16628749 0 31257
0.17150000 0.17149500 7748.13272888 0 160.69591610 0 2219.80324841 0 39.48887579 0 40.75648869 0 32608
0.17250000 0.17250900 7629.50128632 0 68.15418522 0 2360.27325776 0 -50.47548275 0 291.02968056 0 32361
0.17350000 0.17350400 7571.25031995 0 32.43565092 0 2454.27115190 0 295.44952255 0 514.89107241 0 32508
0.17450000 0.17449800 7586.74472208 0 4.78812518 0 2488.25457935 0 4.37082998 0 254.53409700 0 32791
0.17550000 0.17549800 7699.52001265 0 18.95030819 0 2113.10593377 0 -17.08842896 0 406.25612566 0 33633
0.17650000 0.17650100 7617.98862389 0 24.86047431 0 2516.29312523 0 -95.21537483 0 285.61052173 0 33984
0.17750000 0.17750300 7695.21662824 0 95.88572677 0 2314.78825908 0 -186.01157314 0 400.77596525 0 34069
0.17850000 0.17849800 7504.82514142 0 -35.17506565 0 2597.44741330 0 266.92629135 0 332.85014778 0 34536
