### header ###
fiducial parameters:
Omega_m = 0.31
Omega_nu = 0
Omega_de = 0.69
Omega_k = 0
H_0 = 100
w_de = -1
zeff = 0
beta = 0
fgrowth = 0
b_1 = 2
gamma = 0.55
Lx = 3500 Ly = 3500 Lz = 3500
nx = 700 ny = 700 nz = 700
xoffset = 1379.75464 yoffset = 22.6059522 zoffset = 368.141391
bins = 400 dk = 0.001
kx_ny = 0.628318531 ky_ny = 0.628318531 kz_ny = 0.628318531
############################
A(data) = 3.30306346 (not used)
A(ran) = 3.29842944 (used)
Ngal = 185259
weighted Ngal = 0
Nran = 9399747
weighted Nran = 0
SN(data) = 6709.42993
SN(ran) = 131.196294
SN(data+ran) = 6840.62622
############################
13 columns: k_central k_mean P_0(k) sigma^{lin}_{P_0(k)} P^img_1(k) sigma^{lin}_{P_1(k)} P_2(k) sigma^{lin}_{P_2(k)} P^img_3(k) sigma^{lin}_{P_3(k)} P_4(k) sigma^{lin}_{P_4(k)} N_modes
### header ###
0.00050000 0 0 0 0 0 0 0 0 0 0 0 0
0.00150000 0.00179520 71677.96939758 0 -17092.53270494 0 -67183.37274629 0 92441.91011632 0 -121430.86066792 0 3
0.00250000 0.00253879 113567.20203163 0 -8985.87703471 0 41694.13847973 0 -78755.15125827 0 109139.81803384 0 6
0.00350000 0.00331552 95445.84989778 0 14356.11259387 0 7527.51773038 0 -20780.13386628 0 17126.91541548 0 7
0.00450000 0.00420575 81999.65910154 0 20834.36981936 0 68884.98418208 0 -14630.39789440 0 45162.02302953 0 24
0.00550000 0.00557378 71388.26733330 0 6295.33011422 0 77856.76430547 0 35111.40217899 0 32640.72714680 0 45
0.00650000 0.00659388 65971.54856772 0 7115.71267889 0 87582.52399740 0 56805.11793789 0 -15425.63671559 0 40
0.00750000 0.00754703 76473.69204603 0 -530.11706758 0 71475.11140540 0 29304.60601675 0 47457.34623796 0 57
0.00850000 0.00846663 73851.84399943 0 484.20062133 0 69952.95553623 0 20037.68914257 0 34344.00226214 0 75
0.00950000 0.00948925 70400.04168521 0 11343.07803092 0 71559.51541418 0 15556.29101564 0 41960.43811845 0 112
0.01050000 0.01054430 72862.39831968 0 -595.51298302 0 87733.47518786 0 22421.29827871 0 44841.37652576 0 105
0.01150000 0.01145670 66152.00234207 0 -1205.62419947 0 68559.34663968 0 37076.76227821 0 39363.10161712 0 144
0.01250000 0.01249090 82845.47378081 0 -2843.72744154 0 58979.99074747 0 29932.58958795 0 40843.66549774 0 169
0.01350000 0.01339930 81293.26076791 0 -1289.34055403 0 52457.47964616 0 8852.36120585 0 46528.23666961 0 180
0.01450000 0.01448870 74659.28313727 0 6717.35015810 0 46651.90351558 0 12009.54805554 0 31797.57435480 0 267
0.01550000 0.01550050 71353.10823897 0 3235.84561845 0 51440.97144586 0 200.68300846 0 33609.54320023 0 238
0.01650000 0.01653350 65153.57279279 0 2227.12343840 0 41500.59709298 0 8556.41479768 0 8847.32580243 0 315
0.01750000 0.01747870 66001.38388751 0 1170.76456746 0 41757.13647839 0 9440.60501839 0 11018.07268674 0 297
0.01850000 0.01844180 60480.07513472 0 -747.04978869 0 30960.29989718 0 625.16973454 0 6057.85649636 0 388
0.01950000 0.01947590 67898.86586142 0 -4781.57028114 0 31023.85245569 0 15065.94919856 0 -2110.78787361 0 399
0.02050000 0.02045430 67583.43222021 0 -4373.64714858 0 455.51545866 0 4210.20727035 0 -15795.19539790 0 462
0.02150000 0.02154770 72782.54170166 0 1918.46651853 0 16965.64941185 0 -4173.95014752 0 -13015.85235465 0 571
0.02250000 0.02255340 68382.44204836 0 5715.83725607 0 14144.15982019 0 -19021.62459014 0 -14753.51018053 0 510
0.02350000 0.02348930 64570.61948119 0 4822.25279154 0 25822.96838273 0 -6518.58481759 0 -12331.41459097 0 555
0.02450000 0.02439640 63197.19656309 0 430.15987332 0 33707.14573337 0 -360.72787130 0 -19916.79509583 0 592
0.02550000 0.02547300 63151.50083167 0 -813.68015435 0 33323.05758306 0 9889.08865819 0 -3408.95702041 0 837
0.02650000 0.02652900 67417.17517795 0 -532.21441292 0 35046.29685290 0 8463.84766795 0 133.56684837 0 723
0.02750000 0.02749970 66539.08511556 0 215.22578590 0 23255.13446528 0 9935.63841178 0 17617.58996847 0 826
0.02850000 0.02848090 66559.04927007 0 1667.41727560 0 32081.84173258 0 1788.51096389 0 20770.48452494 0 831
0.02950000 0.02946900 65070.38881568 0 496.43310244 0 26175.89026962 0 6308.91683048 0 26363.77514593 0 996
0.03050000 0.03053250 66030.55373549 0 -283.23035087 0 33827.48522026 0 12441.21744076 0 41513.13014553 0 1041
0.03150000 0.03150510 65019.70204563 0 -1179.61534263 0 18988.90555914 0 4740.75467637 0 21182.52249156 0 1036
0.03250000 0.03246190 66065.38009390 0 1938.02029875 0 28440.60177448 0 -1186.00387207 0 37333.85622347 0 1059
0.03350000 0.03345080 62284.16923032 0 3356.16292294 0 24953.64036593 0 -3898.12317062 0 14903.68498720 0 1302
0.03450000 0.03451200 58168.44786677 0 3747.02779459 0 30064.68574361 0 -1885.09310691 0 29418.95625728 0 1339
0.03550000 0.03553350 55562.68205575 0 1178.70586448 0 31815.43118188 0 2303.65269734 0 11488.59453488 0 1365
0.03650000 0.03647120 55407.62712242 0 -954.98533083 0 25957.06095383 0 5111.33374880 0 10529.08399569 0 1308
0.03750000 0.03744890 54331.22645859 0 -592.80673097 0 20703.38278340 0 6756.70172487 0 8451.99117841 0 1579
0.03850000 0.03847530 54226.19282349 0 1787.35747940 0 23067.36050094 0 -1816.17240907 0 6744.03557796 0 1662
0.03950000 0.03950240 50960.61170603 0 3164.31848933 0 19846.58781915 0 -3217.93333538 0 -988.18793802 0 1683
0.04050000 0.04050350 48580.10810503 0 3149.42301183 0 25841.15794572 0 -6446.30348708 0 -3324.33118770 0 1822
0.04150000 0.04152450 42996.46682539 0 1837.35659525 0 21382.05312466 0 47.00260716 0 -5502.73099791 0 1887
0.04250000 0.04250150 43126.23382968 0 538.15596712 0 24169.16000578 0 4543.71956258 0 -4784.98636980 0 1920
0.04350000 0.04349210 41210.34046885 0 263.71760808 0 21906.22309243 0 3993.28564044 0 -3275.36355317 0 2005
0.04450000 0.04448520 41040.97789145 0 1418.33117454 0 20743.20018044 0 2018.37602064 0 -2429.81506263 0 2151
0.04550000 0.04548030 38115.00922454 0 1255.80077446 0 19881.52508954 0 3055.10347298 0 3538.60202154 0 2274
0.04650000 0.04648670 36923.03828851 0 491.98885983 0 18862.68773787 0 1932.53015626 0 6603.96485170 0 2311
0.04750000 0.04749250 37967.05265725 0 -170.72346726 0 19759.52192311 0 3085.12734312 0 6055.43861543 0 2568
0.04850000 0.04851840 36589.41508431 0 385.37362004 0 16424.28808881 0 1098.78048103 0 5027.09610798 0 2493
0.04950000 0.04949480 37973.48555148 0 -403.59534751 0 19856.01533656 0 399.98849026 0 9476.30758136 0 2644
0.05050000 0.05050630 36356.49994840 0 71.91809381 0 15103.99200409 0 1605.68367339 0 5199.16493743 0 2829
0.05150000 0.05149060 37560.33846516 0 651.56900152 0 20015.61766064 0 -170.87098018 0 4963.03335441 0 2784
0.05250000 0.05249300 36227.95297577 0 432.66648383 0 13869.54178375 0 1017.71270429 0 6222.69386541 0 3055
0.05350000 0.05348950 36278.41792188 0 1382.06296052 0 17942.11839117 0 1438.91643608 0 3305.76452401 0 3009
0.05450000 0.05448610 34469.11096372 0 642.80917417 0 14128.07758462 0 398.44459565 0 3708.89625949 0 3336
0.05550000 0.05550870 33290.78219994 0 437.70965108 0 13113.78762370 0 1426.42774831 0 1174.30265929 0 3349
0.05650000 0.05647670 31946.52912981 0 673.04044969 0 13825.50973187 0 -170.61699177 0 2004.91130754 0 3324
0.05750000 0.05747970 31976.58627354 0 -216.72642485 0 11143.65830979 0 473.59078233 0 146.70437115 0 3639
0.05850000 0.05849280 32771.15962291 0 -823.26627588 0 10522.45145991 0 2056.87356524 0 -836.91177548 0 3846
0.05950000 0.05951020 33092.24977456 0 -113.28104915 0 8316.66748444 0 822.12166435 0 -1502.10298509 0 3787
0.06050000 0.06049470 32626.75223865 0 940.26953072 0 9113.72526193 0 -2375.26855604 0 -4053.77702859 0 3930
0.06150000 0.06148310 31490.79184721 0 1206.74441036 0 10827.30409923 0 -1653.83055934 0 -1174.67975998 0 4083
0.06250000 0.06249100 30457.20320361 0 785.70150093 0 11912.38917027 0 182.26607593 0 -3871.74830428 0 4303
0.06350000 0.06350600 30080.21341934 0 85.00382071 0 13348.69917506 0 551.21585153 0 -1099.09103454 0 4470
0.06450000 0.06451750 29794.39327398 0 129.79362317 0 12444.98844772 0 1090.92680447 0 -3013.07892774 0 4479
0.06550000 0.06550280 30025.86655429 0 306.15252760 0 12114.35986670 0 1091.41370801 0 1324.51073956 0 4636
0.06650000 0.06648880 29196.24502256 0 492.69093259 0 13042.36031535 0 820.37480083 0 1208.25281315 0 4653
0.06750000 0.06749660 28227.42896913 0 913.43548883 0 12443.99024000 0 787.21212196 0 2174.16297297 0 5220
0.06850000 0.06852730 27433.63200355 0 780.48309277 0 12921.57718059 0 725.47075590 0 4653.17858526 0 5029
0.06950000 0.06949320 26224.02606438 0 718.43450056 0 13566.64119510 0 418.83576124 0 2686.12153291 0 5040
0.07050000 0.07048030 25964.60296776 0 46.17387293 0 12983.68788350 0 1385.58996115 0 5717.34565885 0 5475
0.07150000 0.07148790 25755.20116938 0 -275.76264796 0 12113.13983503 0 539.89395769 0 3248.46740057 0 5509
0.07250000 0.07249820 26325.95416433 0 119.41004458 0 11641.65305276 0 703.05877423 0 4310.08349887 0 5916
0.07350000 0.07351270 26035.69754020 0 -64.33459881 0 10703.69270925 0 -1298.65715947 0 749.22699065 0 5721
0.07450000 0.07449140 26037.69395565 0 385.12628635 0 10839.93697256 0 1195.50902785 0 3553.06494236 0 6028
0.07550000 0.07549160 25238.24047962 0 -25.69586327 0 8506.23822268 0 1743.04814759 0 1154.21650161 0 6183
0.07650000 0.07648840 25255.21001095 0 151.67655475 0 9705.15224800 0 1047.14208628 0 1598.88476966 0 6330
0.07750000 0.07749960 25423.46346865 0 -139.95094133 0 7252.78878197 0 1473.18823465 0 1754.37225968 0 6583
0.07850000 0.07848650 24789.15791519 0 202.92786672 0 7406.41295090 0 910.60168801 0 2425.17894230 0 6549
0.07950000 0.07947320 24115.36770058 0 560.77091770 0 5406.43722600 0 46.94071828 0 1628.17662080 0 6828
0.08050000 0.08048110 23915.06068370 0 534.46370766 0 6584.65507781 0 -469.23748753 0 2089.82551138 0 7147
0.08150000 0.08149960 22837.32907624 0 651.32055871 0 5988.33687389 0 -517.56959647 0 1631.30433834 0 7386
0.08250000 0.08250610 22472.87234452 0 323.59787128 0 7622.60256182 0 -347.32748715 0 2031.51908902 0 7227
0.08350000 0.08350160 21994.06537226 0 -25.11390816 0 6813.99884831 0 -58.06884892 0 -1138.55573152 0 7798
0.08450000 0.08449610 22408.87613813 0 121.27891127 0 7294.95751277 0 -310.90621461 0 1239.21943502 0 7371
0.08550000 0.08548940 22082.24038800 0 232.75875004 0 7087.76286258 0 -55.77907131 0 -1443.53037401 0 8256
0.08650000 0.08650700 22213.11651199 0 -44.68155238 0 7646.94773912 0 351.29924478 0 168.56733858 0 8037
0.08750000 0.08749060 21885.03890626 0 188.36401601 0 7426.88730047 0 174.87268404 0 -1136.04912101 0 8155
0.08850000 0.08849210 22212.78377608 0 60.50880133 0 6927.42851950 0 882.29140779 0 283.38895498 0 8718
0.08950000 0.08949900 21578.03457474 0 282.88097816 0 7641.65723817 0 -391.44937773 0 -494.07178661 0 8571
0.09050000 0.09049190 21316.61506267 0 553.75906299 0 7336.59386611 0 -251.76906160 0 36.30847507 0 8932
0.09150000 0.09150830 20508.73227696 0 227.67343623 0 6827.26391986 0 13.50186860 0 -109.38182795 0 9285
0.09250000 0.09250820 20478.12057338 0 148.81280769 0 7503.37219462 0 501.72249427 0 269.22106000 0 9204
0.09350000 0.09350330 20301.43780600 0 200.42902005 0 6484.00246551 0 53.10587102 0 -1786.05980936 0 9349
0.09450000 0.09448040 19980.45856631 0 528.12841596 0 7002.02791017 0 81.01908638 0 -1127.71963210 0 9564
0.09550000 0.09549270 18823.75763658 0 476.56655047 0 6322.07099006 0 54.12903394 0 -1290.20566740 0 10155
0.09650000 0.09649430 18502.00201312 0 266.97398350 0 7498.33679121 0 -15.52734299 0 -858.68601333 0 9913
0.09750000 0.09749140 18298.47854912 0 199.82676806 0 6279.38097301 0 728.10269694 0 -1757.57761560 0 10476
0.09850000 0.09850240 17763.55012030 0 125.23735946 0 6369.38603624 0 533.54424743 0 -1695.40036551 0 10575
0.09950000 0.09950330 17521.76202683 0 474.99049138 0 6028.63119240 0 -445.33373987 0 -1705.27153079 0 10882
0.10050000 0.10051200 17149.98510513 0 319.86568351 0 6003.21016900 0 -273.15067108 0 -1354.41260653 0 10875
0.10150000 0.10150300 16277.21881727 0 579.14015809 0 7010.94523252 0 -376.29325710 0 -2254.92906915 0 11118
0.10250000 0.10250800 16074.24991312 0 570.13521529 0 7207.37033047 0 -650.03508898 0 -1266.95851859 0 11575
0.10350000 0.10349800 15237.97366322 0 386.39401016 0 7514.57430354 0 74.97094577 0 -1454.76575652 0 11364
0.10450000 0.10450100 14895.58841343 0 -39.02171458 0 7628.78035852 0 967.30654152 0 -155.25346576 0 12093
0.10550000 0.10551000 15442.82807086 0 -452.74598679 0 7054.92182842 0 1423.86568182 0 -274.11893258 0 12067
0.10650000 0.10649700 15837.00921040 0 -267.30782853 0 5750.43069935 0 1319.30896819 0 924.87716760 0 12054
0.10750000 0.10749900 15865.06993868 0 9.12193275 0 5480.29350648 0 545.03140011 0 1042.14550205 0 12807
0.10850000 0.10850100 15624.72370081 0 294.81066960 0 5311.59640090 0 -703.55011426 0 1417.78770589 0 12736
0.10950000 0.10950300 15425.74762756 0 206.90738819 0 5723.21290204 0 253.60243646 0 1295.80672185 0 12933
0.11050000 0.11050200 15240.96828640 0 79.37182181 0 5457.98910942 0 179.00859139 0 880.62107353 0 13428
0.11150000 0.11150900 14926.75467686 0 179.64078961 0 5396.33314558 0 7.01338530 0 817.73842332 0 13453
0.11250000 0.11250000 15016.48246017 0 188.49267390 0 5319.10514123 0 247.85054172 0 93.27519174 0 13668
0.11350000 0.11349100 14575.05282163 0 205.33243822 0 5674.01235238 0 -478.74707979 0 763.76422249 0 13791
0.11450000 0.11448600 14248.97163135 0 292.86860102 0 5435.36306764 0 -359.31041633 0 -558.70351859 0 14205
0.11550000 0.11549300 14122.53198614 0 232.62121919 0 6339.43980448 0 -306.59728460 0 12.38864517 0 14776
0.11650000 0.11649800 13862.11068180 0 91.32092284 0 5484.75216765 0 208.09969186 0 -527.41414288 0 14553
0.11750000 0.11747300 14013.72734408 0 -244.69065971 0 6012.10530895 0 965.20032322 0 -564.99222726 0 14568
0.11850000 0.11849100 14092.25301847 0 -46.65511996 0 4763.32526216 0 423.84565490 0 -56.29037549 0 16015
0.11950000 0.11950300 14128.07758462 0 143.45243221 0 4347.47192378 0 628.69340781 0 -94.31743152 0 15270
0.12050000 0.12050700 13929.43424727 0 37.92978624 0 4436.81151520 0 467.27878215 0 530.50858683 0 15999
0.12150000 0.12150000 13644.16866176 0 331.69999065 0 3709.79464644 0 127.92253824 0 -145.36566368 0 15670
0.12250000 0.12250700 13151.83042923 0 302.00885642 0 4147.27581886 0 -1.74643096 0 1132.32247884 0 16887
0.12350000 0.12352200 12791.36652842 0 228.88015846 0 3797.73674704 0 140.40678953 0 95.20295268 0 16407
0.12450000 0.12449800 12732.91592050 0 46.45181832 0 4156.75879225 0 176.06942419 0 788.15487370 0 16306
0.12550000 0.12549900 12661.82134806 0 13.33117508 0 3447.22164989 0 351.77949361 0 411.76734142 0 17523
0.12650000 0.12650100 12268.63841625 0 211.31724810 0 3378.61150556 0 165.84334061 0 822.54867543 0 17154
0.12750000 0.12750600 12411.16029703 0 -74.27674775 0 3027.94113165 0 285.19238361 0 784.44486832 0 18007
0.12850000 0.12850300 12462.73436284 0 -95.14794035 0 2975.76814121 0 553.74353532 0 283.14938513 0 17496
0.12950000 0.12949900 12376.99941043 0 55.61359065 0 2527.25122782 0 56.51231034 0 500.29394810 0 18405
0.13050000 0.13049000 12374.22661119 0 205.83930592 0 2737.35177161 0 -270.52205741 0 -56.60902558 0 18100
0.13150000 0.13148800 11982.48553498 0 311.74470910 0 2582.50757101 0 -787.16997541 0 28.60918797 0 19059
0.13250000 0.13249300 11645.86770760 0 280.51633498 0 3192.60104155 0 -282.61146208 0 -968.35909611 0 18957
0.13350000 0.13349100 11618.02880326 0 80.89408859 0 3735.75913849 0 -386.38957368 0 -976.88268097 0 19468
0.13450000 0.13450700 11333.42868957 0 205.64077350 0 3672.18439759 0 -203.90943765 0 -1902.53955971 0 19953
0.13550000 0.13551000 11273.31440211 0 112.87732958 0 3695.88628547 0 195.15848326 0 -1168.42432490 0 19956
0.13650000 0.13649900 10960.44282740 0 -16.29707206 0 3205.25609726 0 300.82764395 0 -1212.12364088 0 19723
0.13750000 0.13749600 11275.64355347 0 -148.11295317 0 3086.59138111 0 756.65143788 0 -1165.48515771 0 20946
0.13850000 0.13851100 11445.89342663 0 -126.48622824 0 2477.74012464 0 580.88258513 0 -635.25939641 0 20955
0.13950000 0.13949800 11243.70090626 0 115.39503129 0 2332.31235026 0 98.34752884 0 -618.62703746 0 20506
0.14050000 0.14048300 11238.59895566 0 255.35151822 0 2647.18034042 0 -624.45213410 0 -152.14682150 0 21447
0.14150000 0.14148400 10957.43711303 0 111.69057151 0 2597.19231577 0 0.82788354 0 -742.64880174 0 21771
0.14250000 0.14249400 10932.71483503 0 81.72104823 0 2578.68110807 0 292.59464845 0 -153.28477830 0 22470
0.14350000 0.14350900 10778.11464077 0 22.56626022 0 2577.67180915 0 373.19215844 0 -451.08896196 0 22519
0.14450000 0.14449900 10694.23191825 0 134.13804501 0 2287.48173219 0 282.75675676 0 334.27425746 0 22218
0.14550000 0.14550500 10643.04604433 0 130.77297586 0 2381.50180872 0 27.30408682 0 -381.44844544 0 23559
0.14650000 0.14650700 10129.19088972 0 189.93563862 0 2137.16273995 0 -126.36533419 0 82.00653564 0 23044
0.14750000 0.14750500 10124.58804299 0 150.21806235 0 2397.78368584 0 -34.23264664 0 156.39142257 0 23649
0.14850000 0.14849900 9923.61555429 0 95.38418284 0 2144.19455882 0 32.04623899 0 -301.29901982 0 23640
0.14950000 0.14949500 9800.95800724 0 134.80351683 0 2374.03743318 0 -7.56580454 0 -43.06356857 0 24457
0.15050000 0.15050000 9488.35262125 0 273.96809230 0 2569.87469769 0 -169.13409874 0 -235.05795516 0 24591
0.15150000 0.15149900 9400.80980374 0 147.80461789 0 2711.57582990 0 -81.81931624 0 412.48383274 0 25020
0.15250000 0.15250500 9389.62987721 0 -59.57115154 0 2940.73105005 0 349.84407974 0 577.93232674 0 25297
0.15350000 0.15350100 9342.90266447 0 -80.37391145 0 2705.64203953 0 361.90021082 0 444.99656748 0 25452
0.15450000 0.15450400 9638.66052229 0 -3.69850381 0 2538.05405365 0 -134.15135445 0 621.12033854 0 26061
0.15550000 0.15549900 9648.04367491 0 56.87011235 0 2986.81497337 0 -284.78977316 0 226.93032604 0 26128
0.15650000 0.15649500 9524.92029759 0 190.25617421 0 3217.30113715 0 -509.55398843 0 309.38450239 0 26331
0.15750000 0.15749700 9198.81692492 0 237.35716029 0 3239.46134865 0 -461.08767601 0 -219.87521566 0 27345
0.15850000 0.15849900 9279.01737005 0 59.25704885 0 3597.76246606 0 81.82874376 0 -46.56838680 0 26980
0.15950000 0.15949700 9141.74162542 0 -7.67998841 0 3445.66888231 0 500.89952746 0 -45.32395450 0 27777
0.16050000 0.16050000 9114.97856719 0 1.74630896 0 3317.35482482 0 438.60692892 0 -20.36898320 0 28224
0.16150000 0.16150500 9097.93139748 0 13.41890645 0 2945.48917354 0 305.23639473 0 394.94199565 0 28075
0.16250000 0.16249700 9039.70261350 0 118.12457486 0 2802.24636495 0 218.72284030 0 548.02824153 0 28590
0.16350000 0.16349900 8894.01974158 0 148.33366799 0 2842.27449474 0 178.40190291 0 1550.02804710 0 29163
0.16450000 0.16449100 8640.89644483 0 143.61214544 0 2700.28499141 0 12.92679004 0 783.14830739 0 28996
0.16550000 0.16550500 8558.94359058 0 67.18503643 0 2696.23670452 0 132.43887364 0 1548.10927003 0 30777
0.16650000 0.16650700 8591.20788250 0 -48.23284273 0 2678.92334609 0 264.85223753 0 933.54493801 0 29211
0.16750000 0.16749900 8480.44009858 0 5.07081761 0 2522.85911383 0 157.39073941 0 1393.17633986 0 30922
0.16850000 0.16850800 8497.27653555 0 117.81623958 0 2330.99249782 0 86.89165334 0 1104.86289343 0 30867
0.16950000 0.16949900 8325.40734764 0 164.20517082 0 2177.80088557 0 -83.23887854 0 1377.00537471 0 30852
0.17050000 0.17049200 8188.97453398 0 152.66256215 0 2407.55503035 0 -18.27452156 0 1212.25673524 0 31257
0.17150000 0.17149500 7925.76933920 0 148.14733588 0 2450.17850023 0 -40.90322523 0 1121.08709633 0 32608
0.17250000 0.17250900 7826.34784976 0 64.99419229 0 2379.77158200 0 101.13873947 0 1221.18514879 0 32361
0.17350000 0.17350400 7773.01028363 0 8.16831163 0 2462.11262814 0 106.64130410 0 1037.63138489 0 32508
0.17450000 0.17449800 7817.60798656 0 -15.16987371 0 2008.10557226 0 204.21444557 0 943.27191774 0 32791
0.17550000 0.17549800 7849.37317462 0 -32.03636783 0 1994.92923029 0 122.72853071 0 932.71975296 0 33633
0.17650000 0.17650100 7804.74219810 0 49.33475315 0 1971.65989909 0 -42.80503277 0 775.52976421 0 33984
0.17750000 0.17750300 7874.19527339 0 86.33786988 0 1775.27916593 0 -110.14212950 0 456.85527525 0 34069
0.17850000 0.17849800 7655.94269984 0 15.03189922 0 1870.85201003 0 -12.09428480 0 384.95326368 0 34536
