### header ###
fiducial parameters:
Omega_m = 0.31
Omega_nu = 0
Omega_de = 0.69
Omega_k = 0
H_0 = 100
w_de = -1
zeff = 0
beta = 0
fgrowth = 0
b_1 = 2
gamma = 0.55
Lx = 3500 Ly = 3500 Lz = 3500
nx = 700 ny = 700 nz = 700
xoffset = 1379.75464 yoffset = 22.6059522 zoffset = 368.141391
bins = 400 dk = 0.001
kx_ny = 0.628318531 ky_ny = 0.628318531 kz_ny = 0.628318531
############################
A(data) = 3.34636729 (not used)
A(ran) = 3.35041355 (used)
Ngal = 188154
weighted Ngal = 0
Nran = 9399747
weighted Nran = 0
SN(data) = 6620.59208
SN(ran) = 133.263982
SN(data+ran) = 6753.85606
############################
13 columns: k_central k_mean P_0(k) sigma^{lin}_{P_0(k)} P^img_1(k) sigma^{lin}_{P_1(k)} P_2(k) sigma^{lin}_{P_2(k)} P^img_3(k) sigma^{lin}_{P_3(k)} P_4(k) sigma^{lin}_{P_4(k)} N_modes
### header ###
0.00050000 0 0 0 0 0 0 0 0 0 0 0 0
0.00150000 0.00179520 14550.98492425 0 -24786.82876383 0 -29415.07433835 0 32259.07905981 0 42326.33670578 0 3
0.00250000 0.00253879 17338.31362931 0 -17438.35622578 0 -1772.62836986 0 -48481.06371628 0 -44454.29375226 0 6
0.00350000 0.00331552 31664.70181536 0 -6109.67456850 0 -38118.89114347 0 20502.85394258 0 26706.93677950 0 7
0.00450000 0.00420575 48046.51061985 0 -15740.07214907 0 -30584.30832063 0 -16437.70843711 0 -5061.80046323 0 24
0.00550000 0.00557378 66789.08069478 0 -14509.94749554 0 -38618.54956599 0 -11334.09416139 0 8906.60825012 0 45
0.00650000 0.00659388 103821.25636126 0 -22522.33908291 0 -77165.56091166 0 13962.26419024 0 -13652.70888341 0 40
0.00750000 0.00754703 80253.57196598 0 -1561.68489510 0 -29480.95604822 0 -44849.69492347 0 -23538.07089943 0 57
0.00850000 0.00846663 113451.85358337 0 2502.40694665 0 -57926.65977330 0 -30892.64359579 0 -28965.54812604 0 75
0.00950000 0.00948925 87491.57618242 0 5022.20489012 0 -10740.02747045 0 -42490.37550864 0 -5046.60552341 0 112
0.01050000 0.01054430 85333.11834433 0 6929.20311101 0 -5266.22231418 0 -34350.21333243 0 -46108.10212921 0 105
0.01150000 0.01145670 84454.80645800 0 105.94255869 0 17188.47155854 0 -21649.01823521 0 -57583.49813972 0 144
0.01250000 0.01249090 94223.59999408 0 -3335.82166774 0 19515.95923812 0 -12474.93467948 0 -61884.22066836 0 169
0.01350000 0.01339930 98348.63796307 0 -615.92522189 0 39581.37637306 0 -11909.17272315 0 -37056.57629977 0 180
0.01450000 0.01448870 104256.14219360 0 552.14418472 0 29472.08309066 0 5958.41282452 0 -57954.05502976 0 267
0.01550000 0.01550050 108066.52290516 0 2230.47297988 0 31372.22695183 0 3133.52932660 0 -29587.43153893 0 238
0.01650000 0.01653350 91916.96376476 0 4020.45907296 0 39955.70427006 0 5114.84965823 0 -19247.44136001 0 315
0.01750000 0.01747870 99266.43451053 0 4650.01759413 0 40541.87402878 0 9071.96690542 0 -20749.30033877 0 297
0.01850000 0.01844180 89699.50075890 0 5494.81188329 0 33635.94024897 0 -2377.08751234 0 -2605.63271665 0 388
0.01950000 0.01947590 78260.04022651 0 5055.34538661 0 33282.02015435 0 4175.74692143 0 -10366.06558294 0 399
0.02050000 0.02045430 77349.67478100 0 3458.91177147 0 46758.60083023 0 3465.45557767 0 -1015.05192615 0 462
0.02150000 0.02154770 71201.38066472 0 -335.04953213 0 24407.62074017 0 10495.73276647 0 -4765.04439768 0 571
0.02250000 0.02255340 73643.77314469 0 217.78563416 0 18868.78789619 0 13528.59838956 0 -10630.79027170 0 510
0.02350000 0.02348930 71725.77245643 0 -1927.89403593 0 14783.23458835 0 -2198.36396471 0 -4580.91943715 0 555
0.02450000 0.02439640 71934.61969497 0 2362.39167638 0 6009.23268894 0 7472.09501923 0 -12706.62978373 0 592
0.02550000 0.02547300 68047.70972446 0 2408.80833561 0 9378.88250737 0 -2390.56331663 0 -3277.06050631 0 837
0.02650000 0.02652900 64538.89865792 0 502.14395975 0 6611.60668640 0 -3729.18205870 0 -14502.73821753 0 723
0.02750000 0.02749970 66403.88342476 0 2104.13315544 0 14127.41211280 0 -1609.06648846 0 -7181.61657116 0 826
0.02850000 0.02848090 61117.04257546 0 924.89380439 0 9682.84785093 0 -908.19822563 0 -12660.49040443 0 831
0.02950000 0.02946900 59824.03083523 0 2336.09444842 0 20216.36832540 0 93.18246934 0 4155.22820708 0 996
0.03050000 0.03053250 58978.32706793 0 807.44801079 0 13331.06417192 0 1022.80910929 0 -1377.21610745 0 1041
0.03150000 0.03150510 58721.56585858 0 828.90614952 0 18875.77535027 0 4045.95773474 0 -3949.54195967 0 1036
0.03250000 0.03246190 57043.68958425 0 1783.37573970 0 20271.04792636 0 -2644.32990280 0 6002.96616267 0 1059
0.03350000 0.03345080 54370.82203170 0 1912.94310245 0 20080.72298673 0 369.80823425 0 1086.63562037 0 1302
0.03450000 0.03451200 52779.90074145 0 2106.82831630 0 25408.15761687 0 1145.50991201 0 3567.86059909 0 1339
0.03550000 0.03553350 49428.25193566 0 2565.31621575 0 22323.47392163 0 -2660.17922324 0 -3478.77610520 0 1365
0.03650000 0.03647120 49350.72446899 0 1753.99515898 0 25534.81908601 0 118.49502084 0 1552.88957592 0 1308
0.03750000 0.03744890 45258.07279510 0 818.00683028 0 26837.92381546 0 1360.29094091 0 2085.07847908 0 1579
0.03850000 0.03847530 44053.79063046 0 730.03700169 0 25303.78945358 0 1870.20872061 0 1053.66592832 0 1662
0.03950000 0.03950240 43061.01759163 0 926.81258146 0 24554.24636382 0 1210.16049902 0 -3064.50880799 0 1683
0.04050000 0.04050350 43336.74474776 0 930.07228425 0 22883.46845554 0 2057.13975397 0 -1725.01386136 0 1822
0.04150000 0.04152450 42278.64455890 0 -1045.13790699 0 22094.10796874 0 74.28417886 0 -728.45317876 0 1887
0.04250000 0.04250150 42934.13429854 0 -242.44469233 0 20024.15788229 0 2106.05193251 0 -2755.72988495 0 1920
0.04350000 0.04349210 44081.74044677 0 124.51421342 0 19013.08436849 0 1988.24123853 0 -6915.25038525 0 2005
0.04450000 0.04448520 43815.66263198 0 11.12646695 0 16860.61577675 0 1587.02828012 0 -5733.16170570 0 2151
0.04550000 0.04548030 42346.07903634 0 507.26143803 0 18017.64944239 0 610.93751062 0 398.07858615 0 2274
0.04650000 0.04648670 43514.42572287 0 270.83593828 0 17335.76265401 0 1653.47564104 0 -2226.77961129 0 2311
0.04750000 0.04749250 41788.63547773 0 133.58681252 0 11580.65146955 0 717.03035503 0 -6049.22754514 0 2568
0.04850000 0.04851840 41821.57633266 0 1232.81981439 0 16250.26720869 0 -285.91885701 0 -1330.13397641 0 2493
0.04950000 0.04949480 39647.36899490 0 1600.00498055 0 17266.66449702 0 -1893.65551095 0 -8373.83151351 0 2644
0.05050000 0.05050630 38591.93069331 0 1639.94438076 0 17807.80399613 0 -773.32150690 0 -2098.76501612 0 2829
0.05150000 0.05149060 36978.27244931 0 411.01203091 0 18208.52894187 0 -1560.18758351 0 -6248.74708704 0 2784
0.05250000 0.05249300 37055.02353219 0 -63.19730748 0 19167.91747789 0 2844.21545421 0 -4443.90988124 0 3055
0.05350000 0.05348950 37485.80562166 0 23.33898391 0 17547.93725163 0 1718.73624388 0 -6947.82523068 0 3009
0.05450000 0.05448610 36747.57555279 0 110.36583894 0 16237.06868432 0 94.50243269 0 -4130.46156429 0 3336
0.05550000 0.05550870 36129.01949899 0 1122.62877271 0 17478.06271086 0 -242.24726902 0 -4451.04152088 0 3349
0.05650000 0.05647670 35510.46344519 0 895.09841291 0 18296.59304564 0 87.61790492 0 -3829.50193510 0 3324
0.05750000 0.05747970 33679.41774100 0 872.67312180 0 16881.02357913 0 1970.65060017 0 -5706.48737704 0 3639
0.05850000 0.05849280 32635.07063636 0 935.94618215 0 16965.87123579 0 360.63470525 0 -2959.65263204 0 3846
0.05950000 0.05951020 31449.31077062 0 305.50258346 0 16131.92413725 0 1070.00991614 0 -1803.75026849 0 3787
0.06050000 0.06049470 31349.82273400 0 -252.34580385 0 13790.12881360 0 4359.84969957 0 -821.47726581 0 3930
0.06150000 0.06148310 31495.22832599 0 -192.08622171 0 13090.93975799 0 1086.12209795 0 -804.50551624 0 4083
0.06250000 0.06249100 31327.19669222 0 215.27902365 0 10512.55811224 0 511.62249667 0 -1569.84801605 0 4303
0.06350000 0.06350600 30892.19994791 0 515.41124954 0 10722.14846097 0 -257.08396318 0 -1582.01505910 0 4470
0.06450000 0.06451750 30563.67869431 0 22.37160972 0 10856.92868628 0 -249.93457763 0 -1707.78923250 0 4479
0.06550000 0.06550280 30639.43156946 0 -41.00770430 0 11707.86749854 0 748.88094530 0 -878.50709140 0 4636
0.06650000 0.06648880 31542.69864893 0 -629.87683853 0 9359.30654476 0 1994.19721129 0 -3332.70504140 0 4653
0.06750000 0.06749660 30950.53964386 0 -233.16690608 0 8577.67662223 0 568.64012194 0 -1528.63312819 0 5220
0.06850000 0.06852730 31501.43939628 0 1312.23278454 0 9838.19115539 0 -2254.74051880 0 -542.71777643 0 5029
0.06950000 0.06949320 30434.68807380 0 713.29151254 0 11157.96595385 0 -438.16217192 0 -1208.60773145 0 5040
0.07050000 0.07048030 29941.24072157 0 271.76094410 0 10634.65000824 0 513.41927057 0 1290.32767056 0 5475
0.07150000 0.07148790 29423.94729591 0 101.15959092 0 11103.84091274 0 1064.62403091 0 -306.11038105 0 5509
0.07250000 0.07249820 29916.50735238 0 -142.95443747 0 11512.32969635 0 1778.31815389 0 3133.68460336 0 5916
0.07350000 0.07351270 29008.58197020 0 185.81525895 0 9796.62134923 0 842.94982310 0 285.15356442 0 5721
0.07450000 0.07449140 29155.87306567 0 769.58377353 0 11513.99337589 0 -659.67555737 0 1948.55693585 0 6028
0.07550000 0.07549160 28038.98953298 0 724.08657453 0 10872.70036834 0 -839.18657998 0 2033.07185659 0 6183
0.07650000 0.07648840 27189.18202281 0 537.31192704 0 11070.98878738 0 538.13045737 0 776.94500094 0 6330
0.07750000 0.07749960 26714.70061737 0 541.69960455 0 10477.89812177 0 478.88239239 0 1165.25224258 0 6583
0.07850000 0.07848650 25867.22225855 0 84.97054712 0 9805.50539798 0 578.59003472 0 -1822.61639450 0 6549
0.07950000 0.07947320 26237.66823662 0 194.02052645 0 8714.80818129 0 1001.01379817 0 8.60715702 0 6828
0.08050000 0.08048110 25215.72534981 0 476.72293635 0 7477.79589446 0 878.22537499 0 -1548.12036123 0 7147
0.08150000 0.08149960 23708.76442046 0 701.32965663 0 7708.78116210 0 -59.69814575 0 -110.11240509 0 7386
0.08250000 0.08250610 23250.36525059 0 916.61200763 0 7960.96170712 0 -836.28512285 0 -988.06704397 0 7227
0.08350000 0.08350160 22314.26822816 0 948.10657049 0 9230.52665699 0 711.52135750 0 27.33747133 0 7798
0.08450000 0.08449610 20552.87524081 0 564.17369693 0 8766.72607421 0 -185.84853254 0 247.43573096 0 7371
0.08550000 0.08548940 20726.78520896 0 132.59525952 0 9104.02046460 0 916.04302923 0 1710.71730849 0 8256
0.08650000 0.08650700 20555.53712808 0 -52.15801733 0 8821.67186389 0 442.62416045 0 1384.11483196 0 8037
0.08750000 0.08749060 20458.71097872 0 358.67045427 0 9083.64593581 0 116.83023217 0 588.40130754 0 8155
0.08850000 0.08849210 20019.72140351 0 291.09955510 0 9211.34997747 0 -950.24495326 0 2168.72828647 0 8718
0.08950000 0.08949900 19666.57769268 0 307.46128884 0 9915.98481079 0 -81.55889493 0 1080.79610518 0 8571
0.09050000 0.09049190 19442.97916220 0 79.09864563 0 10558.61985316 0 72.77688519 0 1223.82485366 0 8932
0.09150000 0.09150830 19771.61132778 0 -44.67700499 0 9265.61920414 0 752.46672928 0 1073.66446554 0 9285
0.09250000 0.09250820 19925.77896536 0 -330.64078134 0 9170.57873749 0 1830.87933623 0 1774.74678847 0 9204
0.09350000 0.09350330 20240.43622278 0 -234.57770634 0 7944.75746838 0 868.05807475 0 2264.06821543 0 9349
0.09450000 0.09448040 20392.05288506 0 73.83298896 0 7768.60707844 0 279.00238659 0 1175.23431983 0 9564
0.09550000 0.09549270 19857.01354428 0 411.44236935 0 7568.01169044 0 259.76803284 0 2474.94514301 0 10155
0.09650000 0.09649430 19568.97515954 0 480.34421215 0 6919.85323198 0 -195.17290182 0 1836.43602590 0 9913
0.09750000 0.09749140 18655.17144297 0 315.85621581 0 7328.70802508 0 55.55636007 0 2541.42577752 0 10476
0.09850000 0.09850240 18526.51355837 0 475.79127580 0 8204.30256816 0 749.07947773 0 2083.70317066 0 10575
0.09950000 0.09950330 18033.84258993 0 283.91578684 0 7014.50550674 0 -30.22894637 0 2131.52841190 0 10882
0.10050000 0.10051200 17500.24510475 0 278.09512668 0 7801.30392705 0 466.48576156 0 2349.53697912 0 10875
0.10150000 0.10150300 17076.00682148 0 286.70965935 0 6738.93362736 0 427.29612627 0 1326.31860466 0 11118
0.10250000 0.10250800 16596.86711332 0 290.64481603 0 7328.90766663 0 29.95754478 0 2335.24042625 0 11575
0.10350000 0.10349800 16293.19014088 0 114.81496169 0 6116.89493772 0 65.64402552 0 756.06915005 0 11364
0.10450000 0.10450100 16293.30105285 0 137.00511942 0 6972.64732945 0 465.38218747 0 1433.04919289 0 12093
0.10550000 0.10551000 15978.20014755 0 353.42875459 0 6066.05289091 0 -130.82621360 0 842.30986104 0 12067
0.10650000 0.10649700 15800.96282032 0 -9.43919644 0 6736.77084396 0 -52.86896305 0 1146.43048136 0 12054
0.10750000 0.10749900 15436.28426466 0 252.85156243 0 6247.16104587 0 -96.25206900 0 -65.77368161 0 12807
0.10850000 0.10850100 15291.65505645 0 238.27107492 0 6562.61686948 0 -548.09478871 0 -372.83502189 0 12736
0.10950000 0.10950300 15210.13475888 0 -4.63740690 0 6597.68723423 0 43.40695202 0 -231.30802147 0 12933
0.11050000 0.11050200 15233.09353657 0 -33.49940761 0 6666.95175917 0 657.05692577 0 -1095.38213828 0 13428
0.11150000 0.11150900 15323.37587973 0 26.23600456 0 5961.32980932 0 -39.20571753 0 -852.44832417 0 13453
0.11250000 0.11250000 15303.63354916 0 216.82291826 0 5334.84354970 0 218.66627519 0 -1366.43546402 0 13668
0.11350000 0.11349100 14795.32399302 0 103.84388240 0 5848.19960045 0 364.69075597 0 -318.63345153 0 13791
0.11450000 0.11448600 14681.52831233 0 116.87348784 0 5064.68417444 0 347.68462369 0 -1324.94329624 0 14205
0.11550000 0.11549300 14500.63089011 0 52.67087428 0 5100.66401734 0 694.32223840 0 -680.41942302 0 14776
0.11650000 0.11649800 14534.45904080 0 247.73741151 0 4589.03819331 0 180.45377435 0 -1153.85049211 0 14553
0.11750000 0.11747300 13908.36097307 0 233.20017967 0 4638.11673981 0 -252.99463887 0 -483.94552380 0 14568
0.11850000 0.11849100 13626.64457059 0 234.47566732 0 4550.25227758 0 -89.95992206 0 -341.63659400 0 16015
0.11950000 0.11950300 13547.67524831 0 162.05015125 0 5381.58185364 0 231.47771679 0 -354.17297391 0 15270
0.12050000 0.12050700 13228.13786424 0 215.56295829 0 4736.07419125 0 198.64111910 0 -289.43809380 0 15999
0.12150000 0.12150000 13399.49685709 0 140.06961714 0 5395.01329315 0 -62.42136734 0 528.91700007 0 15670
0.12250000 0.12250700 12759.20205727 0 162.46163466 0 4912.50186111 0 418.86127099 0 459.15669862 0 16887
0.12350000 0.12352200 12825.41650305 0 190.51459910 0 5629.83611493 0 -5.78189643 0 987.30507874 0 16407
0.12450000 0.12449800 12510.98106956 0 117.84285846 0 4737.09458137 0 335.74827754 0 452.49532573 0 16306
0.12550000 0.12549900 12430.79171563 0 113.20784725 0 5298.95243638 0 -43.26010458 0 1056.10488253 0 17523
0.12650000 0.12650100 12133.32581348 0 139.89437623 0 4876.68838616 0 374.36449795 0 927.81300743 0 17154
0.12750000 0.12750600 12061.78759316 0 160.38758083 0 4523.62231371 0 418.07157777 0 1350.46414042 0 18007
0.12850000 0.12850300 11846.95110827 0 0.94604915 0 4100.94788921 0 405.79140451 0 551.70386420 0 17496
0.12950000 0.12949900 11851.83123493 0 45.75440386 0 3466.52033258 0 257.97125894 0 1361.76607011 0 18405
0.13050000 0.13049000 11859.15142492 0 -75.34471911 0 3270.52779130 0 565.17634113 0 982.12881712 0 18100
0.13150000 0.13148800 11810.79380622 0 5.03838695 0 2841.59793173 0 -21.00450878 0 803.92544664 0 19059
0.13250000 0.13249300 11954.09207079 0 57.89604807 0 3234.75868115 0 -166.67739862 0 -9.06759697 0 18957
0.13350000 0.13349100 11590.07898695 0 230.50169146 0 3218.19952410 0 -469.79315649 0 321.54599985 0 19468
0.13450000 0.13450700 11481.60708080 0 294.65428372 0 3787.23338353 0 -548.02935065 0 -19.59603768 0 19953
0.13550000 0.13551000 11252.79568776 0 181.46418239 0 4108.95573341 0 -241.24573394 0 -169.80955264 0 19956
0.13650000 0.13649900 11160.84966506 0 -51.52981193 0 4115.55499559 0 423.59499385 0 -194.14363874 0 19723
0.13750000 0.13749600 11295.27497207 0 -212.15796082 0 3974.45278802 0 855.90545025 0 398.80727779 0 20946
0.13850000 0.13851100 11590.63354680 0 -197.34123082 0 3241.40230812 0 931.61728798 0 1151.38824639 0 20955
0.13950000 0.13949800 11695.77809387 0 34.39524359 0 3247.96829671 0 80.21242363 0 807.01434499 0 20506
0.14050000 0.14048300 11482.49437656 0 345.34992674 0 2781.51691786 0 -317.19270504 0 1346.72640704 0 21447
0.14150000 0.14148400 11207.65451618 0 209.78333556 0 3753.91542790 0 -415.86997517 0 1162.03579546 0 21771
0.14250000 0.14249400 11105.83732819 0 78.83400967 0 3461.59584113 0 -172.60009779 0 1133.22086579 0 22470
0.14350000 0.14350900 10925.40573624 0 112.50688360 0 3578.54142175 0 316.71023798 0 855.63482505 0 22519
0.14450000 0.14449900 10801.09560084 0 123.24981697 0 3244.92930875 0 170.58482730 0 239.13064268 0 22218
0.14550000 0.14550500 10649.80058327 0 64.38195822 0 3341.13435108 0 -55.06524187 0 281.70752953 0 23559
0.14650000 0.14650700 10597.08412418 0 121.44527922 0 3515.76524703 0 -11.01027558 0 -5.15732894 0 23044
0.14750000 0.14750500 10404.44112439 0 145.08616552 0 3161.94497318 0 -258.40936122 0 -325.88487609 0 23649
0.14850000 0.14849900 10180.27694287 0 165.82892205 0 3417.26432693 0 -244.89806510 0 -785.85345033 0 23640
0.14950000 0.14949500 10023.73578914 0 193.11659390 0 3436.04172336 0 -55.75134332 0 -638.09430635 0 24457
0.15050000 0.15050000 9807.98982610 0 62.24557186 0 3337.00842581 0 510.78400218 0 -573.15645733 0 24591
0.15150000 0.15149900 9626.28274650 0 107.98123160 0 3199.42212767 0 244.74167922 0 -208.38251738 0 25020
0.15250000 0.15250500 9520.81655472 0 159.43484701 0 2908.08965743 0 190.99373881 0 -150.44986836 0 25297
0.15350000 0.15350100 9470.04105509 0 51.90258706 0 2913.69071189 0 365.96735274 0 143.04316704 0 25452
0.15450000 0.15450400 9165.80952280 0 69.43333296 0 2605.88781418 0 -106.35126930 0 16.94169243 0 26061
0.15550000 0.15549900 9340.67333388 0 50.84803606 0 2709.29104333 0 197.83922556 0 -32.85245810 0 26128
0.15650000 0.15649500 9009.68983456 0 127.91255616 0 2830.97256505 0 -267.17029769 0 188.89972082 0 26331
0.15750000 0.15749700 8994.65017149 0 149.61359211 0 2407.55503035 0 39.33459724 0 -106.21052201 0 27345
0.15850000 0.15849900 8882.08561367 0 -66.49804769 0 2636.44406177 0 267.08822283 0 -205.71619364 0 26980
0.15950000 0.15949700 8899.90916716 0 8.98659796 0 2421.04192584 0 134.61274824 0 -529.78433167 0 27777
0.16050000 0.16050000 8941.87825641 0 143.90162569 0 2527.82797006 0 -44.42235111 0 -102.47966518 0 28224
0.16150000 0.16150500 8748.78051755 0 146.59124094 0 2368.86893540 0 -123.20545218 0 -178.90655237 0 28075
0.16250000 0.16249700 8700.06798055 0 0.94530826 0 2510.47024684 0 52.77302420 0 -345.68820824 0 28590
0.16350000 0.16349900 8618.99133086 0 21.81239157 0 2316.13029391 0 110.98628050 0 40.65977345 0 29163
0.16450000 0.16449100 8775.54357578 0 24.81555496 0 2523.31385290 0 211.20855437 0 -206.18535127 0 28996
0.16550000 0.16550500 8638.73366143 0 -24.37978184 0 2185.72000019 0 39.63705418 0 94.91779801 0 30777
0.16650000 0.16650700 8730.31367463 0 108.16756371 0 2259.03281202 0 146.10766476 0 13.92599598 0 29211
0.16750000 0.16749900 8627.23209019 0 7.59495221 0 2037.97416565 0 190.01105876 0 203.96933012 0 30922
0.16850000 0.16850800 8629.94943344 0 49.95031458 0 2032.30656400 0 72.74749352 0 177.32938417 0 30867
0.16950000 0.16949900 8480.15172746 0 88.29335881 0 2046.27038096 0 83.49220147 0 211.89399034 0 30852
0.17050000 0.17049200 8479.02042537 0 61.07822339 0 2005.90951527 0 -35.55627009 0 282.79335771 0 31257
0.17150000 0.17149500 8250.59722422 0 37.79824464 0 1582.50307177 0 95.66479013 0 3.59998071 0 32608
0.17250000 0.17250900 8397.18957429 0 79.37093451 0 1899.83330765 0 141.21201043 0 407.39851894 0 32361
0.17350000 0.17350400 8164.30771197 0 79.11694610 0 1570.39148470 0 -40.41288341 0 -368.70909663 0 32508
0.17450000 0.17449800 8099.81240171 0 98.29761846 0 1784.25194426 0 -11.77363830 0 60.44779975 0 32791
0.17550000 0.17549800 7959.02074765 0 170.37187632 0 1775.02406840 0 -203.11087147 0 -233.29667309 0 33633
0.17650000 0.17650100 7838.75889914 0 191.99416477 0 2047.40168305 0 -240.52813350 0 -354.68316897 0 33984
0.17750000 0.17750300 7602.25021542 0 100.59904182 0 2029.52267357 0 -96.55308409 0 -713.92592900 0 34069
0.17850000 0.17849800 7480.00304265 0 57.73589119 0 2228.22146690 0 -42.88167294 0 -295.69131064 0 34536
