### header ###
fiducial parameters:
Omega_m = 0.31
Omega_nu = 0
Omega_de = 0.69
Omega_k = 0
H_0 = 100
w_de = -1
zeff = 0
beta = 0
fgrowth = 0
b_1 = 2
gamma = 0.55
Lx = 3500 Ly = 3500 Lz = 3500
nx = 700 ny = 700 nz = 700
xoffset = 1379.75464 yoffset = 22.6059522 zoffset = 368.141391
bins = 400 dk = 0.001
kx_ny = 0.628318531 ky_ny = 0.628318531 kz_ny = 0.628318531
############################
A(data) = 3.33571617 (not used)
A(ran) = 3.3362734 (used)
Ngal = 187452
weighted Ngal = 0
Nran = 9399747
weighted Nran = 0
SN(data) = 6661.75569
SN(ran) = 132.701552
SN(data+ran) = 6794.45724
############################
13 columns: k_central k_mean P_0(k) sigma^{lin}_{P_0(k)} P^img_1(k) sigma^{lin}_{P_1(k)} P_2(k) sigma^{lin}_{P_2(k)} P^img_3(k) sigma^{lin}_{P_3(k)} P_4(k) sigma^{lin}_{P_4(k)} N_modes
### header ###
0.00050000 0 0 0 0 0 0 0 0 0 0 0 0
0.00150000 0.00179520 126364.22507049 0 -112449.20937925 0 -188736.68022851 0 210191.49160516 0 22210.67644866 0 3
0.00250000 0.00253879 221609.87886335 0 -110696.13478961 0 -71320.05647206 0 -167301.83300638 0 -8236.47813051 0 6
0.00350000 0.00331552 265090.69825947 0 -43759.65208740 0 -136005.80257758 0 -163409.93199725 0 11612.70502873 0 7
0.00450000 0.00420575 280002.81255635 0 22048.41223731 0 -81653.94649266 0 -185500.26895902 0 4289.95297641 0 24
0.00550000 0.00557378 188563.65755612 0 53251.60934765 0 26297.67161211 0 -125856.24825026 0 8931.50798727 0 45
0.00650000 0.00659388 149624.68331030 0 46125.73713236 0 50195.65185251 0 24332.42242486 0 -70837.70031679 0 40
0.00750000 0.00754703 101444.74559116 0 14890.59737481 0 92902.08387770 0 -5781.08676772 0 -47548.62678885 0 57
0.00850000 0.00846663 92565.57696229 0 12855.14091087 0 70085.16260385 0 36934.79495728 0 -39542.44627177 0 75
0.00950000 0.00948925 85104.41786325 0 3233.78265581 0 75618.78258526 0 24741.79850422 0 -17975.50289398 0 112
0.01050000 0.01054430 83054.21010738 0 -5794.78439595 0 46762.03910128 0 16709.33185038 0 -4640.52352955 0 105
0.01150000 0.01145670 93149.08483374 0 -3279.64475520 0 14649.25292921 0 36229.06209546 0 1819.71050090 0 144
0.01250000 0.01249090 87174.25703773 0 729.05543076 0 25319.20621734 0 8875.23125395 0 2838.89167967 0 169
0.01350000 0.01339930 90599.77321519 0 3282.53955760 0 2867.16314069 0 7617.46733763 0 13783.14135953 0 180
0.01450000 0.01448870 78793.63771169 0 6229.19330682 0 22398.22858906 0 -271.29067735 0 23890.88187435 0 267
0.01550000 0.01550050 75485.57730991 0 7227.24575540 0 3453.88745925 0 3063.52169146 0 10387.49377545 0 238
0.01650000 0.01653350 65843.77797888 0 1527.24672857 0 20695.39712160 0 6941.61416039 0 23307.26309093 0 315
0.01750000 0.01747870 67428.37728687 0 -1941.49184339 0 7994.05783881 0 10900.41726952 0 25374.21855420 0 297
0.01850000 0.01844180 67300.38487409 0 -3809.65978376 0 2969.20215261 0 12659.71402064 0 9995.22032178 0 388
0.01950000 0.01947590 75126.11161682 0 -3205.30046205 0 -826.76887587 0 -5671.81629538 0 -1995.45051655 0 399
0.02050000 0.02045430 73015.12410166 0 146.31285190 0 6981.02118315 0 -7613.99579299 0 -1658.24485573 0 462
0.02150000 0.02154770 76081.95096981 0 71.60942580 0 1939.52870153 0 -6717.49434366 0 -3249.79834421 0 571
0.02250000 0.02255340 70366.65718239 0 -1058.69356790 0 1571.54496918 0 1571.99970826 0 4315.08562869 0 510
0.02350000 0.02348930 82698.18268534 0 -2994.70081440 0 -6309.61557589 0 10437.09360820 0 -12402.28733947 0 555
0.02450000 0.02439640 80716.74035054 0 -1966.66886046 0 -3333.21523646 0 11178.70649214 0 -6062.86971738 0 592
0.02550000 0.02547300 79942.35297961 0 2304.42908113 0 -13587.71446930 0 -5092.63399075 0 6111.92608148 0 837
0.02650000 0.02652900 74133.89313783 0 7168.82842107 0 576.22650065 0 -14341.02856602 0 6574.95028048 0 723
0.02750000 0.02749970 66248.38484355 0 7101.37176124 0 6527.32468079 0 -10183.02755971 0 4787.60389228 0 826
0.02850000 0.02848090 61271.32112501 0 4087.56081449 0 21423.64511322 0 -9351.30979176 0 -551.12490372 0 831
0.02950000 0.02946900 57578.50710109 0 639.68589311 0 18791.14951756 0 4585.72192542 0 -2985.41748255 0 996
0.03050000 0.03053250 58736.98262234 0 -1208.89610257 0 20881.50740639 0 9478.07108168 0 4004.43229337 0 1041
0.03150000 0.03150510 58803.52980403 0 -585.84589576 0 15186.39959741 0 2625.33068243 0 2120.62576530 0 1036
0.03250000 0.03246190 56329.19467685 0 3813.90771219 0 20553.31888869 0 -534.24077460 0 3896.50385586 0 1059
0.03350000 0.03345080 54516.89309551 0 5170.43873734 0 21999.38914680 0 -2841.54247574 0 8191.01531422 0 1302
0.03450000 0.03451200 48285.52591409 0 1241.70386314 0 22588.10988081 0 3079.06045839 0 10862.14154885 0 1339
0.03550000 0.03553350 44711.60952146 0 449.55283118 0 22178.51197751 0 4931.12398079 0 9304.03911036 0 1365
0.03650000 0.03647120 46328.04056470 0 563.81323303 0 19947.07406350 0 2542.97854509 0 7641.39104945 0 1308
0.03750000 0.03744890 45710.37180665 0 0.31325533 0 16941.58151447 0 2736.38683747 0 6746.10963179 0 1579
0.03850000 0.03847530 43892.30280290 0 458.76517937 0 13776.81937727 0 2172.02237196 0 4812.24853189 0 1662
0.03950000 0.03950240 44043.03216942 0 -138.51906781 0 9741.49810040 0 2112.71774188 0 9318.95677026 0 1683
0.04050000 0.04050350 43946.98240385 0 -582.32776809 0 9483.56122417 0 3793.82155452 0 4397.87032271 0 1822
0.04150000 0.04152450 46422.31573876 0 -623.56372922 0 9047.26680982 0 1168.64614884 0 8133.41872846 0 1887
0.04250000 0.04250150 44416.14003476 0 1366.85692951 0 8543.44918844 0 -3346.97941187 0 353.38549892 0 1920
0.04350000 0.04349210 42244.59458427 0 2997.72871117 0 13903.25902247 0 -3726.78636016 0 4033.30267902 0 2005
0.04450000 0.04448520 40385.26632787 0 2045.07253169 0 15187.84145302 0 -3277.32669503 0 2046.89148799 0 2151
0.04550000 0.04548030 39155.91805813 0 -105.66605515 0 18154.73663667 0 1812.11303099 0 5571.36332462 0 2274
0.04650000 0.04648670 40677.18663155 0 -2283.25598615 0 17486.60293251 0 6901.41966265 0 4524.34324151 0 2311
0.04750000 0.04749250 42218.19753553 0 -596.19730987 0 12244.45960690 0 2856.11630853 0 5616.27158107 0 2568
0.04850000 0.04851840 42128.24792828 0 1205.49110511 0 11249.80106458 0 -1204.44853259 0 6615.08932224 0 2493
0.04950000 0.04949480 41387.57779608 0 1453.87846076 0 15128.83628525 0 -1609.69868669 0 7285.45235699 0 2644
0.05050000 0.05050630 38177.67448729 0 1806.96671561 0 16993.71014013 0 -2298.53965555 0 5595.70850192 0 2829
0.05150000 0.05149060 37763.52919325 0 1788.94352057 0 21276.35401774 0 236.25469531 0 6482.63824828 0 2784
0.05250000 0.05249300 34604.09083058 0 768.26724845 0 19784.58802821 0 -1730.68146300 0 4726.94613617 0 3055
0.05350000 0.05348950 34806.39426291 0 316.26437186 0 20439.30138406 0 2500.84308789 0 2463.64321332 0 3009
0.05450000 0.05448610 35136.91193197 0 -121.87561767 0 20579.82684940 0 100.53903845 0 5277.56860866 0 3336
0.05550000 0.05550870 35677.16413532 0 -435.38826356 0 19239.67752214 0 1672.10885191 0 1606.28259803 0 3349
0.05650000 0.05647670 35829.11353351 0 251.74466097 0 19194.53635056 0 407.61368816 0 2388.43380681 0 3324
0.05750000 0.05747970 35233.51625739 0 728.65282031 0 18419.03985994 0 -1195.00992399 0 -778.77172108 0 3639
0.05850000 0.05849280 33704.15111020 0 322.68617489 0 17778.41232421 0 1563.23766267 0 -274.73227577 0 3846
0.05950000 0.05951020 34708.23716992 0 -524.30084390 0 15735.74658226 0 3973.35475952 0 -245.85634451 0 3787
0.06050000 0.06049470 33963.01964697 0 -198.59564520 0 13294.13048608 0 3647.67285233 0 -1120.68781324 0 3930
0.06150000 0.06148310 33601.11389055 0 1549.36257529 0 13403.04604011 0 684.61411371 0 868.86884125 0 4083
0.06250000 0.06249100 31717.27408889 0 1264.20790175 0 10360.12070138 0 -706.64566732 0 -1140.24159346 0 4303
0.06350000 0.06350600 29872.47530050 0 641.01018202 0 11909.28363512 0 -540.90658397 0 -453.16523403 0 4470
0.06450000 0.06451750 28090.00903895 0 795.96196723 0 9518.23230583 0 50.85535625 0 -2024.40963178 0 4479
0.06550000 0.06550280 28428.17963390 0 345.74366423 0 10468.47060437 0 589.33518632 0 -1034.90516868 0 4636
0.06650000 0.06648880 28454.90941854 0 -404.11774289 0 8642.52685078 0 2872.39818565 0 -3554.30715642 0 4653
0.06750000 0.06749660 29236.39515551 0 -873.76227734 0 6465.24725147 0 2857.68016730 0 -1113.83345353 0 5220
0.06850000 0.06852730 28565.71047606 0 -108.15979987 0 5163.27382411 0 647.68042787 0 -565.83072175 0 5029
0.06950000 0.06949320 29011.46568140 0 527.44076175 0 5474.39298970 0 447.07727603 0 -79.60617880 0 5040
0.07050000 0.07048030 28449.14199613 0 236.05394465 0 4552.39287859 0 299.56213837 0 2292.20658209 0 5475
0.07150000 0.07148790 28298.41262960 0 175.39286118 0 6236.67986476 0 112.37489836 0 2360.37307854 0 5509
0.07250000 0.07249820 28251.38595454 0 29.66640086 0 5673.79052844 0 195.58549434 0 3104.39275222 0 5916
0.07350000 0.07351270 28182.28779756 0 3.81338643 0 5719.23116234 0 -494.88033487 0 1715.18706086 0 5721
0.07450000 0.07449140 28196.92817753 0 598.39447599 0 6532.34899300 0 -405.85795169 0 1697.60751370 0 6028
0.07550000 0.07549160 27131.95144656 0 1072.78493362 0 7110.46654273 0 -1538.74829981 0 1273.67978394 0 6183
0.07650000 0.07648840 25702.85071978 0 961.55908326 0 8770.85199947 0 -1224.13540718 0 -1032.14567888 0 6330
0.07750000 0.07749960 25245.89340551 0 283.90136828 0 8512.81530247 0 70.01029702 0 -1477.24761273 0 6583
0.07850000 0.07848650 24464.40766854 0 372.15956800 0 9324.97929020 0 367.70090683 0 -1637.30467589 0 6549
0.07950000 0.07947320 23927.48282428 0 465.73821489 0 7066.50103803 0 581.11328202 0 -2428.49521019 0 6828
0.08050000 0.08048110 23424.71886662 0 217.91318292 0 7289.25663754 0 196.29976743 0 -3626.48866616 0 7147
0.08150000 0.08149960 22936.92802483 0 383.27627470 0 6159.01930373 0 1005.77303078 0 -2075.24058739 0 7386
0.08250000 0.08250610 22357.74572020 0 151.15083201 0 6484.86757887 0 648.63094345 0 -3216.05892309 0 7227
0.08350000 0.08350160 22087.00960269 0 72.36362719 0 4608.19269044 0 290.90656828 0 -1983.84912454 0 7798
0.08450000 0.08449610 21933.17470102 0 -5.74978741 0 5626.66403261 0 894.56936282 0 -1476.40468176 0 7371
0.08550000 0.08548940 22450.24630274 0 208.41911833 0 4675.77135345 0 87.30468951 0 -1823.48150786 0 8256
0.08650000 0.08650700 21907.11038819 0 -10.10243892 0 4738.54752817 0 133.87851100 0 -516.16323270 0 8037
0.08750000 0.08749060 21427.97068003 0 264.63706830 0 5484.88526202 0 -321.27759288 0 -59.43273341 0 8155
0.08850000 0.08849210 21371.96013544 0 478.62507662 0 5339.21348130 0 396.60678431 0 400.23471483 0 8718
0.08950000 0.08949900 21206.70130091 0 210.27134822 0 6427.31535790 0 257.49544659 0 284.74540837 0 8571
0.09050000 0.09049190 20409.13332836 0 225.71916733 0 5403.43151163 0 -222.14447456 0 566.44628318 0 8932
0.09150000 0.09150830 20306.31793265 0 292.85861894 0 5590.17399465 0 500.30836666 0 -410.59611102 0 9285
0.09250000 0.09250820 19978.57306283 0 429.15501088 0 5677.36189386 0 -373.78442835 0 -698.93395809 0 9204
0.09350000 0.09350330 19440.09545100 0 248.68459973 0 4032.22683292 0 554.25705773 0 -415.89104845 0 9349
0.09450000 0.09448040 18838.95257640 0 380.71753556 0 5375.78115764 0 -283.44552009 0 -1352.90420374 0 9564
0.09550000 0.09549270 18066.45070896 0 631.85661718 0 4126.65728374 0 -660.52957953 0 -2529.64692636 0 10155
0.09650000 0.09649430 17866.58733995 0 157.15782428 0 4858.31027282 0 555.60241992 0 -2379.57194045 0 9913
0.09750000 0.09749140 17116.71151428 0 106.03395015 0 4163.33587205 0 -77.95924697 0 -2834.16682977 0 10476
0.09850000 0.09850240 17143.33038696 0 396.56352864 0 3618.00390049 0 -132.61855103 0 -3722.69370849 0 10575
0.09950000 0.09950330 16563.70443445 0 249.59962348 0 4353.50553492 0 413.33009107 0 -3088.14414869 0 10882
0.10050000 0.10051200 16079.57368766 0 297.35277194 0 3646.34190870 0 -32.04357710 0 -2338.63433252 0 10875
0.10150000 0.10150300 16156.54659448 0 92.24271222 0 4324.03622463 0 887.95679120 0 -2308.57718879 0 11118
0.10250000 0.10250800 15593.44652541 0 206.88853315 0 3664.80875162 0 260.03976717 0 -861.30131757 0 11575
0.10350000 0.10349800 15915.75670873 0 -8.08216631 0 3546.59877454 0 863.84341991 0 90.55052830 0 11364
0.10450000 0.10450100 15576.14425818 0 -130.50345977 0 2929.24057001 0 639.97537335 0 690.84071167 0 12093
0.10550000 0.10551000 15953.24495441 0 67.29495019 0 3189.15167929 0 416.23598467 0 1241.58185997 0 12067
0.10650000 0.10649700 15358.31315011 0 228.34999925 0 3317.62101355 0 30.95020691 0 1974.59906628 0 12054
0.10750000 0.10749900 15505.60424558 0 364.25819929 0 3607.77781691 0 -601.86712975 0 2391.93862505 0 12807
0.10850000 0.10850100 15128.39263738 0 256.07244602 0 4355.87905107 0 171.54310672 0 3026.23308732 0 12736
0.10950000 0.10950300 14670.32620341 0 138.67434456 0 4402.82808775 0 -210.86805462 0 2246.45539468 0 12933
0.11050000 0.11050200 15059.84904024 0 -102.72688796 0 4610.11146751 0 642.92674086 0 3380.97393051 0 13428
0.11150000 0.11150900 14974.11408783 0 -50.78337438 0 3981.02986781 0 225.21673611 0 2462.53409363 0 13453
0.11250000 0.11250000 15031.12284014 0 125.93499575 0 4295.43202770 0 -259.15801701 0 2547.15992634 0 13668
0.11350000 0.11349100 14869.85683651 0 -91.07614012 0 3703.70557931 0 259.83125267 0 2044.06323277 0 13791
0.11450000 0.11448600 15126.06348602 0 -54.49892536 0 3886.14467792 0 490.09004691 0 1539.18085649 0 14205
0.11550000 0.11549300 14994.85462612 0 92.23062281 0 2823.80765182 0 -187.18169442 0 1055.49486670 0 14776
0.11650000 0.11649800 14892.48287829 0 141.17540948 0 3096.58454957 0 -88.81431233 0 735.74009516 0 14553
0.11750000 0.11747300 14679.86463279 0 116.74261172 0 2646.33740945 0 -56.75809126 0 924.05420078 0 14568
0.11850000 0.11849100 14444.50943355 0 277.49842029 0 3190.98172679 0 -120.57683850 0 -170.92754529 0 16015
0.11950000 0.11950300 14040.67895266 0 521.63008367 0 3191.75811058 0 -454.29653612 0 -482.73214685 0 15270
0.12050000 0.12050700 13258.52774387 0 440.32828268 0 3570.11211207 0 -356.57865453 0 42.62968094 0 15999
0.12150000 0.12150000 13008.97581254 0 187.86713039 0 4419.66452472 0 209.90644784 0 398.91708064 0 15670
0.12250000 0.12250700 12930.33922618 0 -92.64066437 0 4012.44013756 0 681.28009990 0 882.77720222 0 16887
0.12350000 0.12352200 13026.16716781 0 57.75718628 0 4367.30298392 0 96.90922242 0 734.94707458 0 16407
0.12450000 0.12449800 12856.02820662 0 58.82404852 0 3368.77361387 0 -265.70182321 0 385.03644766 0 16306
0.12550000 0.12549900 12732.91592050 0 275.62733536 0 4330.91276674 0 -319.92113949 0 1045.78119641 0 17523
0.12650000 0.12650100 12520.40858697 0 73.82101047 0 4074.01846302 0 61.53274064 0 807.40919160 0 17154
0.12750000 0.12750600 12788.15008130 0 -246.77580474 0 3986.76401663 0 645.34351267 0 395.79712694 0 18007
0.12850000 0.12850300 13182.22030887 0 -121.87450855 0 3640.75194544 0 304.50215750 0 -979.29279806 0 17496
0.12950000 0.12949900 12930.78287405 0 163.63286506 0 3352.23663922 0 -409.04888905 0 -156.21285430 0 18405
0.13050000 0.13049000 12418.03683914 0 281.94155378 0 3243.80909786 0 -273.24494626 0 -735.40292277 0 18100
0.13150000 0.13148800 12414.59856808 0 120.30288594 0 2861.19607673 0 447.30464556 0 -65.25561180 0 19059
0.13250000 0.13249300 12285.60794758 0 -133.97167706 0 3007.67751483 0 743.03699363 0 -795.72794297 0 18957
0.13350000 0.13349100 12450.64495817 0 39.93219093 0 2443.97852113 0 441.83335811 0 -408.13497442 0 19468
0.13450000 0.13450700 12281.50420471 0 81.46805803 0 2023.62215679 0 -46.52834758 0 -540.05588916 0 19953
0.13550000 0.13551000 12066.00224800 0 208.58881365 0 2062.94044998 0 -509.95881712 0 -120.67665928 0 19956
0.13650000 0.13649900 12034.83598458 0 135.43349682 0 2518.13426393 0 159.11431142 0 -141.24417490 0 19723
0.13750000 0.13749600 11790.27509187 0 69.43044925 0 2312.24837498 0 -221.32039862 0 -839.54149828 0 20946
0.13850000 0.13851100 11841.40550980 0 98.09830965 0 2982.05684988 0 12.36080626 0 -269.15451282 0 20955
0.13950000 0.13949800 11788.94414824 0 150.60958160 0 2621.12711879 0 111.14488462 0 65.67374993 0 20506
0.14050000 0.14048300 11477.61424990 0 38.74909295 0 2881.42641997 0 103.21046415 0 -5.88079663 0 21447
0.14150000 0.14148400 11649.74962654 0 144.56487926 0 2981.31373968 0 399.90419717 0 694.88234384 0 21771
0.14250000 0.14249400 11261.77955729 0 144.91868845 0 2882.14734777 0 61.16451290 0 653.23379018 0 22470
0.14350000 0.14350900 11185.69394622 0 129.93669961 0 3221.28287685 0 6.90485793 0 835.06509119 0 22519
0.14450000 0.14449900 11023.42973487 0 157.23989913 0 2635.53458362 0 -38.78613755 0 955.08515161 0 22218
0.14550000 0.14550500 10851.44963499 0 117.14411305 0 3196.95988195 0 128.53144495 0 884.78914535 0 23559
0.14650000 0.14650700 10645.50829006 0 60.45301261 0 2782.50403439 0 221.73742763 0 735.98188325 0 23044
0.14750000 0.14750500 10629.96952313 0 82.77815022 0 2649.25439425 0 169.43688842 0 1226.27600819 0 23649
0.14850000 0.14849900 10494.27981967 0 163.67057513 0 2334.75241359 0 -80.77973835 0 754.75262497 0 23640
0.14950000 0.14949500 10289.62505358 0 40.19793601 0 2357.43391134 0 279.29075771 0 563.55258990 0 24457
0.15050000 0.15050000 10219.48432408 0 202.25463107 0 2626.80581163 0 -206.41272080 0 291.53654826 0 24591
0.15150000 0.15149900 9784.16593506 0 314.40437813 0 2523.77968317 0 -506.37081491 0 204.26213772 0 25020
0.15250000 0.15250500 9652.39142411 0 211.81524284 0 3007.32259653 0 -138.21073253 0 667.12884172 0 25297
0.15350000 0.15350100 9420.71850226 0 67.85472290 0 2983.83144139 0 120.67555016 0 12.32065613 0 25452
0.15450000 0.15450400 9352.13054033 0 -18.07321634 0 3128.26100805 0 223.77598963 0 465.31674941 0 26061
0.15550000 0.15549900 9399.34576574 0 48.71963536 0 2588.91828285 0 442.83600231 0 361.26024876 0 26128
0.15650000 0.15649500 9465.06110766 0 -58.72921878 0 2943.21547817 0 293.49414452 0 1059.97460114 0 26331
0.15750000 0.15749700 9356.79993425 0 138.03549162 0 2634.90238540 0 -154.27189483 0 885.14295453 0 27345
0.15850000 0.15849900 9250.51299389 0 200.15839485 0 2956.36963775 0 -75.96904258 0 1081.90855223 0 26980
0.15950000 0.15949700 9155.88290153 0 71.62184794 0 3167.40184208 0 -176.76151488 0 1024.17665387 0 27777
0.16050000 0.16050000 9151.70152028 0 -61.23438744 0 3124.94474016 0 159.89513168 0 963.95921828 0 28224
0.16150000 0.16150500 9242.17241379 0 -38.57773396 0 2821.75578039 0 200.09406590 0 925.68127938 0 28075
0.16250000 0.16249700 9285.68317942 0 7.47191756 0 2757.60429724 0 147.15578287 0 693.71887728 0 28590
0.16350000 0.16349900 9353.82749347 0 10.57747489 0 2437.81181563 0 113.31099538 0 649.95523236 0 29163
0.16450000 0.16449100 9188.77939168 0 78.25571466 0 2505.64557616 0 -1.34569493 0 125.91724983 0 28996
0.16550000 0.16550500 9082.09316823 0 138.11091176 0 2225.53739724 0 -44.69097990 0 166.34022623 0 30777
0.16650000 0.16650700 8927.96989544 0 101.19253177 0 2388.18980048 0 -109.35365631 0 35.82700621 0 29211
0.16750000 0.16749900 8735.49326360 0 142.08156027 0 2136.20889702 0 3.08031376 0 -98.43692389 0 30922
0.16850000 0.16850800 8754.86958467 0 -1.15829806 0 2196.06808695 0 381.56490301 0 -245.28625699 0 30867
0.16950000 0.16949900 8577.77644300 0 75.89606251 0 2085.53321816 0 59.38958865 0 -17.40663540 0 30852
0.17050000 0.17049200 8461.29669265 0 186.85450411 0 1968.87600866 0 -117.64099867 0 -461.66774561 0 31257
0.17150000 0.17149500 8356.61797585 0 165.48731319 0 2029.76667990 0 -128.19649081 0 -130.24725312 0 32608
0.17250000 0.17250900 8160.20396909 0 -16.37282493 0 2087.47417762 0 297.23187790 0 63.69230759 0 32361
0.17350000 0.17350400 8312.56374157 0 -96.14215524 0 1799.73525520 0 246.69372988 0 -137.09384900 0 32508
0.17450000 0.17449800 8363.83834506 0 -23.78584824 0 1698.68335980 0 203.35931429 0 -40.15146390 0 32791
0.17550000 0.17549800 8317.11113232 0 38.31775630 0 1293.56630007 0 165.74462895 0 -115.91520843 0 33633
0.17650000 0.17650100 8264.15066689 0 126.38973482 0 1422.46819100 0 86.16540176 0 359.93595984 0 33984
0.17750000 0.17750300 8091.71582794 0 163.89461730 0 1401.97165904 0 -153.86152054 0 -83.06829593 0 34069
0.17850000 0.17849800 7861.36275852 0 226.10846835 0 1637.10503435 0 -85.05506204 0 329.67030161 0 34536
