### header ###
fiducial parameters:
Omega_m = 0.31
Omega_nu = 0
Omega_de = 0.69
Omega_k = 0
H_0 = 100
w_de = -1
zeff = 0
beta = 0
fgrowth = 0
b_1 = 2
gamma = 0.55
Lx = 3500 Ly = 3500 Lz = 3500
nx = 700 ny = 700 nz = 700
xoffset = 1379.75464 yoffset = 22.6059522 zoffset = 368.141391
bins = 400 dk = 0.001
kx_ny = 0.628318531 ky_ny = 0.628318531 kz_ny = 0.628318531
############################
A(data) = 3.30533508 (not used)
A(ran) = 3.30597867 (used)
Ngal = 185868
weighted Ngal = 0
Nran = 9399747
weighted Nran = 0
SN(data) = 6683.72661
SN(ran) = 131.496567
SN(data+ran) = 6815.22317
############################
13 columns: k_central k_mean P_0(k) sigma^{lin}_{P_0(k)} P^img_1(k) sigma^{lin}_{P_1(k)} P_2(k) sigma^{lin}_{P_2(k)} P^img_3(k) sigma^{lin}_{P_3(k)} P_4(k) sigma^{lin}_{P_4(k)} N_modes
### header ###
0.00050000 0 0 0 0 0 0 0 0 0 0 0 0
0.00150000 0.00179520 14269.60125767 0 -9723.09780466 0 -17786.06525011 0 -267.88678901 0 -62533.49933771 0 3
0.00250000 0.00253879 30859.70274086 0 -10020.88535152 0 1815.45148127 0 -15346.88921726 0 19921.56431052 0 6
0.00350000 0.00331552 38643.94840700 0 -9704.22058745 0 7032.19596587 0 -30739.69598988 0 -3899.55393503 0 7
0.00450000 0.00420575 47842.09986010 0 -1371.31559068 0 28971.53737239 0 -23788.73195046 0 8455.83982375 0 24
0.00550000 0.00557378 53096.77623826 0 1943.82099475 0 39483.33019204 0 -10541.87214577 0 15258.60328955 0 45
0.00650000 0.00659388 62663.82090185 0 620.34728211 0 69564.09817122 0 28749.93525737 0 -13170.35272814 0 40
0.00750000 0.00754703 61870.46758415 0 4810.18556926 0 54491.16151859 0 4975.02293831 0 -3289.19427577 0 57
0.00850000 0.00846663 63899.49115386 0 2879.96238197 0 60952.22738880 0 22768.89639107 0 19719.48270212 0 75
0.00950000 0.00948925 54515.22941596 0 4828.35294986 0 58265.05219219 0 19427.56239845 0 39716.46715189 0 112
0.01050000 0.01054430 53102.87639658 0 350.33652888 0 37977.58929435 0 28332.90625211 0 3754.25925500 0 105
0.01150000 0.01145670 66738.28301275 0 -9035.82069457 0 28461.89687262 0 20186.97665349 0 9945.29884432 0 144
0.01250000 0.01249090 61002.13777507 0 -2159.68896095 0 16882.13269883 0 9708.36869511 0 8138.38758470 0 169
0.01350000 0.01339930 67892.43296719 0 -3722.87116764 0 6264.70731945 0 2793.95014964 0 21756.60284560 0 180
0.01450000 0.01448870 80114.59926822 0 -13771.49560273 0 -10523.82676834 0 12425.13520519 0 -8679.72672535 0 267
0.01550000 0.01550050 98148.22003421 0 2832.45878544 0 -8942.32190429 0 -8743.17946309 0 -12658.16125307 0 238
0.01650000 0.01653350 79237.50741355 0 10144.19727919 0 -312.20721202 0 -19972.14016860 0 -4674.47368340 0 315
0.01750000 0.01747870 81899.17285719 0 2769.73806670 0 5843.90730723 0 1267.69053759 0 20595.02178922 0 297
0.01850000 0.01844180 68384.99302366 0 969.38281359 0 9256.71297299 0 5537.59062991 0 2230.68371262 0 388
0.01950000 0.01947590 73077.34571654 0 -1348.57863693 0 13264.96063810 0 9975.14525531 0 -238.38642337 0 399
0.02050000 0.02045430 73770.65643777 0 -945.63434269 0 2453.99387198 0 -423.66708663 0 6877.98396350 0 462
0.02150000 0.02154770 70544.78180538 0 3946.36987734 0 11147.31840478 0 -11055.35019969 0 4160.72944076 0 571
0.02250000 0.02255340 74171.04864760 0 2622.41369763 0 13480.68441875 0 -6421.07101402 0 -5683.30677542 0 510
0.02350000 0.02348930 67256.90738205 0 1237.28956676 0 16041.75270606 0 -3803.45980467 0 -7178.76613354 0 555
0.02450000 0.02439640 63349.47869719 0 2431.58965414 0 12719.27374825 0 -1737.01453646 0 -18876.44082209 0 592
0.02550000 0.02547300 62819.20857110 0 2848.26374109 0 16284.53900726 0 1918.06723544 0 -8737.87787095 0 837
0.02650000 0.02652900 60283.65003677 0 1471.67983186 0 17688.12998106 0 2447.29478902 0 -11627.34540870 0 723
0.02750000 0.02749970 59348.55122206 0 2062.17515739 0 17653.41453461 0 3886.96542649 0 127.52214603 0 826
0.02850000 0.02848090 55806.91021255 0 493.43515191 0 16215.66267421 0 6622.18768828 0 -4576.06149288 0 831
0.02950000 0.02946900 52761.04570663 0 2726.69313134 0 16984.28262272 0 2058.53724479 0 -824.02602287 0 996
0.03050000 0.03053250 52978.76590273 0 1343.13285923 0 17292.72880985 0 -1647.79694820 0 14481.55403136 0 1041
0.03150000 0.03150510 46876.61116575 0 366.15701221 0 18760.09416610 0 4284.82884342 0 3456.26097540 0 1036
0.03250000 0.03246190 51532.91746856 0 234.83169475 0 21747.06441623 0 -1374.04402513 0 9877.54272216 0 1059
0.03350000 0.03345080 50470.38080092 0 -1354.64552167 0 16795.51045066 0 2355.88114377 0 563.65130155 0 1302
0.03450000 0.03451200 51499.20022983 0 2406.04662757 0 23634.45340091 0 -6570.18106579 0 4360.53735378 0 1339
0.03550000 0.03553350 49189.45846537 0 2137.01855439 0 25904.71050424 0 -4538.93925670 0 -806.51856848 0 1365
0.03650000 0.03647120 49162.83959269 0 1430.63131196 0 30196.56007532 0 -1758.18763143 0 -2738.33888814 0 1308
0.03750000 0.03744890 47158.54939218 0 754.39881578 0 31744.33660945 0 1040.71141029 0 -6701.97775913 0 1579
0.03850000 0.03847530 45827.16211051 0 1473.98680083 0 31099.71624282 0 447.25473518 0 -6980.98790956 0 1662
0.03950000 0.03950240 43740.46431667 0 891.63795946 0 28314.16212927 0 2352.18777519 0 -6198.12686417 0 1683
0.04050000 0.04050350 43458.08244237 0 -800.93525994 0 24187.68230468 0 6470.99249149 0 -3531.08219001 0 1822
0.04150000 0.04152450 44708.06033844 0 -1562.46127888 0 20179.65646350 0 9259.99596728 0 -4320.73104794 0 1887
0.04250000 0.04250150 44892.95059156 0 513.02331484 0 12061.34394528 0 2247.81961191 0 -6115.07598142 0 1920
0.04350000 0.04349210 43153.85091008 0 2520.39686810 0 15178.96849546 0 -2324.44869162 0 175.06677999 0 2005
0.04450000 0.04448520 39341.80651898 0 2189.87919905 0 14090.58933893 0 -287.40729564 0 -2204.83013253 0 2151
0.04550000 0.04548030 36707.53633181 0 1013.14424027 0 15117.96691224 0 1171.01966499 0 622.56663062 0 2274
0.04650000 0.04648670 36429.81276022 0 172.86295916 0 15763.36366266 0 2364.90937809 0 3369.29490013 0 2311
0.04750000 0.04749250 36546.60306409 0 206.39275665 0 11734.26454728 0 2583.83851465 0 256.50056622 0 2568
0.04850000 0.04851840 35949.67484433 0 254.13814127 0 16422.29167336 0 -175.40727974 0 3181.54311819 0 2493
0.04950000 0.04949480 34384.48513100 0 1271.86082764 0 14705.92894562 0 -2350.89010515 0 1606.36023640 0 2644
0.05050000 0.05050630 35239.39459177 0 -37.97392920 0 16192.37116062 0 1856.92146666 0 4490.77018835 0 2829
0.05150000 0.05149060 35314.81473102 0 -1186.20351361 0 13308.99268999 0 2534.41614105 0 2043.85250003 0 2784
0.05250000 0.05249300 36525.97343776 0 191.15456116 0 13095.59806071 0 -228.81693864 0 2749.41899389 0 3055
0.05350000 0.05348950 36525.08614201 0 530.35220095 0 12078.97894843 0 1169.50017101 0 1065.73093236 0 3009
0.05450000 0.05448610 35587.21452807 0 588.59096701 0 15544.75617081 0 -991.60624492 0 907.32645755 0 3336
0.05550000 0.05550870 34660.21228713 0 1121.73038575 0 12901.83485002 0 -2345.01177076 0 -1947.07071546 0 3349
0.05650000 0.05647670 32505.74727994 0 1307.56339062 0 17083.77065935 0 -506.34863252 0 -1204.02706711 0 3324
0.05750000 0.05747970 32346.36677980 0 864.40796184 0 17827.76815063 0 -422.16644768 0 -969.66120263 0 3639
0.05850000 0.05849280 31261.86954220 0 374.17594760 0 17507.23255883 0 2164.48035804 0 -1462.86233029 0 3846
0.05950000 0.05951020 31434.22674277 0 347.40734377 0 18871.44978346 0 -523.89712433 0 868.41632041 0 3787
0.06050000 0.06049470 31846.37562137 0 -408.97235979 0 16949.34535233 0 2441.81573773 0 2524.46733738 0 3930
0.06150000 0.06148310 31150.29210090 0 -497.12519313 0 16489.39341489 0 3872.52468806 0 4312.16864389 0 4083
0.06250000 0.06249100 33048.55045859 0 -450.92481225 0 14546.32662153 0 1528.32257468 0 5154.46741373 0 4303
0.06350000 0.06350600 32594.03320765 0 254.55849764 0 14892.37196632 0 2085.44448858 0 6971.49384497 0 4470
0.06450000 0.06451750 32242.99682424 0 1095.38768388 0 14303.54032034 0 132.86921208 0 7317.43936898 0 4479
0.06550000 0.06550280 30755.88913742 0 290.90435004 0 12571.53900490 0 -461.34277354 0 8259.29272263 0 4636
0.06650000 0.06648880 29710.98747293 0 870.52919343 0 14662.56236555 0 1677.19971131 0 5499.37036523 0 4653
0.06750000 0.06749660 29193.25039939 0 809.10947209 0 12050.03092440 0 -380.42583708 0 4246.96349703 0 5220
0.06850000 0.06852730 27080.15555681 0 845.00391277 0 13592.37277202 0 -1194.72155287 0 4779.58495688 0 5029
0.06950000 0.06949320 26559.86750797 0 1043.76703504 0 14265.94116268 0 -68.12013524 0 1236.60191255 0 5040
0.07050000 0.07048030 26221.03144120 0 38.57496116 0 12417.14954338 0 1032.81558718 0 2190.88849797 0 5475
0.07150000 0.07148790 25436.44016908 0 -398.93815391 0 10925.88265771 0 1450.98365836 0 -1693.92523631 0 5509
0.07250000 0.07249820 25981.79432303 0 267.38768515 0 10585.29418182 0 -224.14754473 0 1097.31533391 0 5916
0.07350000 0.07351270 25905.15415212 0 252.87263570 0 11529.74287556 0 -429.64302354 0 -2955.93708106 0 5721
0.07450000 0.07449140 25527.05524815 0 422.97055946 0 10871.51361027 0 226.96803611 0 -785.93108871 0 6028
0.07550000 0.07549160 24886.20588848 0 70.01451168 0 10773.88889473 0 214.33849014 0 -1087.33991138 0 6183
0.07650000 0.07648840 25042.25902954 0 -586.06217410 0 10404.91804585 0 1545.33647080 0 -172.82524909 0 6330
0.07750000 0.07749960 26023.60813552 0 -116.92117999 0 9705.55153109 0 1413.55086866 0 -1098.28803188 0 6583
0.07850000 0.07848650 26079.50776814 0 80.28185452 0 9011.54206445 0 179.36905529 0 -100.54336402 0 6549
0.07950000 0.07947320 25484.68687581 0 252.57650074 0 8595.48908452 0 190.79409726 0 1786.52563963 0 6828
0.08050000 0.08048110 25180.12260761 0 357.14874205 0 8974.84129374 0 120.16757334 0 137.82254064 0 7147
0.08150000 0.08149960 24870.67821276 0 387.92681358 0 8434.34508406 0 296.55753312 0 346.29156936 0 7386
0.08250000 0.08250610 24315.89654141 0 1106.61862991 0 9062.02919295 0 -863.11694651 0 -948.09326105 0 7227
0.08350000 0.08350160 22764.68173623 0 1026.37714735 0 9920.86493744 0 -1320.06316958 0 -128.46489777 0 7798
0.08450000 0.08449610 21893.80095185 0 574.69924283 0 11288.50934193 0 564.74378445 0 724.86739479 0 7371
0.08550000 0.08548940 20878.51278321 0 220.21016981 0 10558.77512992 0 668.34110954 0 -850.95655818 0 8256
0.08650000 0.08650700 20948.05458808 0 380.48351131 0 10669.49854905 0 1190.29616529 0 902.99978162 0 8037
0.08750000 0.08749060 20533.79838206 0 -7.77193444 0 8281.60821089 0 1374.32130505 0 827.80368455 0 8155
0.08850000 0.08849210 19975.46752769 0 0.60654429 0 9095.50242534 0 1538.28246954 0 3982.10571391 0 8718
0.08950000 0.08949900 20363.10486103 0 205.55537128 0 7697.86742431 0 1310.03672754 0 2937.45914695 0 8571
0.09050000 0.09049190 20029.59256880 0 65.94770249 0 7367.50503201 0 816.11245384 0 5218.28616097 0 8932
0.09150000 0.09150830 19638.18422849 0 119.58861285 0 6882.38716869 0 1099.10212574 0 5067.78970958 0 9285
0.09250000 0.09250820 19181.89238604 0 296.25363432 0 6183.50866659 0 -8.89099184 0 4993.11268053 0 9204
0.09350000 0.09350330 18906.71978976 0 448.33945424 0 6734.02022711 0 164.05543966 0 6467.19930213 0 9349
0.09450000 0.09448040 18302.91502790 0 484.96924128 0 6523.80877135 0 -306.34107795 0 4645.41474740 0 9564
0.09550000 0.09549270 17963.52440128 0 250.24845850 0 7463.22206167 0 -114.94472869 0 5105.49977921 0 10155
0.09650000 0.09649430 17596.18395836 0 339.30855176 0 7640.75885122 0 -569.98770237 0 3881.58619597 0 9913
0.09750000 0.09749140 17066.57930408 0 529.67341970 0 7538.86402486 0 -358.31331773 0 2714.23771717 0 10476
0.09850000 0.09850240 16419.62978609 0 373.63358807 0 7798.89713731 0 -581.21643016 0 1591.81967721 0 10575
0.09950000 0.09950330 16143.23715814 0 192.74836616 0 8662.57973486 0 -86.35284299 0 1736.52652379 0 10882
0.10050000 0.10051200 15775.78580324 0 146.37828996 0 7614.07343136 0 -6.18727967 0 408.09504611 0 10875
0.10150000 0.10150300 16052.84390301 0 -32.92199990 0 7945.72240251 0 565.26063423 0 480.61040088 0 11118
0.10250000 0.10250800 15942.15375747 0 -262.67392644 0 6351.04119649 0 832.92116282 0 -93.41982095 0 11575
0.10350000 0.10349800 16305.61228146 0 -184.19372596 0 6322.99155941 0 1017.53413602 0 -245.23191012 0 11364
0.10450000 0.10450100 16749.03833545 0 29.95377377 0 5464.54400681 0 396.49698146 0 499.51312784 0 12093
0.10550000 0.10551000 16237.95598008 0 126.83449182 0 5125.69684885 0 -157.59592656 0 -144.49500472 0 12067
0.10650000 0.10649700 16092.10674021 0 181.82686453 0 5147.61305402 0 617.24840168 0 1673.76144026 0 12054
0.10750000 0.10749900 15736.85570196 0 166.29475232 0 4615.49069803 0 139.40969092 0 741.28569363 0 12807
0.10850000 0.10850100 15775.45306733 0 23.77897170 0 4631.96112550 0 1037.29864898 0 1100.72920433 0 12736
0.10950000 0.10950300 15739.40667725 0 271.33060566 0 4480.66610793 0 273.23940066 0 988.56171135 0 12933
0.11050000 0.11050200 14769.70332807 0 471.03980703 0 4555.53168733 0 -767.91233015 0 1037.54043708 0 13428
0.11150000 0.11150900 14613.53927504 0 223.18704707 0 4726.55794427 0 195.19730245 0 1446.26989965 0 13453
0.11250000 0.11250000 14129.29761628 0 -30.84705878 0 4255.99173135 0 639.25111819 0 489.10071214 0 13668
0.11350000 0.11349100 14603.55719779 0 -89.19939869 0 4095.08064603 0 342.52278063 0 1142.63729200 0 13791
0.11450000 0.11448600 14120.75739463 0 318.88965818 0 4094.14898548 0 -326.89639325 0 173.71698132 0 14205
0.11550000 0.11549300 13984.22476020 0 325.35471688 0 4048.39779807 0 -384.62607337 0 1182.38814186 0 14776
0.11650000 0.11649800 13845.03023850 0 22.22653686 0 4552.07123388 0 -114.92476454 0 -214.83315753 0 14553
0.11750000 0.11747300 13876.19650192 0 -98.72008215 0 4358.20820243 0 419.03318454 0 668.22576110 0 14568
0.11850000 0.11849100 13783.69591937 0 19.79678834 0 3978.67853405 0 329.37416665 0 335.84144359 0 16015
0.11950000 0.11950300 13905.47726186 0 -13.62154262 0 3733.00852165 0 334.84323587 0 159.48697564 0 15270
0.12050000 0.12050700 13992.43224594 0 40.44826433 0 4042.76347002 0 -176.54634566 0 -208.18065760 0 15999
0.12150000 0.12150000 13920.33946578 0 141.69447749 0 3947.73409457 0 -276.17745873 0 94.97891051 0 15670
0.12250000 0.12250700 13557.54641360 0 179.49438581 0 4498.56729981 0 -561.63270371 0 -561.45080808 0 16887
0.12350000 0.12352200 13483.12448208 0 244.74057010 0 4197.17511393 0 -271.93729414 0 -740.57696615 0 16407
0.12450000 0.12449800 13319.97297497 0 19.52228122 0 4692.91834393 0 98.00192715 0 -1177.39710324 0 16306
0.12550000 0.12549900 13337.16433024 0 43.83473949 0 4099.57258079 0 174.34252483 0 -1368.11023476 0 17523
0.12650000 0.12650100 13297.79058107 0 88.37254996 0 4547.73457588 0 323.16309636 0 -790.50177097 0 17154
0.12750000 0.12750600 13009.19763648 0 85.28908629 0 4047.42177274 0 160.39645379 0 -1554.16506357 0 18007
0.12850000 0.12850300 13107.90928932 0 241.36884623 0 4262.56881114 0 -123.96852653 0 -948.46370703 0 17496
0.12950000 0.12949900 12437.55734577 0 317.72840986 0 4717.40770679 0 -109.86185496 0 -1363.42974965 0 18405
0.13050000 0.13049000 12350.82418563 0 328.95713765 0 4336.49163880 0 -350.09917727 0 -1168.21359216 0 18100
0.13150000 0.13148800 11966.07056350 0 125.81964730 0 4784.39853636 0 333.90492061 0 -879.69163123 0 19059
0.13250000 0.13249300 11723.39517427 0 62.42957482 0 4459.99211682 0 292.57690254 0 -1199.77913868 0 18957
0.13350000 0.13349100 11821.77409120 0 27.61763496 0 3878.89103511 0 357.96949062 0 -652.85225301 0 19468
0.13450000 0.13450700 11500.12937970 0 74.39830727 0 3717.95776739 0 447.39337514 0 -1020.36682772 0 19953
0.13550000 0.13551000 11594.51546573 0 164.37153877 0 3369.08416739 0 261.71453791 0 45.74353449 0 19956
0.13650000 0.13649900 11096.85345867 0 102.16644978 0 3041.47239193 0 511.39734537 0 289.23512490 0 19723
0.13750000 0.13749600 11153.41856310 0 -0.72479419 0 2718.89601989 0 660.64492798 0 247.78510366 0 20946
0.13850000 0.13851100 11109.94107107 0 72.55561581 0 3033.83055723 0 -70.54289630 0 644.62147575 0 20955
0.13950000 0.13949800 10947.10011747 0 228.54298608 0 2758.77996411 0 -183.36188619 0 486.67506737 0 20506
0.14050000 0.14048300 10780.57688649 0 222.10565537 0 3187.06653427 0 -224.95165650 0 1217.80233372 0 21447
0.14150000 0.14148400 10585.30527302 0 40.82924694 0 3095.66398022 0 66.38902122 0 643.44802711 0 21771
0.14250000 0.14249400 10568.96793992 0 7.42339357 0 3453.57690574 0 130.80403121 0 791.73067559 0 22470
0.14350000 0.14350900 10518.52517620 0 -16.24072878 0 3157.38649124 0 -4.86598538 0 469.15097619 0 22519
0.14450000 0.14449900 10581.76718119 0 175.98624022 0 3264.78255128 0 -20.02349241 0 743.54164309 0 22218
0.14550000 0.14550500 10390.12238913 0 154.76988957 0 3583.68773714 0 -328.55785456 0 203.91498325 0 23559
0.14650000 0.14650700 10241.63344438 0 133.13318257 0 3663.28925763 0 -207.72037293 0 231.17825447 0 23044
0.14750000 0.14750500 10007.76446553 0 148.51667274 0 3562.44809498 0 291.16166581 0 365.99951721 0 23649
0.14850000 0.14849900 10232.02846783 0 -62.47094499 0 3507.65758206 0 660.47966915 0 875.13425840 0 23640
0.14950000 0.14949500 9993.87828695 0 -103.60409073 0 2860.09804824 0 735.28535608 0 1174.93485751 0 24457
0.15050000 0.15050000 10081.22146292 0 81.28893520 0 2764.14810344 0 205.04961270 0 1260.81399548 0 24591
0.15150000 0.15149900 9915.01987665 0 198.94169054 0 2551.57422273 0 52.05686561 0 1713.65647568 0 25020
0.15250000 0.15250500 9701.40342343 0 155.62058438 0 3014.63169531 0 -322.67064722 0 1690.40932688 0 25297
0.15350000 0.15350100 9639.08198778 0 70.11155965 0 2868.08371004 0 -16.57468472 0 1520.81383434 0 25452
0.15450000 0.15450400 9664.69156153 0 -53.20591362 0 2660.35668239 0 250.32720600 0 1209.81667192 0 26061
0.15550000 0.15549900 9506.27599552 0 17.69877753 0 2860.51951372 0 0.92891658 0 703.59780640 0 26128
0.15650000 0.15649500 9639.69200361 0 102.99141301 0 2252.27827308 0 -48.32667425 0 857.40830744 0 26331
0.15750000 0.15749700 9593.30861797 0 46.36231236 0 2772.41104516 0 13.34736823 0 308.84768846 0 27345
0.15850000 0.15849900 9505.54397652 0 61.47839377 0 2360.22889298 0 150.13155101 0 650.11605472 0 26980
0.15950000 0.15949700 9446.77172389 0 111.79815612 0 2338.44578217 0 18.03428624 0 348.41775181 0 27777
0.16050000 0.16050000 9194.33608135 0 168.93667544 0 2329.71701017 0 -110.57235703 0 508.24300896 0 28224
0.16150000 0.16150500 8980.95254326 0 260.68305659 0 2417.11564212 0 -54.59763701 0 54.58466031 0 28075
0.16250000 0.16249700 8575.03691735 0 313.46606287 0 3091.82642607 0 -471.35701526 0 356.14831608 0 28590
0.16350000 0.16349900 8308.61527546 0 212.13134195 0 2939.55538317 0 -70.14117315 0 481.25369030 0 29163
0.16450000 0.16449100 8123.04845932 0 31.68621874 0 3423.46430602 0 250.70541582 0 492.24506648 0 28996
0.16550000 0.16550500 8197.62566760 0 -80.44001499 0 2788.47109834 0 309.46435901 0 375.38821543 0 30777
0.16650000 0.16650700 8328.79016271 0 -78.50315926 0 2673.72157472 0 231.23481958 0 -83.12242097 0 29211
0.16750000 0.16749900 8308.33799553 0 68.71240516 0 2638.18537970 0 -274.84318774 0 189.00619631 0 30922
0.16850000 0.16850800 8279.65616023 0 146.80419193 0 2426.84262185 0 -191.68693862 0 -248.82323970 0 30867
0.16950000 0.16949900 8112.74473735 0 38.85190835 0 2725.07381659 0 90.98319589 0 -220.93220673 0 30852
0.17050000 0.17049200 8233.31713938 0 -75.71017405 0 2090.93463107 0 339.99509685 0 -688.42283074 0 31257
0.17150000 0.17149500 8141.57075822 0 -65.40767211 0 2120.43721496 0 368.82666332 0 -466.48576156 0 32608
0.17250000 0.17250900 8267.71094111 0 48.67094501 0 1649.89318443 0 40.22156026 0 -461.88069659 0 32361
0.17350000 0.17350400 8209.80380185 0 86.36326872 0 1654.80658467 0 152.47623005 0 -349.65109291 0 32508
0.17450000 0.17449800 8000.60164501 0 125.22405002 0 1532.52613832 0 -98.23484228 0 -384.84346083 0 32791
0.17550000 0.17549800 7919.75791045 0 122.86162507 0 1805.20321529 0 -81.68522367 0 -498.66465127 0 33633
0.17650000 0.17650100 7764.18169086 0 111.88466745 0 1537.67245370 0 111.19257677 0 -40.46057556 0 33984
0.17750000 0.17750300 7646.81464476 0 15.80806119 0 2061.94224225 0 235.56704110 0 95.38063366 0 34069
0.17850000 0.17849800 7688.20699177 0 5.17782547 0 1435.46707383 0 219.32287405 0 119.66181475 0 34536
