### header ###
fiducial parameters:
Omega_m = 0.31
Omega_nu = 0
Omega_de = 0.69
Omega_k = 0
H_0 = 100
w_de = -1
zeff = 0
beta = 0
fgrowth = 0
b_1 = 2
gamma = 0.55
Lx = 3500 Ly = 3500 Lz = 3500
nx = 700 ny = 700 nz = 700
xoffset = 1379.75464 yoffset = 22.6059522 zoffset = 368.141391
bins = 400 dk = 0.001
kx_ny = 0.628318531 ky_ny = 0.628318531 kz_ny = 0.628318531
############################
A(data) = 3.30515085 (not used)
A(ran) = 3.29404853 (used)
Ngal = 184927
weighted Ngal = 0
Nran = 9399747
weighted Nran = 0
SN(data) = 6748.17176
SN(ran) = 131.022041
SN(data+ran) = 6879.1938
############################
13 columns: k_central k_mean P_0(k) sigma^{lin}_{P_0(k)} P^img_1(k) sigma^{lin}_{P_1(k)} P_2(k) sigma^{lin}_{P_2(k)} P^img_3(k) sigma^{lin}_{P_3(k)} P_4(k) sigma^{lin}_{P_4(k)} N_modes
### header ###
0.00050000 0 0 0 0 0 0 0 0 0 0 0 0
0.00150000 0.00179520 79529.09498132 0 -30260.11263384 0 -36403.63753543 0 74159.51380278 0 124769.31094934 0 3
0.00250000 0.00253879 88289.36597891 0 -13236.56717392 0 29860.38589582 0 -90210.47220231 0 -52819.49631455 0 6
0.00350000 0.00331552 103530.55608924 0 500.52131764 0 -24106.49474302 0 50591.71849553 0 73974.84537359 0 7
0.00450000 0.00420575 97742.28222591 0 6073.07361857 0 34720.88113444 0 -8784.05052384 0 -6608.73406639 0 24
0.00550000 0.00557378 99551.03462422 0 11418.49817016 0 45200.50948294 0 22186.38672735 0 61004.79966234 0 45
0.00650000 0.00659388 82110.57107102 0 -2322.69628250 0 75631.64837372 0 32032.37499419 0 -49098.73247433 0 40
0.00750000 0.00754703 100050.58213477 0 991.15705144 0 64351.79016540 0 22641.56945010 0 89862.43044207 0 57
0.00850000 0.00846663 90530.67505820 0 -1969.06455901 0 39059.42464468 0 52863.63927840 0 23542.61829018 0 75
0.00950000 0.00948925 102810.51558337 0 1968.07744248 0 61549.71016841 0 21164.22201660 0 89092.25772599 0 112
0.01050000 0.01054430 108704.82128953 0 417.65343964 0 50692.53747579 0 39350.45765260 0 53902.32987261 0 105
0.01150000 0.01145670 94924.56364121 0 -1007.62747891 0 53518.46354623 0 30635.54965053 0 83977.21951741 0 144
0.01250000 0.01249090 98638.89458720 0 8566.76288443 0 43447.54580527 0 11925.69860661 0 59496.61870132 0 169
0.01350000 0.01339930 98824.00666427 0 3213.74086293 0 43713.84544400 0 12706.74069570 0 81627.66035589 0 180
0.01450000 0.01448870 87220.39641704 0 2853.73170119 0 61777.74517766 0 4733.36793920 0 71988.96656001 0 267
0.01550000 0.01550050 77841.01480580 0 13204.62452671 0 27863.63770923 0 -11742.58294499 0 4436.94460956 0 238
0.01650000 0.01653350 78751.93481116 0 4815.80880612 0 63877.75240784 0 5608.89593509 0 49294.04845259 0 315
0.01750000 0.01747870 67090.20669192 0 593.73839151 0 38678.22020557 0 12555.34585736 0 -6531.73897717 0 297
0.01850000 0.01844180 68462.52049032 0 1181.15701900 0 61951.98788172 0 11673.48478800 0 42904.85353860 0 388
0.01950000 0.01947590 69164.92599306 0 -2852.80004064 0 25023.40399473 0 5392.68414179 0 -3144.96435065 0 399
0.02050000 0.02045430 70378.63567510 0 -1148.23834646 0 32356.90341690 0 13667.57108733 0 3051.29919243 0 462
0.02150000 0.02154770 72933.38198015 0 -1396.32623980 0 25943.52969356 0 -701.15774307 0 7228.06650397 0 571
0.02250000 0.02255340 70063.20203389 0 961.21525616 0 2491.41557048 0 -3694.03405558 0 -30553.58570509 0 510
0.02350000 0.02348930 74582.42114241 0 1362.30953876 0 27071.72624713 0 -3890.47024472 0 -5605.91240312 0 555
0.02450000 0.02439640 66005.04398251 0 769.76345092 0 5376.93464212 0 -5445.24532412 0 -31048.47491292 0 592
0.02550000 0.02547300 73283.64197978 0 -1869.37688084 0 17829.43183018 0 4681.26149594 0 -11634.77651065 0 837
0.02650000 0.02652900 69638.52010274 0 1573.50811104 0 4770.47908419 0 -1274.52271491 0 -32244.32776787 0 723
0.02750000 0.02749970 67120.59657156 0 4009.83370628 0 12844.49336180 0 -732.44600967 0 -11394.43027279 0 826
0.02850000 0.02848090 62927.56956528 0 2714.44844991 0 15786.43335231 0 -1932.44142668 0 -22761.35437714 0 831
0.02950000 0.02946900 62183.01751415 0 174.47229183 0 16048.29651226 0 -2013.79535630 0 -8706.29014204 0 996
0.03050000 0.03053250 61120.59175848 0 2407.11138248 0 17301.37994347 0 145.00963626 0 -15224.22057901 0 1041
0.03150000 0.03150510 57465.70962813 0 1568.94962910 0 19116.34341208 0 -3110.87001123 0 -14612.87380322 0 1036
0.03250000 0.03246190 58806.96807508 0 -2015.53667422 0 17466.63877800 0 337.63267190 0 -11793.26971505 0 1059
0.03350000 0.03345080 57991.87601135 0 1774.85770044 0 19926.77717309 0 -574.25337671 0 -21353.54874850 0 1302
0.03450000 0.03451200 56046.03641876 0 2989.54340782 0 21847.43974861 0 -5226.54910270 0 -15733.75016681 0 1339
0.03550000 0.03553350 51524.37724691 0 2675.52943982 0 23453.55597868 0 -2176.66958348 0 -20872.52353686 0 1365
0.03650000 0.03647120 50237.57657697 0 2078.33503134 0 24468.62232338 0 904.53923975 0 -13449.07450745 0 1308
0.03750000 0.03744890 48066.80751027 0 240.77657631 0 24321.55305185 0 3632.47791251 0 -16603.30000755 0 1579
0.03850000 0.03847530 46856.64701125 0 1565.79972917 0 24677.91320980 0 3491.69734965 0 -10390.29984828 0 1662
0.03950000 0.03950240 45915.55895019 0 959.27207845 0 20829.82242861 0 2047.70114537 0 -7270.11323161 0 1683
0.04050000 0.04050350 43462.29709721 0 -390.23932814 0 18031.73526251 0 4112.72674037 0 -3733.05288644 0 1822
0.04150000 0.04152450 45854.66827895 0 192.72396553 0 18153.96025288 0 3855.85461905 0 1895.27482571 0 1887
0.04250000 0.04250150 43619.68118191 0 1016.75220664 0 14105.67336678 0 1102.19878793 0 -8230.87707605 0 1920
0.04350000 0.04349210 42525.75642691 0 1571.89988749 0 17803.47842932 0 -299.59873932 0 5683.29568422 0 2005
0.04450000 0.04448520 39865.53283887 0 939.90906682 0 16383.58339601 0 189.54855585 0 -1439.14935121 0 2151
0.04550000 0.04548030 39907.01391546 0 910.25120618 0 17034.30392096 0 2003.61363750 0 4212.31459777 0 2274
0.04650000 0.04648670 37762.86372143 0 1193.14660290 0 16226.75387116 0 -906.03433310 0 -4923.70397003 0 2311
0.04750000 0.04749250 37377.44462748 0 836.11210018 0 16837.54608710 0 -1074.44417668 0 -659.30511139 0 2568
0.04850000 0.04851840 36748.13011264 0 177.03214009 0 14664.78060494 0 1256.01150720 0 -4310.99297702 0 2493
0.04950000 0.04949480 36359.16183566 0 -305.13768308 0 17615.03899317 0 767.48864642 0 -2663.76167986 0 2644
0.05050000 0.05050630 37030.40107497 0 -116.10154053 0 12186.67447080 0 1343.92033422 0 -4389.09718593 0 2829
0.05150000 0.05149060 37640.74964303 0 -1238.33213927 0 13812.53303144 0 3211.97736261 0 -2219.24868857 0 2784
0.05250000 0.05249300 38690.86417009 0 10.87748067 0 9824.57116554 0 2382.32255730 0 -532.05248144 0 3055
0.05350000 0.05348950 37926.90252429 0 620.68667274 0 10952.81208390 0 222.82103757 0 -748.61586570 0 3009
0.05450000 0.05448610 37936.10821776 0 844.16209093 0 10855.79738419 0 54.40853210 0 3517.08509946 0 3336
0.05550000 0.05550870 35060.93723287 0 1104.58672263 0 12594.05413471 0 223.78708082 0 320.44908047 0 3349
0.05650000 0.05647670 35240.83644737 0 1685.47374424 0 16039.97811455 0 -2205.73961068 0 3369.16180576 0 3324
0.05750000 0.05747970 33864.97346595 0 444.34440510 0 14381.28961094 0 -1043.77479888 0 1762.42446866 0 3639
0.05850000 0.05849280 33742.85938755 0 294.34151197 0 17644.54157705 0 2106.67303954 0 5963.50368392 0 3846
0.05950000 0.05951020 32809.75698829 0 376.58828294 0 16716.76295233 0 -282.48502243 0 3304.58885713 0 3787
0.06050000 0.06049470 33162.90069912 0 559.10612904 0 17208.87936092 0 515.78724112 0 3850.45320614 0 3930
0.06150000 0.06148310 31992.22486124 0 506.47174480 0 18631.99084135 0 921.63077425 0 5193.69697734 0 4083
0.06250000 0.06249100 31299.57961182 0 378.06452125 0 17836.97384410 0 1462.67377994 0 3108.41885671 0 4303
0.06350000 0.06350600 31860.68326543 0 -343.36682072 0 17944.11480662 0 1121.03164034 0 5477.14360655 0 4470
0.06450000 0.06451750 31892.73682461 0 -168.21574763 0 15275.57282088 0 1670.42298998 0 4194.10285238 0 4479
0.06550000 0.06550280 32046.68263826 0 -358.90115117 0 14542.33379063 0 2094.70563804 0 6316.70285074 0 4636
0.06650000 0.06648880 32422.23056692 0 103.26702925 0 13009.86310830 0 861.10500338 0 3786.47918214 0 4653
0.06750000 0.06749660 32174.34231513 0 526.52019241 0 12754.10010667 0 -487.18304419 0 2496.93898656 0 5220
0.06850000 0.06852730 30817.66710442 0 1013.66330829 0 13571.52132175 0 -1563.07129472 0 3219.82993005 0 5029
0.06950000 0.06949320 30427.14605988 0 483.62942469 0 14167.78406969 0 -532.70575294 0 1846.83956864 0 5040
0.07050000 0.07048030 30297.82270346 0 -279.99172136 0 13812.20029553 0 1136.16003298 0 1171.16385055 0 5475
0.07150000 0.07148790 30368.69545196 0 -112.58341286 0 13169.24360844 0 768.42696168 0 -2237.27188361 0 5509
0.07250000 0.07249820 31013.09399465 0 172.92839722 0 12540.15091754 0 -56.20929884 0 328.01105855 0 5916
0.07350000 0.07351270 30258.89260217 0 318.21974988 0 13366.33417821 0 -170.74010406 0 -721.17846269 0 5721
0.07450000 0.07449140 30144.76418557 0 415.40414490 0 13529.81842123 0 -194.58285014 0 -754.48865448 0 6028
0.07550000 0.07549160 28920.29604249 0 758.74878323 0 13378.31267092 0 409.42266239 0 223.21033858 0 6183
0.07650000 0.07648840 28908.20663782 0 850.01824291 0 14536.34454428 0 702.86911476 0 228.78255593 0 6330
0.07750000 0.07749960 27549.97865954 0 558.36301884 0 14953.26263756 0 630.05540680 0 1921.48332410 0 6583
0.07850000 0.07848650 27154.57748833 0 249.29794292 0 12874.55050553 0 1942.54550710 0 3064.03188652 0 6549
0.07950000 0.07947320 26470.58337254 0 88.77205487 0 12909.93142379 0 1658.98796592 0 3010.81632356 0 6828
0.08050000 0.08048110 26233.00993391 0 578.17855131 0 11695.33444599 0 -4.41380837 0 2842.57395706 0 7147
0.08150000 0.08149960 25221.38186026 0 819.10042230 0 12116.35628215 0 433.97857243 0 4016.17787094 0 7386
0.08250000 0.08250610 24166.60903048 0 434.77159301 0 11616.69785963 0 -395.69397880 0 2881.32659919 0 7227
0.08350000 0.08350160 23856.49916381 0 101.86598925 0 11023.67374120 0 826.56812521 0 1608.25683108 0 7798
0.08450000 0.08449610 23185.59266041 0 453.17410699 0 10633.39670299 0 741.24243796 0 1182.22177391 0 7371
0.08550000 0.08548940 22746.15943732 0 374.44990017 0 9808.40020039 0 -221.01428159 0 -444.96329389 0 8256
0.08650000 0.08650700 22217.77481471 0 363.84560677 0 10319.99275082 0 155.35994125 0 336.24959964 0 8037
0.08750000 0.08749060 21496.73610111 0 389.62709407 0 9536.52168960 0 294.73968594 0 -871.42425302 0 8155
0.08850000 0.08849210 21054.97372666 0 99.54493447 0 8543.59337400 0 543.67716497 0 -879.01284998 0 8718
0.08950000 0.08949900 21655.11839353 0 184.53977130 0 8596.82002816 0 261.03242930 0 -1616.70832316 0 8571
0.09050000 0.09049190 20745.52933180 0 345.22126885 0 9100.40473440 0 -232.27184649 0 -1449.90781225 0 8932
0.09150000 0.09150830 20080.27933885 0 696.31199913 0 8478.73205425 0 -381.08132682 0 -1780.60294046 0 9285
0.09250000 0.09250820 19564.87141666 0 332.17802124 0 9600.17406888 0 66.04109037 0 -1431.95116439 0 9204
0.09350000 0.09350330 19226.03534990 0 -67.85261557 0 8523.13011563 0 1231.84378905 0 -1678.94102923 0 9349
0.09450000 0.09448040 19839.82218901 0 -410.71035035 0 7471.24099706 0 1639.66710084 0 -1342.17901630 0 9564
0.09550000 0.09549270 19280.60403888 0 372.29044412 0 7415.91810669 0 157.56930768 0 -88.72868829 0 10155
0.09650000 0.09649430 19280.93677479 0 662.91640512 0 6324.77724212 0 520.97681217 0 409.07994440 0 9913
0.09750000 0.09749140 18059.57416685 0 255.82954881 0 6602.33444575 0 896.68334495 0 476.58651463 0 10476
0.09850000 0.09850240 17552.70646632 0 415.90990348 0 5844.46186708 0 257.70396109 0 363.57165420 0 10575
0.09950000 0.09950330 17122.58984867 0 487.38379485 0 6547.62157120 0 211.76422333 0 1830.82388024 0 10882
0.10050000 0.10051200 16364.17380135 0 269.42624715 0 5414.98853885 0 489.24489770 0 791.72734823 0 10875
0.10150000 0.10150300 16002.26804493 0 169.17735441 0 6044.80215755 0 190.14193488 0 956.81426921 0 11118
0.10250000 0.10250800 16023.34131913 0 67.65519226 0 5206.27439468 0 -241.28011665 0 1219.36619249 0 11575
0.10350000 0.10349800 15624.94552475 0 276.05212820 0 6044.15886813 0 31.52994377 0 113.14684567 0 11364
0.10450000 0.10450100 15617.73624673 0 134.66931335 0 5476.67777628 0 -334.57704714 0 853.43654981 0 12093
0.10550000 0.10551000 15535.32865341 0 -126.81563679 0 5907.30458899 0 453.61775487 0 -442.43450098 0 12067
0.10650000 0.10649700 15701.36387172 0 44.08828425 0 6212.87815611 0 162.00911382 0 944.24350659 0 12054
0.10750000 0.10749900 15790.20435928 0 -77.84556220 0 5581.41194906 0 393.97484328 0 797.21970896 0 12807
0.10850000 0.10850100 16133.25508088 0 -165.30209020 0 5488.80045454 0 784.62121835 0 1372.29161601 0 12736
0.10950000 0.10950300 16206.45698074 0 -12.78460090 0 4640.60116792 0 410.52290912 0 701.14110628 0 12933
0.11050000 0.11050200 15685.61437205 0 405.38768494 0 5299.17426032 0 -382.87255513 0 1073.67777497 0 13428
0.11150000 0.11150900 15200.37450557 0 528.45449715 0 5571.58514856 0 -691.07917241 0 1043.83136399 0 13453
0.11250000 0.11250000 15038.66485406 0 164.73200267 0 5966.12120640 0 -16.28376262 0 478.09269917 0 13668
0.11350000 0.11349100 14715.68919893 0 121.59833774 0 5867.69792468 0 -61.87379494 0 751.45632123 0 13791
0.11450000 0.11448600 14710.14360046 0 145.53092252 0 5914.05912793 0 -236.68947023 0 -491.04721721 0 14205
0.11550000 0.11549300 14390.71712835 0 198.77421347 0 6074.87039248 0 -456.32178868 0 -1116.49534079 0 14776
0.11650000 0.11649800 14265.83025071 0 391.09667767 0 6431.01981768 0 -532.11570127 0 -897.72037187 0 14553
0.11750000 0.11747300 13997.31237260 0 19.19209629 0 6657.89025126 0 -104.92283404 0 -1565.30062530 0 14568
0.11850000 0.11849100 14091.92028256 0 -152.05365544 0 6771.74138793 0 799.14957723 0 -1011.09458707 0 16015
0.11950000 0.11950300 14112.54990889 0 22.85008395 0 5932.95852753 0 507.87589034 0 -2064.37121438 0 15270
0.12050000 0.12050700 14177.87705891 0 134.31106768 0 5895.41482586 0 124.55081437 0 -395.91358450 0 15999
0.12150000 0.12150000 13811.42391174 0 145.48212125 0 5621.00752216 0 626.19788850 0 -1244.43229759 0 15670
0.12250000 0.12250700 13815.97130249 0 23.76355493 0 5243.97337310 0 536.37028442 0 374.26911366 0 16887
0.12350000 0.12352200 13473.47514073 0 204.64811137 0 5482.43410749 0 35.11217856 0 -415.05477220 0 16407
0.12450000 0.12449800 13293.57592623 0 310.96832532 0 4912.18021640 0 -142.11372474 0 113.94873921 0 16306
0.12550000 0.12549900 12982.80058774 0 245.52582684 0 5123.21242073 0 86.41029539 0 -253.04122189 0 17523
0.12650000 0.12650100 12890.18909322 0 -176.98777530 0 4706.19450668 0 574.84564663 0 -33.36132221 0 17154
0.12750000 0.12750600 12969.93479928 0 -324.64155291 0 3898.71100406 0 994.23264035 0 -432.24945483 0 18007
0.12850000 0.12850300 13288.47397563 0 -163.22470901 0 3255.93177612 0 986.16268545 0 -43.47605018 0 17496
0.12950000 0.12949900 13450.62727502 0 -63.89072911 0 2243.28331235 0 585.50317778 0 -109.96378306 0 18405
0.13050000 0.13049000 13298.12331698 0 245.58128283 0 2294.31390951 0 -74.19722387 0 327.02172378 0 18100
0.13150000 0.13148800 12712.06447024 0 597.79776959 0 2507.42016768 0 -762.20480020 0 420.41625680 0 19059
0.13250000 0.13249300 12222.38812497 0 432.55224450 0 3073.44831273 0 -606.14500442 0 198.11650549 0 18957
0.13350000 0.13349100 11548.26517446 0 422.13650145 0 4012.65087031 0 -472.89980076 0 91.68759781 0 19468
0.13450000 0.13450700 11431.58578256 0 151.18632384 0 4384.60525116 0 210.48651744 0 659.00675819 0 19953
0.13550000 0.13551000 11210.64913935 0 -13.85811785 0 4508.74901860 0 254.29119979 0 403.50329057 0 19956
0.13650000 0.13649900 11428.48024742 0 -58.93240951 0 4022.75495073 0 188.62022266 0 475.68036384 0 19723
0.13750000 0.13749600 11511.66422453 0 -46.46568232 0 4163.31368965 0 170.16668918 0 118.83884794 0 20946
0.13850000 0.13851100 11411.17798018 0 83.58070923 0 3815.54920934 0 -116.95112622 0 577.98889184 0 20955
0.13950000 0.13949800 11405.07782186 0 43.61469014 0 3904.03477859 0 -23.59141956 0 22.48462901 0 20506
0.14050000 0.14048300 11389.32832219 0 -38.01818308 0 3370.60366137 0 465.97002091 0 109.86163313 0 21447
0.14150000 0.14148400 11490.48003836 0 25.90604145 0 3487.17214129 0 423.06261639 0 114.22491001 0 21771
0.14250000 0.14249400 11276.08720135 0 199.08254874 0 2963.40145661 0 152.60599705 0 204.81780668 0 22470
0.14350000 0.14350900 10964.40238471 0 74.20609683 0 2668.79708327 0 409.22412996 0 382.05957040 0 22519
0.14450000 0.14449900 10882.82663116 0 -32.86410385 0 2471.39595999 0 658.15384515 0 1023.34370498 0 22218
0.14550000 0.14550500 10857.13941902 0 106.12999992 0 1994.69631515 0 387.02842663 0 1122.92823502 0 23559
0.14650000 0.14650700 10655.69000885 0 113.19675605 0 1824.64608354 0 149.80657894 0 1087.92774481 0 23044
0.14750000 0.14750500 10635.23784168 0 69.05734138 0 1585.77497487 0 24.76098627 0 1370.42829492 0 23649
0.14850000 0.14849900 10371.12316875 0 96.38128145 0 2033.72623721 0 -2.05041849 0 1080.43896863 0 23640
0.14950000 0.14949500 10434.98628078 0 192.21820695 0 1840.59522475 0 -515.48888792 0 1076.74227269 0 24457
0.15050000 0.15050000 10302.46865964 0 222.91531274 0 2164.02561896 0 -382.23259307 0 907.87658091 0 24591
0.15150000 0.15149900 9892.18310213 0 125.41149125 0 2669.57346706 0 -80.69965991 0 554.79165343 0 25020
0.15250000 0.15250500 9964.18715272 0 22.98728206 0 2230.07369679 0 332.06932751 0 656.71198954 0 25297
0.15350000 0.15350100 9926.01125283 0 50.04259333 0 2720.20478113 0 74.93889221 0 581.20533896 0 25452
0.15450000 0.15450400 9792.21814404 0 74.66294323 0 1700.48013371 0 219.90405277 0 663.21808567 0 26061
0.15550000 0.15549900 9759.05546517 0 156.92158178 0 2655.80929165 0 -107.32163812 0 767.53412033 0 26128
0.15650000 0.15649500 9483.55013297 0 221.99585252 0 2390.92932613 0 -301.46538777 0 771.62677200 0 26331
0.15750000 0.15749700 9339.25366068 0 164.09204061 0 2433.31988086 0 93.66371637 0 515.50219736 0 27345
0.15850000 0.15849900 9127.78889966 0 54.49903627 0 2616.85700796 0 -95.42244747 0 636.01692516 0 26980
0.15950000 0.15949700 9089.41335822 0 64.22069222 0 2325.41362576 0 132.26141449 0 790.24445520 0 27777
0.16050000 0.16050000 8947.11330137 0 68.15873261 0 2731.38470765 0 365.88749612 0 748.12674391 0 28224
0.16150000 0.16150500 9036.24216005 0 11.34041614 0 2302.09992977 0 198.62891879 0 890.32476174 0 28075
0.16250000 0.16249700 8973.44380293 0 53.10498372 0 2351.94376886 0 70.11821437 0 773.54000348 0 28590
0.16350000 0.16349900 8919.76240970 0 62.43889143 0 2494.35473767 0 -158.79044847 0 1032.30650124 0 29163
0.16450000 0.16449100 8692.34850747 0 151.23845247 0 2281.82522175 0 -253.22311752 0 771.74212045 0 28996
0.16550000 0.16550500 8743.09073351 0 118.80224699 0 2755.20859870 0 107.10890896 0 1046.73725759 0 30777
0.16650000 0.16650700 8471.82223855 0 -17.00613228 0 2376.17803419 0 201.37953563 0 727.56255565 0 29211
0.16750000 0.16749900 8671.95179629 0 -0.53377384 0 2362.13657885 0 287.99401996 0 1213.01093664 0 30922
0.16850000 0.16850800 8537.77049561 0 24.95486040 0 2236.28476708 0 327.21249237 0 992.29833561 0 30867
0.16950000 0.16949900 8531.22668941 0 170.26650995 0 2131.24004078 0 -61.43946367 0 1459.43515043 0 30852
0.17050000 0.17049200 8383.94668513 0 86.36859249 0 2155.40775893 0 152.65258008 0 1186.03714566 0 31257
0.17150000 0.17149500 8239.52820967 0 57.44341632 0 2173.77478108 0 -49.77840102 0 1304.14730196 0 32608
0.17250000 0.17250900 8116.72647706 0 115.10887841 0 2251.53516288 0 -150.71162061 0 1339.88313853 0 32361
0.17350000 0.17350400 8059.45153602 0 138.87953171 0 2174.90608317 0 11.76809270 0 806.60618894 0 32508
0.17450000 0.17449800 8002.93079637 0 -2.64115782 0 2120.81431565 0 72.78231988 0 1050.30196829 0 32791
0.17550000 0.17549800 7964.64398450 0 -37.79436272 0 2007.97247790 0 209.49607356 0 383.92843708 0 33633
0.17650000 0.17650100 8003.74045375 0 52.80873785 0 1735.87214317 0 70.88406152 0 698.34168817 0 33984
0.17750000 0.17750300 7921.17758366 0 87.56766179 0 1492.78637966 0 91.06626896 0 382.86479129 0 34069
0.17850000 0.17849800 7701.90462000 0 138.81853012 0 1563.24875387 0 -45.21237706 0 599.33833685 0 34536
