### header ###
fiducial parameters:
Omega_m = 0.31
Omega_nu = 0
Omega_de = 0.69
Omega_k = 0
H_0 = 100
w_de = -1
zeff = 0
beta = 0
fgrowth = 0
b_1 = 2
gamma = 0.55
Lx = 3500 Ly = 3500 Lz = 3500
nx = 700 ny = 700 nz = 700
xoffset = 1379.75464 yoffset = 22.6059522 zoffset = 368.141391
bins = 400 dk = 0.001
kx_ny = 0.628318531 ky_ny = 0.628318531 kz_ny = 0.628318531
############################
A(data) = 3.35794317 (not used)
A(ran) = 3.36085731 (used)
Ngal = 188878
weighted Ngal = 0
Nran = 9399747
weighted Nran = 0
SN(data) = 6629.05607
SN(ran) = 133.679386
SN(data+ran) = 6762.73546
############################
13 columns: k_central k_mean P_0(k) sigma^{lin}_{P_0(k)} P^img_1(k) sigma^{lin}_{P_1(k)} P_2(k) sigma^{lin}_{P_2(k)} P^img_3(k) sigma^{lin}_{P_3(k)} P_4(k) sigma^{lin}_{P_4(k)} N_modes
### header ###
0.00050000 0 0 0 0 0 0 0 0 0 0 0 0
0.00150000 0.00179520 52813.83980411 0 -60672.84013768 0 -68946.20758924 0 69775.82912096 0 42060.81345084 0 3
0.00250000 0.00253879 76377.19863258 0 -54071.02697819 0 -19365.56260751 0 -78802.51066924 0 -6814.38704020 0 6
0.00350000 0.00331552 82994.42855582 0 -6603.86503093 0 -49454.20533652 0 -31748.55126429 0 -41142.12960761 0 7
0.00450000 0.00420575 114021.94110651 0 -8149.83369995 0 -20668.88916089 0 -73788.73508880 0 21368.96551226 0 24
0.00550000 0.00557378 132346.81670436 0 -12791.25561645 0 -12454.08322922 0 -24064.79184250 0 18775.62184183 0 45
0.00650000 0.00659388 152892.14993125 0 1460.52208773 0 -29924.49301418 0 -446.57817216 0 -17025.76369931 0 40
0.00750000 0.00754703 127648.58567709 0 4420.28563174 0 18778.50555304 0 -18076.21096227 0 -29541.84671947 0 57
0.00850000 0.00846663 147823.47292591 0 15477.09986943 0 21049.64995212 0 -22513.46612535 0 -5982.00380043 0 75
0.00950000 0.00948925 115661.22001545 0 17959.64248235 0 48605.17421013 0 -8446.46776233 0 18338.96141798 0 112
0.01050000 0.01054430 99729.71380706 0 13782.58679968 0 74274.08586725 0 -7073.01157064 0 -20188.97306894 0 105
0.01150000 0.01145670 90996.06168215 0 7745.81466871 0 89420.44624369 0 23825.00016448 0 19093.38463440 0 144
0.01250000 0.01249090 93626.89359827 0 1471.55782870 0 77462.91590184 0 23343.30948102 0 -8681.19076334 0 169
0.01350000 0.01339930 85259.36188462 0 745.74657305 0 75301.01979269 0 10356.11677928 0 54725.18577419 0 180
0.01450000 0.01448870 92456.32867235 0 -55.73803388 0 71517.47977774 0 25217.16720542 0 24487.25553426 0 267
0.01550000 0.01550050 101024.50013879 0 -877.32920628 0 49078.43558392 0 30364.59170909 0 10874.88533414 0 238
0.01650000 0.01653350 94488.79051311 0 1103.85137627 0 59551.85286212 0 11894.08869530 0 29003.25819566 0 315
0.01750000 0.01747870 94460.95160877 0 6201.68713839 0 39280.36128789 0 -828.53015795 0 39611.98807664 0 297
0.01850000 0.01844180 87959.95742954 0 3632.32263576 0 65321.04986671 0 11015.11133716 0 48208.10935939 0 388
0.01950000 0.01947590 81799.57390859 0 4056.08399756 0 45495.31349782 0 9055.70721069 0 9148.61816753 0 399
0.02050000 0.02045430 80760.21784257 0 4843.41479532 0 59360.75153870 0 6832.23277609 0 46061.85183794 0 462
0.02150000 0.02154770 72960.99906055 0 2086.66452025 0 49381.89073242 0 13842.70108714 0 33185.74856484 0 571
0.02250000 0.02255340 74598.39246602 0 -1599.01786403 0 52665.88323682 0 20240.21439884 0 46729.65280619 0 510
0.02350000 0.02348930 73704.55290396 0 -2261.02922747 0 35735.06018339 0 8939.12763957 0 48170.06655386 0 555
0.02450000 0.02439640 75294.80872240 0 1404.54481674 0 29713.09480035 0 14092.69666635 0 34647.90105852 0 592
0.02550000 0.02547300 77549.98179788 0 39.49553051 0 27726.88325086 0 7966.61821756 0 43833.85219498 0 837
0.02650000 0.02652900 70500.08428168 0 3373.37646060 0 26936.74638027 0 -4239.32166234 0 27939.83423227 0 723
0.02750000 0.02749970 70779.24970887 0 4737.51604686 0 33150.25673460 0 -4785.48547366 0 36106.83710509 0 826
0.02850000 0.02848090 62500.33665884 0 2793.80596408 0 27161.01038256 0 -4721.06780178 0 14860.98387895 0 831
0.02950000 0.02946900 61883.00063670 0 1282.75238305 0 37438.55712266 0 3239.87172294 0 14018.05291089 0 996
0.03050000 0.03053250 62259.54677309 0 -303.48065826 0 31014.53585025 0 3354.08886911 0 7763.84895495 0 1041
0.03150000 0.03150510 58415.78155872 0 2532.94101185 0 30414.61300732 0 2785.64284312 0 -1384.19247034 0 1036
0.03250000 0.03246190 57316.97667706 0 3540.50970742 0 33504.62047710 0 -4384.53870398 0 7773.56484348 0 1059
0.03350000 0.03345080 53853.41769406 0 1638.40270439 0 27670.20723446 0 2547.09337916 0 -3699.63511003 0 1302
0.03450000 0.03451200 51936.30430156 0 -477.13331064 0 29283.42183058 0 6358.99358470 0 6996.49340289 0 1339
0.03550000 0.03553350 52780.34438932 0 -175.99178582 0 23971.07122829 0 217.36305955 0 -1125.62339588 0 1365
0.03650000 0.03647120 54329.89551496 0 1525.21703953 0 27001.96261833 0 4546.18180830 0 6062.90299097 0 1308
0.03750000 0.03744890 51767.71810795 0 -8.71336633 0 28844.43225536 0 346.85278392 0 8096.70686657 0 1579
0.03850000 0.03847530 50883.41697527 0 638.62890204 0 22103.75731008 0 2285.52968153 0 6057.49048686 0 1662
0.03950000 0.03950240 52969.11656138 0 285.67485068 0 27205.48608233 0 7078.65698989 0 12733.47048035 0 1683
0.04050000 0.04050350 50634.53051575 0 949.28556472 0 22267.35246507 0 624.37449572 0 4620.72574299 0 1822
0.04150000 0.04152450 50304.78923048 0 1393.25397824 0 28413.09560605 0 3129.66959006 0 21694.04849481 0 1887
0.04250000 0.04250150 48500.25148700 0 152.53944987 0 21733.08950807 0 3056.43441661 0 9427.78359472 0 1920
0.04350000 0.04349210 47907.09427421 0 1059.41116834 0 23395.32719470 0 1335.92358122 0 17561.46851191 0 2005
0.04450000 0.04448520 47300.96036099 0 602.75331639 0 17880.67316008 0 3580.47129002 0 8112.30108948 0 2151
0.04550000 0.04548030 46236.53818987 0 74.05802935 0 19556.88575486 0 394.31090654 0 16145.23357359 0 2274
0.04650000 0.04648670 45901.14039416 0 940.52351913 0 19740.88871223 0 1912.76564330 0 8831.13265489 0 2311
0.04750000 0.04749250 43285.61432983 0 1381.78568060 0 15427.52221907 0 -368.93646617 0 5858.03749214 0 2568
0.04850000 0.04851840 42011.45762442 0 1580.79502744 0 15419.75838121 0 388.82076405 0 7280.42804477 0 2493
0.04950000 0.04949480 39573.83435914 0 1066.84337941 0 17767.76477514 0 -197.29464779 0 5359.22200059 0 2644
0.05050000 0.05050630 38565.75546851 0 1228.99335144 0 16701.34618857 0 1581.80432636 0 4497.68000405 0 2829
0.05150000 0.05149060 37660.60288557 0 574.96321332 0 17177.71309750 0 816.35646018 0 1577.98895461 0 2784
0.05250000 0.05249300 36149.98186122 0 633.22305265 0 16391.12540993 0 -390.81939774 0 4358.68512389 0 3055
0.05350000 0.05348950 34836.56231861 0 1564.77933905 0 14961.02647543 0 1211.46926026 0 -163.67057513 0 3009
0.05450000 0.05448610 34199.04031803 0 996.79248861 0 18651.84408389 0 -413.83695877 0 5543.76842661 0 3336
0.05550000 0.05550870 33627.95458716 0 -126.70361570 0 16066.48607526 0 1166.87155733 0 2744.32813449 0 3349
0.05650000 0.05647670 33114.54308043 0 -615.80987344 0 16099.75966610 0 4490.33763167 0 3894.28561648 0 3324
0.05750000 0.05747970 34835.78593482 0 -375.28284906 0 13318.53111936 0 803.16791789 0 2798.36444602 0 3639
0.05850000 0.05849280 34590.89230621 0 -68.20797752 0 12870.55767463 0 966.03881771 0 3134.02843046 0 3846
0.05950000 0.05951020 34599.32161589 0 387.05282726 0 14100.46050421 0 476.13510291 0 5212.72947130 0 3787
0.06050000 0.06049470 34679.73279376 0 -141.95844798 0 10331.71614600 0 871.22128412 0 4358.92913023 0 3930
0.06150000 0.06148310 34700.02968418 0 -584.50607917 0 10720.79533494 0 2766.80999070 0 4021.02472400 0 4083
0.06250000 0.06249100 34193.27289561 0 557.25500827 0 8620.56628082 0 410.44527074 0 2548.66832913 0 4303
0.06350000 0.06350600 34897.56390183 0 682.98038040 0 10340.12327328 0 -563.23538166 0 5494.57896815 0 4470
0.06450000 0.06451750 32515.72935720 0 592.55163344 0 11856.93318553 0 -1100.49185272 0 2461.55806829 0 4479
0.06550000 0.06550280 32129.86661537 0 1034.51919503 0 9111.64011690 0 -187.98469708 0 2887.12729520 0 4636
0.06650000 0.06648880 30523.19582545 0 684.39894449 0 11483.82532019 0 318.66894336 0 2297.10889114 0 4653
0.06750000 0.06749660 30410.06561658 0 832.86681595 0 11802.36449654 0 -216.95712174 0 -353.59734079 0 5220
0.06850000 0.06852730 29730.28615562 0 128.15545338 0 12349.38233003 0 146.31285190 0 1685.73993296 0 5029
0.06950000 0.06949320 28807.72039347 0 147.03488882 0 9523.80008670 0 2099.90740940 0 226.26596334 0 5040
0.07050000 0.07048030 28963.32988665 0 67.92792480 0 9843.51492993 0 537.18105091 0 605.05252152 0 5475
0.07150000 0.07148790 27960.90750647 0 112.68323363 0 8461.90670848 0 831.26081064 0 707.86569899 0 5509
0.07250000 0.07249820 28626.60114730 0 434.44218446 0 8577.24406554 0 1552.14646572 0 2252.59991779 0 5916
0.07350000 0.07351270 27278.90980612 0 563.62024620 0 8097.19487923 0 -541.85931779 0 1433.91430625 0 5721
0.07450000 0.07449140 26957.04327069 0 812.07193080 0 6809.04108327 0 96.13738603 0 1973.67849694 0 6028
0.07550000 0.07549160 25611.79199284 0 386.60252467 0 9830.29422316 0 288.16704263 0 2707.01734796 0 6183
0.07650000 0.07648840 25311.10964357 0 512.93680350 0 7418.43580839 0 55.76831285 0 551.23470657 0 6330
0.07750000 0.07749960 25116.12640122 0 59.64535165 0 8610.14055569 0 1094.07226792 0 3132.90821957 0 6583
0.07850000 0.07848650 24530.06755448 0 8.00419519 0 6401.68360176 0 1316.23670663 0 697.65957956 0 6549
0.07950000 0.07947320 24519.64182934 0 115.53256213 0 6865.87237643 0 879.18476353 0 3025.11287643 0 6828
0.08050000 0.08048110 23956.43084831 0 526.87289247 0 5912.01834769 0 -113.45850830 0 2234.21071325 0 7147
0.08150000 0.08149960 23520.43589628 0 487.58343640 0 6266.11590146 0 165.08137538 0 2342.34988350 0 7386
0.08250000 0.08250610 23146.32982322 0 -30.93978118 0 6256.71056645 0 442.62859693 0 2883.51156499 0 7227
0.08350000 0.08350160 22805.94098887 0 382.33241384 0 5994.42594102 0 46.17941853 0 2493.46744191 0 7798
0.08450000 0.08449610 22585.44799354 0 359.54998619 0 6380.17777087 0 -504.17364880 0 2784.43390265 0 7371
0.08550000 0.08548940 22391.57387089 0 -64.60001115 0 6063.36882125 0 355.45178892 0 2313.30203869 0 8256
0.08650000 0.08650700 22226.42594833 0 336.45256854 0 7719.38434639 0 -273.51557146 0 1606.54878675 0 8037
0.08750000 0.08749060 22244.17186345 0 479.21623742 0 7242.18559769 0 -703.56786017 0 1187.66755161 0 8155
0.08850000 0.08849210 21214.57605074 0 397.07926930 0 7839.64619490 0 -104.19647155 0 2410.40546797 0 8718
0.08950000 0.08949900 21150.13619647 0 108.30509455 0 8116.19409960 0 -217.93203796 0 977.08343163 0 8571
0.09050000 0.09049190 21339.35201641 0 -165.04255619 0 7445.94197683 0 1414.37161723 0 2076.05024477 0 8932
0.09150000 0.09150830 21604.65344741 0 -322.89690763 0 6157.39998897 0 1445.21623594 0 1357.98397195 0 9285
0.09250000 0.09250820 21016.70909719 0 223.10940869 0 5887.57334962 0 -139.11688332 0 1450.89492878 0 9204
0.09350000 0.09350330 21468.78628480 0 392.39989331 0 6058.78815691 0 120.72102406 0 2234.34380761 0 9349
0.09450000 0.09448040 20191.30222030 0 427.05433817 0 4987.83327078 0 69.05911597 0 -712.90664800 0 9564
0.09550000 0.09549270 19946.85223956 0 670.11237370 0 6346.56035292 0 -348.83699906 0 1730.37090948 0 10155
0.09650000 0.09649430 19113.90334875 0 348.34122255 0 6036.80540455 0 -417.14768106 0 -332.19354892 0 9913
0.09750000 0.09749140 18869.78610392 0 260.97253683 0 6081.32546910 0 398.12295094 0 825.09077777 0 10476
0.09850000 0.09850240 18538.82478698 0 73.71353677 0 5851.49368594 0 203.58113822 0 56.07764633 0 10575
0.09950000 0.09950330 18317.22267196 0 86.07489760 0 5862.88434521 0 350.30991001 0 -18.78427298 0 10882
0.10050000 0.10051200 18191.11576266 0 395.87476531 0 5974.14014180 0 -413.75932039 0 406.50789583 0 10875
0.10150000 0.10150300 17287.73777123 0 468.37126505 0 5390.26626085 0 -277.39970863 0 -855.40634639 0 11118
0.10250000 0.10250800 17405.74810675 0 285.08147164 0 6644.81373006 0 -144.92756140 0 -57.54002065 0 11575
0.10350000 0.10349800 17076.33955739 0 -63.37864855 0 5294.08340092 0 632.90140794 0 -1511.76341763 0 11364
0.10450000 0.10450100 16572.13374413 0 329.96089097 0 6185.87109154 0 -24.86690721 0 -173.45301083 0 12093
0.10550000 0.10551000 16672.61998848 0 139.31097927 0 5489.69884149 0 -278.75727114 0 -1172.62788855 0 12067
0.10650000 0.10649700 16519.45055862 0 -49.86713060 0 5565.96191171 0 967.39970758 0 -727.77994311 0 12054
0.10750000 0.10749900 16520.55967832 0 -27.48343148 0 5095.28478682 0 527.29768531 0 -22.64145854 0 12807
0.10850000 0.10850100 16316.37074250 0 121.82570728 0 4792.88330202 0 1177.34164725 0 1149.85766121 0 12736
0.10950000 0.10950300 16266.23853229 0 63.25520352 0 3732.83106250 0 876.88223104 0 941.71027721 0 12933
0.11050000 0.11050200 15789.64979943 0 360.32636998 0 4489.84961900 0 -335.91020901 0 1264.20790175 0 13428
0.11150000 0.11150900 15510.81710815 0 650.82921868 0 4484.80312439 0 -230.20888386 0 2562.37704855 0 13453
0.11250000 0.11250000 14666.11154857 0 298.14690164 0 5010.95841642 0 -287.53373528 0 1489.21501424 0 13668
0.11350000 0.11349100 14469.68645062 0 189.86354584 0 5180.53172656 0 -135.10297915 0 2267.40666572 0 13791
0.11450000 0.11448600 14269.26852177 0 74.38632878 0 4792.82784604 0 201.14662049 0 828.23402299 0 14205
0.11550000 0.11549300 14247.64068772 0 193.06335616 0 5106.81963164 0 -233.10923186 0 730.19782404 0 14776
0.11650000 0.11649800 13870.76181542 0 222.59477715 0 5346.15657059 0 -186.11583039 0 378.10444956 0 14553
0.11750000 0.11747300 13709.27398785 0 158.80264878 0 4522.14718452 0 -26.70294395 0 -198.42040428 0 14568
0.11850000 0.11849100 13431.77224021 0 48.17627762 0 4726.19193477 0 246.99208308 0 -350.04261216 0 16015
0.11950000 0.11950300 13268.39890916 0 316.57270713 0 5075.18753795 0 -117.33155428 0 -667.06562189 0 15270
0.12050000 0.12050700 13056.44613548 0 129.28120987 0 4731.63771248 0 494.00413031 0 206.87744196 0 15999
0.12150000 0.12150000 13105.35831402 0 -342.62925612 0 4280.44782062 0 1082.64611683 0 445.64872986 0 15670
0.12250000 0.12250700 13605.12764851 0 -363.16682551 0 3748.27000865 0 758.36835517 0 813.46276689 0 16887
0.12350000 0.12352200 13778.26123287 0 98.90896523 0 3470.81262580 0 111.48427524 0 266.98951118 0 16407
0.12450000 0.12449800 13690.30804107 0 190.36819530 0 3548.53973401 0 -758.33729982 0 918.79031871 0 16306
0.12550000 0.12549900 13402.38056829 0 238.91547346 0 4069.90362895 0 -551.57409719 0 309.36564736 0 17523
0.12650000 0.12650100 13029.27270296 0 387.06280934 0 4574.80818763 0 -295.70683832 0 206.14320472 0 17154
0.12750000 0.12750600 12950.30338068 0 187.37579036 0 4441.71382425 0 82.38041989 0 272.99317609 0 18007
0.12850000 0.12850300 12521.29588273 0 -42.20311351 0 4286.75871168 0 894.67805655 0 341.13749013 0 17496
0.12950000 0.12949900 12934.99752890 0 -87.81843376 0 3756.55513277 0 637.63845815 0 -105.96329923 0 18405
0.13050000 0.13049000 12627.99319737 0 129.63390993 0 3115.75013789 0 276.74089153 0 796.65627616 0 18100
0.13150000 0.13148800 12006.10978448 0 486.60297459 0 3544.36944396 0 -241.12705813 0 545.08685610 0 19059
0.13250000 0.13249300 11720.51146306 0 347.64136803 0 3420.60277721 0 -417.90964629 0 -47.23086400 0 18957
0.13350000 0.13349100 11585.30977227 0 10.81991736 0 3594.39074219 0 182.30045864 0 117.34153635 0 19468
0.13450000 0.13450700 11245.58640974 0 115.62794642 0 3506.49300638 0 117.86060437 0 -308.36965787 0 19953
0.13550000 0.13551000 11355.94381938 0 -71.21823928 0 3062.44584536 0 -104.91263014 0 -117.17295016 0 19956
0.13650000 0.13649900 11356.72020316 0 101.07596329 0 3201.11908080 0 5.46229249 0 -902.44300353 0 19723
0.13750000 0.13749600 11356.49837922 0 58.49619274 0 3282.71701675 0 103.52711782 0 -591.29721906 0 20946
0.13850000 0.13851100 11225.62225524 0 -24.07067018 0 3336.35404519 0 -1.45347918 0 -655.20247764 0 20955
0.13950000 0.13949800 11295.49679601 0 92.73871055 0 3310.87756580 0 -49.49391182 0 -441.75017413 0 20506
0.14050000 0.14048300 11336.75604866 0 125.21961355 0 3272.84585147 0 164.24066265 0 -740.59914854 0 21447
0.14150000 0.14148400 11086.42773353 0 112.01776182 0 3576.82228623 0 -270.14162935 0 -485.73342475 0 21771
0.14250000 0.14249400 10886.69745889 0 204.52499908 0 3637.36913037 0 91.15965684 0 -258.92510188 0 22470
0.14350000 0.14350900 10775.71894223 0 222.50493846 0 3804.10309409 0 86.40175517 0 -161.85050971 0 22519
0.14450000 0.14449900 10544.40093868 0 62.44465885 0 3612.10338372 0 421.85700328 0 -14.90057945 0 22218
0.14550000 0.14550500 10422.95233209 0 -9.04723354 0 3670.94218353 0 369.84261696 0 590.95339196 0 23559
0.14650000 0.14650700 10423.26288561 0 64.48055896 0 3170.99538989 0 330.68403701 0 318.39609991 0 23044
0.14750000 0.14750500 10283.29198012 0 137.02952006 0 2950.91276885 0 291.10288246 0 1250.68773267 0 23649
0.14850000 0.14849900 10038.33180432 0 127.77835268 0 2960.58429259 0 -34.06361680 0 459.85433491 0 23640
0.14950000 0.14949500 9839.21154551 0 257.71948877 0 3271.07125995 0 -268.84728667 0 826.03463863 0 24457
0.15050000 0.15050000 9585.62241849 0 221.80064745 0 3290.25903067 0 -280.15254372 0 518.80626493 0 24591
0.15150000 0.15149900 9311.75858344 0 167.85750197 0 3507.08083982 0 -245.92621905 0 649.82102888 0 25020
0.15250000 0.15250500 9377.49610775 0 -35.88856235 0 3581.55822732 0 554.93916635 0 539.34716168 0 25297
0.15350000 0.15350100 9309.68452961 0 -17.02953471 0 3135.96938993 0 159.45148381 0 260.21722632 0 25452
0.15450000 0.15450400 9356.82211664 0 116.72930228 0 3135.44810367 0 -116.07381254 0 448.49694923 0 26061
0.15550000 0.15549900 9191.51891732 0 236.29573274 0 3550.30323432 0 -364.10181342 0 397.62495619 0 26128
0.15650000 0.15649500 8974.17582193 0 132.90581303 0 3551.46781000 0 -49.92657941 0 536.50226966 0 26331
0.15750000 0.15749700 8819.64217485 0 -34.02413214 0 3910.20148410 0 436.46078231 0 475.46297637 0 27345
0.15850000 0.15849900 8992.05483141 0 24.90461728 0 3342.28783556 0 266.79430611 0 845.67382107 0 26980
0.15950000 0.15949700 8907.04080680 0 138.89062290 0 3794.47593514 0 198.57789928 0 931.21467753 0 27777
0.16050000 0.16050000 8721.45180827 0 70.42056040 0 3095.46433867 0 301.13487010 0 1541.98692932 0 28224
0.16150000 0.16150500 8582.39038093 0 2.53772132 0 3103.54982125 0 478.98886788 0 1452.85807064 0 28075
0.16250000 0.16249700 8708.65256699 0 -97.87681844 0 2752.52452903 0 275.08719407 0 1373.35637092 0 28590
0.16350000 0.16349900 8649.15938656 0 -9.24481212 0 2530.17930381 0 245.35834977 0 1498.02142461 0 29163
0.16450000 0.16449100 8586.11702310 0 190.08647890 0 2447.02860029 0 -228.50749425 0 1200.37806331 0 28996
0.16550000 0.16550500 8447.47706125 0 94.90570861 0 2116.53311363 0 23.18758908 0 1338.64092447 0 30777
0.16650000 0.16650700 8414.52511512 0 23.43680827 0 2497.87064710 0 35.28897224 0 745.66893467 0 29211
0.16750000 0.16749900 8324.08749520 0 132.14717516 0 2262.38235350 0 -7.33628331 0 988.93881205 0 30922
0.16850000 0.16850800 8195.26324265 0 86.12591710 0 2248.98418758 0 47.61284482 0 744.56979705 0 30867
0.16950000 0.16949900 8120.80803753 0 53.71255949 0 2225.02720218 0 71.05497687 0 933.78118051 0 30852
0.17050000 0.17049200 8017.54899395 0 44.09150070 0 2100.31778369 0 90.78399800 0 828.90060393 0 31257
0.17150000 0.17149500 7959.81931383 0 86.99790701 0 2245.71228449 0 -152.44073822 0 299.23938454 0 32608
0.17250000 0.17250900 8049.19217884 0 -21.20958501 0 1887.06733997 0 93.20232258 0 764.53284244 0 32361
0.17350000 0.17350400 7938.74603963 0 -18.70940740 0 2087.29671847 0 192.20933399 0 72.56437786 0 32508
0.17450000 0.17449800 8056.10199454 0 -18.60759021 0 1464.61473941 0 212.52729768 0 673.42531422 0 32791
0.17550000 0.17549800 8140.01799065 0 -60.85706492 0 1453.57899844 0 103.74017971 0 -116.13370501 0 33633
0.17650000 0.17650100 8161.91201342 0 -7.10128303 0 1223.93576563 0 237.72760627 0 247.72299296 0 33984
0.17750000 0.17750300 7936.49452665 0 214.80875689 0 1095.83909560 0 -381.72350713 0 -303.70691867 0 34069
0.17850000 0.17849800 7793.88391629 0 252.03968681 0 1665.72032247 0 -421.29578872 0 -67.44290675 0 34536
