### header ###
fiducial parameters:
Omega_m = 0.31
Omega_nu = 0
Omega_de = 0.69
Omega_k = 0
H_0 = 100
w_de = -1
zeff = 0
beta = 0
fgrowth = 0
b_1 = 2
gamma = 0.55
Lx = 3500 Ly = 3500 Lz = 3500
nx = 700 ny = 700 nz = 700
xoffset = 1379.75464 yoffset = 22.6059522 zoffset = 368.141391
bins = 400 dk = 0.001
kx_ny = 0.628318531 ky_ny = 0.628318531 kz_ny = 0.628318531
############################
A(data) = 3.31530256 (not used)
A(ran) = 3.31657889 (used)
Ngal = 186561
weighted Ngal = 0
Nran = 9399747
weighted Nran = 0
SN(data) = 6613.51155
SN(ran) = 131.918195
SN(data+ran) = 6745.42975
############################
13 columns: k_central k_mean P_0(k) sigma^{lin}_{P_0(k)} P^img_1(k) sigma^{lin}_{P_1(k)} P_2(k) sigma^{lin}_{P_2(k)} P^img_3(k) sigma^{lin}_{P_3(k)} P_4(k) sigma^{lin}_{P_4(k)} N_modes
### header ###
0.00050000 0 0 0 0 0 0 0 0 0 0 0 0
0.00150000 0.00179520 78183.06731969 0 -70878.84865746 0 -99787.60985513 0 83045.78079769 0 100381.21071580 0 3
0.00250000 0.00253879 128076.70587930 0 -60357.51740844 0 -52388.49240114 0 -86027.09453738 0 -51931.53508688 0 6
0.00350000 0.00331552 157567.08944492 0 -25127.55033408 0 -84253.39032142 0 -78701.80260095 0 16894.88757532 0 7
0.00450000 0.00420575 164885.06119136 0 8135.78115341 0 -47359.41096891 0 -96326.49093547 0 5313.89227867 0 24
0.00550000 0.00557378 125093.17390022 0 29333.44312881 0 2642.62185847 0 -65610.75193100 0 11240.48445915 0 45
0.00650000 0.00659388 80157.74402435 0 29705.77461036 0 22464.44303484 0 33432.86043284 0 -22003.38197770 0 40
0.00750000 0.00754703 58578.82215385 0 10087.43253321 0 30122.69270365 0 -3471.02335854 0 1478.73383312 0 57
0.00850000 0.00846663 50357.80515189 0 -1925.79779971 0 11482.38346459 0 49272.97517839 0 -1314.29574717 0 75
0.00950000 0.00948925 61010.34526081 0 -11773.52738448 0 -12829.96389380 0 25386.86251873 0 1567.65195906 0 112
0.01050000 0.01054430 60314.26174034 0 -12947.19784554 0 -27584.02863417 0 -14063.97046625 0 -11995.12949950 0 105
0.01150000 0.01145670 79477.74273945 0 -1151.49915836 0 -36667.05346295 0 -9933.67526992 0 -7138.08362313 0 144
0.01250000 0.01249090 72684.49552063 0 4259.37454642 0 -15281.11841935 0 -35772.43751710 0 -22799.06444677 0 169
0.01350000 0.01339930 73698.45274564 0 8943.19810885 0 -5835.23399122 0 -20107.78550728 0 -7782.31579787 0 180
0.01450000 0.01448870 61972.06294819 0 1263.27624121 0 12555.56768130 0 -2692.08859686 0 -3536.61669729 0 267
0.01550000 0.01550050 62931.45148421 0 1026.27510834 0 17710.09055101 0 13489.33555237 0 -15405.78347305 0 238
0.01650000 0.01653350 65543.98292537 0 -5619.11092748 0 5843.28620020 0 15497.72949575 0 19582.72824375 0 315
0.01750000 0.01747870 70391.72328750 0 -4667.48622933 0 -6402.17161442 0 12608.80542665 0 9740.30025113 0 297
0.01850000 0.01844180 76547.33759376 0 565.15859521 0 2974.55920074 0 1031.56339104 0 24990.13040389 0 388
0.01950000 0.01947590 74812.67439106 0 342.32757557 0 5195.13883294 0 -14377.96225186 0 7308.46659065 0 399
0.02050000 0.02045430 71973.77162019 0 7316.14169894 0 16035.43072380 0 -12675.01987243 0 11482.71620049 0 462
0.02150000 0.02154770 69680.55573918 0 4117.28522232 0 33154.36047747 0 -9472.30365927 0 16370.49578361 0 571
0.02250000 0.02255340 62742.79022413 0 346.39028101 0 27971.66596751 0 3847.50294775 0 -2190.62230924 0 510
0.02350000 0.02348930 71449.49074045 0 -4205.74860918 0 31839.38816729 0 24013.10686472 0 22868.16260375 0 555
0.02450000 0.02439640 74135.55681737 0 -6970.41799887 0 9728.26630244 0 15670.08669633 0 -436.24783133 0 592
0.02550000 0.02547300 78248.50538168 0 -141.86306369 0 19009.09153759 0 5677.39516745 0 31863.12332876 0 837
0.02650000 0.02652900 75582.18163533 0 3895.39473617 0 5013.57593890 0 -222.76114511 0 19729.57569135 0 723
0.02750000 0.02749970 69169.36247183 0 5815.66911980 0 20123.86774286 0 -1931.09939185 0 33642.15131926 0 826
0.02850000 0.02848090 64270.15895587 0 4756.74818237 0 20441.40871148 0 -6047.84114552 0 15878.26846304 0 831
0.02950000 0.02946900 60282.09726919 0 4040.73378098 0 23421.61333147 0 -2998.48291256 0 17358.83234366 0 996
0.03050000 0.03053250 54647.65830753 0 1904.16996566 0 31754.42959867 0 922.79978641 0 10257.21657609 0 1041
0.03150000 0.03150510 52705.70063386 0 1700.18067139 0 28333.90445984 0 3007.71078842 0 11614.59053221 0 1036
0.03250000 0.03246190 49346.95346203 0 1345.51746658 0 22855.85137514 0 2899.81562451 0 6337.31029467 0 1059
0.03350000 0.03345080 50971.48107904 0 1053.42746759 0 25370.78028315 0 3786.65664129 0 8247.79115139 0 1302
0.03450000 0.03451200 47303.06768841 0 478.37663381 0 23415.18043724 0 4914.79773888 0 13306.33080272 0 1339
0.03550000 0.03553350 49689.78235970 0 521.08217854 0 24548.36802944 0 4276.53262810 0 14024.04215724 0 1365
0.03650000 0.03647120 47036.98987363 0 -1748.33864854 0 16597.75440908 0 4380.26859316 0 11219.30027297 0 1308
0.03750000 0.03744890 50151.61980063 0 95.45061911 0 18593.94803582 0 2028.34700669 0 15982.08206648 0 1579
0.03850000 0.03847530 49517.31424716 0 128.05341437 0 16987.27724590 0 3435.22097479 0 18370.34950534 0 1662
0.03950000 0.03950240 48625.58201252 0 429.58978580 0 19166.14288638 0 1744.12399370 0 18952.19369724 0 1683
0.04050000 0.04050350 49613.14218879 0 372.18507775 0 16860.83760069 0 1690.32059730 0 16503.92288289 0 1822
0.04150000 0.04152450 48598.51949197 0 646.15317005 0 16958.44013383 0 878.29857689 0 17590.74927185 0 1887
0.04250000 0.04250150 47427.51091817 0 565.18632321 0 17214.97951924 0 3027.02056231 0 13314.87102437 0 1920
0.04350000 0.04349210 46359.76138797 0 1227.39621908 0 17378.02011438 0 -1146.76321726 0 17275.64836655 0 2005
0.04450000 0.04448520 45354.23347264 0 1924.55558565 0 15760.14721555 0 -1457.83801807 0 8425.78268002 0 2151
0.04550000 0.04548030 42904.74262663 0 -468.83376796 0 18185.01560434 0 4053.33338071 0 14030.58596344 0 2274
0.04650000 0.04648670 42661.84541346 0 1252.95033685 0 14347.01781237 0 -1757.05632934 0 4660.28804251 0 2311
0.04750000 0.04749250 41711.32983500 0 2371.75264660 0 14858.65472759 0 -3851.02994838 0 370.23302709 0 2568
0.04850000 0.04851840 37599.37947841 0 2675.91763171 0 18676.02289323 0 -3226.97266089 0 -70.30842840 0 2493
0.04950000 0.04949480 34405.22566929 0 2465.92799989 0 19249.10503955 0 -1577.29020920 0 -3208.11762608 0 2644
0.05050000 0.05050630 33134.50723494 0 -387.27576032 0 18651.84408389 0 3247.69101679 0 -2305.44947125 0 2829
0.05150000 0.05149060 33922.09313023 0 -834.78226567 0 19251.87783879 0 3913.00755692 0 -3471.68883035 0 2784
0.05250000 0.05249300 33395.81583504 0 217.51833631 0 15452.58832417 0 2637.93028217 0 -3055.81330958 0 3055
0.05350000 0.05348950 33129.62710828 0 585.58192528 0 14823.71745721 0 -2390.14185115 0 -4879.27263505 0 3009
0.05450000 0.05448610 33395.26127519 0 1023.41468864 0 16778.87365524 0 -1567.17503759 0 -1061.97212572 0 3336
0.05550000 0.05550870 31551.68251846 0 1376.56172683 0 17591.52565564 0 -1760.80515391 0 -6043.59321709 0 3349
0.05650000 0.05647670 31126.33511549 0 19.58028818 0 20526.92183995 0 62.72681890 0 -3528.86395062 0 3324
0.05750000 0.05747970 30554.91664872 0 -383.44597001 0 16783.97560584 0 3041.07310884 0 -6405.47679111 0 3639
0.05850000 0.05849280 31344.94260734 0 -57.05178616 0 17699.88664982 0 1435.38943545 0 -3477.24552003 0 3846
0.05950000 0.05951020 31528.72374077 0 -179.98239848 0 14705.15256183 0 1458.65876665 0 -2428.46193660 0 3787
0.06050000 0.06049470 30792.15735144 0 339.82096506 0 14140.61063717 0 1849.06889922 0 -2590.92578950 0 3930
0.06150000 0.06148310 31735.68547583 0 -433.97302683 0 11858.81868901 0 1928.70369331 0 -1626.53512365 0 4083
0.06250000 0.06249100 31883.53113115 0 -1291.90262053 0 9021.03612903 0 3518.93732935 0 -2843.31706725 0 4303
0.06350000 0.06350600 32641.28170665 0 -576.34961294 0 8753.02844598 0 958.51233146 0 -2475.36660850 0 4470
0.06450000 0.06451750 32590.81676054 0 914.23960060 0 5717.55639160 0 -1158.09842055 0 -6615.18914301 0 4479
0.06550000 0.06550280 31901.27704626 0 871.15362782 0 6407.70612170 0 -2138.47150119 0 -5301.19285816 0 4636
0.06650000 0.06648880 30487.81490718 0 740.37177900 0 6718.50364258 0 -216.25948546 0 -6179.82638920 0 4653
0.06750000 0.06749660 30147.64789678 0 535.39536820 0 8309.33620326 0 15.21190935 0 -7159.78909556 0 5220
0.06850000 0.06852730 28244.39850047 0 1468.57429672 0 7954.06298261 0 -1592.48514902 0 -6694.93484907 0 5029
0.06950000 0.06949320 27823.48757628 0 679.74175089 0 7404.79363615 0 175.40395238 0 -8007.57800789 0 5040
0.07050000 0.07048030 26044.12684988 0 124.51643166 0 8806.52128886 0 737.27178946 0 -5494.54569456 0 5475
0.07150000 0.07148790 26755.29439820 0 258.16424577 0 8397.66649576 0 1358.23906948 0 -4473.35700914 0 5509
0.07250000 0.07249820 26214.93128288 0 67.72761778 0 7985.72834990 0 1141.68344906 0 -5162.48634913 0 5916
0.07350000 0.07351270 25837.71967467 0 527.52283661 0 7976.89975713 0 -262.44877515 0 -3652.18696949 0 5721
0.07450000 0.07449140 24943.32555277 0 541.50772684 0 7532.23148908 0 -530.82801330 0 -3374.52994509 0 6028
0.07550000 0.07549160 24965.17521075 0 614.26597882 0 8954.56658572 0 -720.88232773 0 -1703.92949596 0 6183
0.07650000 0.07648840 24220.73407159 0 31.03106173 0 7509.67199449 0 1380.03327148 0 -3544.24744079 0 6330
0.07750000 0.07749960 24870.45638882 0 -337.84895024 0 8940.59167757 0 718.19603983 0 -2423.65944832 0 6583
0.07850000 0.07848650 23928.37012003 0 608.55955799 0 7767.15413164 0 -722.71792082 0 -3655.86924688 0 6549
0.07950000 0.07947320 23701.66605441 0 872.15294466 0 8837.27717800 0 -635.34368950 0 -2365.00919886 0 6828
0.08050000 0.08048110 22451.35542244 0 334.82105347 0 8097.23924402 0 104.11861135 0 -4630.80764102 0 7147
0.08150000 0.08149960 22111.85388385 0 360.03356238 0 8393.62930007 0 569.24126481 0 -1559.04519022 0 7386
0.08250000 0.08250610 21598.10964121 0 320.42024336 0 8411.04247928 0 1002.91704756 0 -2360.43962572 0 7227
0.08350000 0.08350160 21127.73197864 0 211.66440256 0 7251.60202390 0 1221.60661427 0 -2087.30780967 0 7798
0.08450000 0.08449610 20695.50803357 0 3.43585317 0 7167.49747744 0 681.72485690 0 -1163.24473593 0 7371
0.08550000 0.08548940 20939.95801431 0 177.90501729 0 6269.43216935 0 -173.41197341 0 -2245.90083483 0 8256
0.08650000 0.08650700 20238.21798339 0 515.50552472 0 7094.28448639 0 -684.62076842 0 -944.55406010 0 8037
0.08750000 0.08749060 20131.40975678 0 149.44167856 0 6805.52517384 0 -268.14743214 0 -2609.54790917 0 8155
0.08850000 0.08849210 20047.78213179 0 -95.55864737 0 6956.63164106 0 336.26734555 0 -2332.54526539 0 8718
0.08950000 0.08949900 20358.89020619 0 -217.21332839 0 6986.50023444 0 618.96310073 0 -3651.78768640 0 8571
0.09050000 0.09049190 19971.69652073 0 201.20984032 0 5328.89866814 0 -0.14431644 0 -2772.16703883 0 8932
0.09150000 0.09150830 20024.93426608 0 224.88954580 0 6721.80881927 0 257.25476762 0 -2696.92435873 0 9285
0.09250000 0.09250820 19633.30410184 0 331.70775449 0 5354.34187394 0 346.83281977 0 -2678.14696230 0 9204
0.09350000 0.09350330 19629.97674275 0 -41.89511097 0 5906.69457315 0 1098.88362916 0 -1377.22719865 0 9349
0.09450000 0.09448040 18866.90239271 0 173.81569297 0 4941.62734430 0 264.79123594 0 -2474.09112085 0 9564
0.09550000 0.09549270 19052.79085357 0 316.00594697 0 5162.23125160 0 -136.26533659 0 -992.69429134 0 10155
0.09650000 0.09649430 18503.99842857 0 216.77411699 0 5411.76100054 0 -255.32268111 0 -1822.58312091 0 9913
0.09750000 0.09749140 18034.61897372 0 433.28093614 0 5715.29378742 0 -577.47315119 0 -1737.48036673 0 10476
0.09850000 0.09850240 17698.44479422 0 531.33931748 0 6282.30904900 0 -650.72939791 0 -2760.07763416 0 10575
0.09950000 0.09950330 17099.18742311 0 277.17566645 0 6259.37245371 0 -247.05641202 0 -2457.76487894 0 10882
0.10050000 0.10051200 17156.30708739 0 100.28305362 0 6642.25166356 0 953.21850316 0 -2213.07089187 0 10875
0.10150000 0.10150300 16845.64266087 0 245.13319847 0 6977.10599063 0 -250.13421917 0 -2584.50398647 0 11118
0.10250000 0.10250800 16543.18572009 0 424.61760221 0 6357.35208755 0 103.87360681 0 -1827.58525073 0 11575
0.10350000 0.10349800 15917.42038827 0 260.50670656 0 6981.63119898 0 46.12873176 0 -1198.53692462 0 11364
0.10450000 0.10450100 15342.00909060 0 422.92508555 0 7320.54490413 0 -15.05164155 0 -475.30991786 0 12093
0.10550000 0.10551000 15369.40434706 0 206.06445722 0 7518.12348656 0 466.13527974 0 -531.56114142 0 12067
0.10650000 0.10649700 14948.27159894 0 87.45852442 0 7141.12261110 0 462.44191116 0 31.70307736 0 12054
0.10750000 0.10749900 15022.69353046 0 -18.62034508 0 6993.94242759 0 496.01385520 0 -115.08336865 0 12807
0.10850000 0.10850100 14586.80949039 0 154.78208989 0 6929.46929973 0 142.57400941 0 308.69352082 0 12736
0.10950000 0.10950300 15016.92610805 0 111.24248715 0 5929.07660860 0 324.37314595 0 -30.53650526 0 12933
0.11050000 0.11050200 14391.38260017 0 -54.08810742 0 6000.23772822 0 438.28639332 0 -678.34869655 0 13428
0.11150000 0.11150900 14718.79473408 0 81.85081524 0 5639.44109149 0 -208.61765076 0 -215.59845012 0 13453
0.11250000 0.11250000 14336.70299921 0 204.11240656 0 5095.93916744 0 -95.27870556 0 -1969.14219738 0 13668
0.11350000 0.11349100 14022.48938967 0 359.61098777 0 5956.38313548 0 -654.59024357 0 -1894.73135706 0 13791
0.11450000 0.11448600 13821.29507703 0 270.63962409 0 5155.52107744 0 -335.28133815 0 -2351.01210831 0 14205
0.11550000 0.11549300 13561.53924450 0 62.79902259 0 6333.39510215 0 344.28628095 0 -2415.07486188 0 14776
0.11650000 0.11649800 13456.61652137 0 -125.40483653 0 5067.51242966 0 587.17794852 0 -2410.33892079 0 14553
0.11750000 0.11747300 13572.07588160 0 -94.58051471 0 4798.05179980 0 862.09544727 0 -2280.94901719 0 14568
0.11850000 0.11849100 13604.35126472 0 111.60516929 0 4381.33334806 0 105.16062930 0 -1968.46563437 0 16015
0.11950000 0.11950300 13450.40545108 0 126.11578226 0 4224.89201511 0 99.83241829 0 -1991.30240889 0 15270
0.12050000 0.12050700 13402.71330420 0 65.38393695 0 4278.63995552 0 514.13465277 0 -1041.39684626 0 15999
0.12150000 0.12150000 13030.82547053 0 -6.90689871 0 3664.86420760 0 321.94971941 0 -1956.56478005 0 15670
0.12250000 0.12250700 13319.41841512 0 132.68731645 0 3521.76558458 0 134.52512778 0 -1480.18677992 0 16887
0.12350000 0.12352200 12625.88586995 0 207.35990902 0 3585.75069977 0 -180.15098467 0 -1804.03863961 0 16407
0.12450000 0.12449800 12554.34764963 0 455.42229261 0 3410.77597671 0 -186.80459372 0 -1671.84266319 0 16306
0.12550000 0.12549900 12088.07372993 0 206.37279250 0 4137.89266625 0 -149.31745715 0 -1482.81539360 0 17523
0.12650000 0.12650100 11951.31927156 0 6.98867411 0 3427.92296720 0 450.65640528 0 -1363.13028733 0 17154
0.12750000 0.12750600 12112.47436321 0 -101.27238839 0 3496.00073406 0 537.59142520 0 -1249.23478587 0 18007
0.12850000 0.12850300 12263.75828959 0 -163.56742699 0 2734.87843469 0 417.37837796 0 -984.52451567 0 17496
0.12950000 0.12949900 12247.01058220 0 91.48673624 0 2902.94334205 0 180.47041114 0 -389.82119002 0 18405
0.13050000 0.13049000 12210.52054424 0 130.03097478 0 2745.61471334 0 -116.40322109 0 -537.07346630 0 18100
0.13150000 0.13148800 11995.24041147 0 141.22421074 0 3160.29238484 0 10.31409223 0 38.90980440 0 19059
0.13250000 0.13249300 12214.51337514 0 -51.71769681 0 3308.03821938 0 362.33942222 0 862.71100870 0 18957
0.13350000 0.13349100 12072.10240632 0 -47.97874341 0 3065.58465409 0 452.50863517 0 441.52280459 0 19468
0.13450000 0.13450700 12127.55839106 0 -4.67569372 0 3076.02147042 0 96.94615611 0 714.16549886 0 19953
0.13550000 0.13551000 12186.23082292 0 277.89881250 0 3024.94650848 0 -439.31676552 0 626.72693859 0 19956
0.13650000 0.13649900 11709.30935415 0 136.22651740 0 3274.78681093 0 -304.23485965 0 522.75584016 0 19723
0.13750000 0.13749600 11694.00350236 0 181.02164363 0 3483.20149279 0 -160.43416386 0 -339.24755017 0 20946
0.13850000 0.13851100 11479.05610550 0 187.23049568 0 3387.46228073 0 -204.63480193 0 -525.57744067 0 20955
0.13950000 0.13949800 11278.97091256 0 39.91544323 0 3138.94183071 0 207.06044671 0 -1426.81594021 0 20506
0.14050000 0.14048300 10940.17921058 0 196.01028719 0 3113.92009040 0 0.48896429 0 -540.96425819 0 21447
0.14150000 0.14148400 10854.65499091 0 272.88004588 0 3085.72626775 0 34.07626077 0 -1190.20743571 0 21771
0.14250000 0.14249400 10511.43790135 0 106.74267764 0 2633.78217451 0 342.12571578 0 -1077.82920999 0 22470
0.14350000 0.14350900 10585.90419766 0 -112.59339494 0 2422.87197334 0 664.63443152 0 -776.81190658 0 22519
0.14450000 0.14449900 10520.89869234 0 -34.43483917 0 2009.32560393 0 324.69922714 0 -901.35939359 0 22218
0.14550000 0.14550500 10542.20488168 0 -55.27087266 0 1635.01988932 0 338.11735721 0 -437.26711232 0 23559
0.14650000 0.14650700 10510.87225030 0 99.22450979 0 1939.98344061 0 -202.24575811 0 -541.41899727 0 23044
0.14750000 0.14750500 10540.21955743 0 151.01108293 0 1668.62621607 0 -132.97125109 0 -83.13706135 0 23649
0.14850000 0.14849900 10363.68097560 0 208.22945887 0 2157.17125925 0 -244.59638454 0 -492.75193418 0 23640
0.14950000 0.14949500 10215.39167240 0 199.51843278 0 2355.83677898 0 -36.46774465 0 392.59066190 0 24457
0.15050000 0.15050000 9950.63371005 0 -6.25297283 0 2498.11465344 0 279.60131123 0 166.37793630 0 24591
0.15150000 0.15149900 9982.04397981 0 -5.97565964 0 2092.80904336 0 632.22262668 0 739.33031561 0 25020
0.15250000 0.15250500 9971.91771700 0 125.65217023 0 2350.60173402 0 16.98006797 0 764.25556251 0 25297
0.15350000 0.15350100 9833.52176148 0 200.96694310 0 2154.73119592 0 -336.53797076 0 381.85327413 0 25452
0.15450000 0.15450400 9601.64919808 0 177.21070836 0 2527.30668380 0 -356.47217904 0 820.09086619 0 26061
0.15550000 0.15549900 9340.56242192 0 186.01933698 0 2990.46397716 0 -402.71359735 0 166.94136911 0 26128
0.15650000 0.15649500 9265.58593055 0 78.62860070 0 2606.93038669 0 -10.26041084 0 -229.46910102 0 26331
0.15750000 0.15749700 9196.75396228 0 -34.76624413 0 2884.98669419 0 297.73874560 0 -117.90607828 0 27345
0.15850000 0.15849900 9267.12760692 0 20.78124299 0 2472.97090995 0 214.32296247 0 60.06570802 0 26980
0.15950000 0.15949700 9200.14786855 0 3.11230078 0 2680.16556014 0 269.43955658 0 163.69830312 0 27777
0.16050000 0.16050000 9321.70738710 0 1.97050641 0 2248.86218442 0 321.02804095 0 612.86183329 0 28224
0.16150000 0.16150500 9151.47969634 0 -15.87704843 0 1963.88497003 0 106.20065084 0 3.83763178 0 28075
0.16250000 0.16249700 9252.09903506 0 138.04991018 0 2161.30827571 0 -149.77774183 0 337.42526652 0 28590
0.16350000 0.16349900 9028.63359894 0 102.67742122 0 2142.99670955 0 -96.19284201 0 450.52885652 0 29163
0.16450000 0.16449100 8968.73004423 0 167.26966854 0 2179.20946758 0 -72.05440462 0 -238.90770962 0 28996
0.16550000 0.16550500 8736.23637380 0 205.79161378 0 2315.70882843 0 -322.32349275 0 206.01011036 0 30777
0.16650000 0.16650700 8507.42498076 0 83.07994168 0 2545.59606757 0 170.47502445 0 -39.94627675 0 29211
0.16750000 0.16749900 8558.45557791 0 -115.69116625 0 2120.67013009 0 685.78756234 0 304.39568200 0 30922
0.16850000 0.16850800 8607.45648603 0 -80.12935056 0 1749.96905449 0 407.98857062 0 520.89917379 0 30867
0.16950000 0.16949900 8637.26962343 0 69.99598938 0 1367.00111507 0 142.22574583 0 386.50935861 0 30852
0.17050000 0.17049200 8570.58934738 0 120.00120538 0 1657.41301596 0 -122.18617118 0 502.12732296 0 31257
0.17150000 0.17149500 8359.56823424 0 282.72348317 0 1728.66286515 0 -494.06291366 0 302.62219961 0 32608
0.17250000 0.17250900 8091.23890647 0 144.72791986 0 2126.77028841 0 -323.71543797 0 298.37870766 0 32361
0.17350000 0.17350400 8088.28864808 0 69.95816840 0 2251.57952767 0 -105.16173842 0 -265.70293233 0 32508
0.17450000 0.17449800 7969.09155448 0 8.35630742 0 2406.33499869 0 -41.16575386 0 -184.96900063 0 32791
0.17550000 0.17549800 7991.52904591 0 -18.63520729 0 1970.50641461 0 316.45181309 0 -240.92963483 0 33633
0.17650000 0.17650100 8142.08095328 0 -62.97515080 0 2243.07257961 0 173.14578468 0 -208.15292961 0 33984
0.17750000 0.17750300 8208.97196208 0 17.21675411 0 1926.66291307 0 254.02279282 0 -181.66936953 0 34069
