### header ###
fiducial parameters:
Omega_m = 0.31
Omega_nu = 0
Omega_de = 0.69
Omega_k = 0
H_0 = 100
w_de = -1
zeff = 0
beta = 0
fgrowth = 0
b_1 = 2
gamma = 0.55
Lx = 3500 Ly = 3500 Lz = 3500
nx = 700 ny = 700 nz = 700
xoffset = 1379.75464 yoffset = 22.6059522 zoffset = 368.141391
bins = 400 dk = 0.001
kx_ny = 0.628318531 ky_ny = 0.628318531 kz_ny = 0.628318531
############################
A(data) = 3.30392443 (not used)
A(ran) = 3.31110276 (used)
Ngal = 185747
weighted Ngal = 0
Nran = 9399747
weighted Nran = 0
SN(data) = 6658.81922
SN(ran) = 131.70038
SN(data+ran) = 6790.5196
############################
13 columns: k_central k_mean P_0(k) sigma^{lin}_{P_0(k)} P^img_1(k) sigma^{lin}_{P_1(k)} P_2(k) sigma^{lin}_{P_2(k)} P^img_3(k) sigma^{lin}_{P_3(k)} P_4(k) sigma^{lin}_{P_4(k)} N_modes
### header ###
0.00050000 0 0 0 0 0 0 0 0 0 0 0 0
0.00150000 0.00179520 22290.20033078 0 -22416.19632811 0 -41678.94353991 0 45727.56316192 0 22382.81182530 0 3
0.00250000 0.00253879 32740.99156721 0 -11491.03459821 0 -4386.55730183 0 -41820.57812494 0 -9312.09131935 0 6
0.00350000 0.00331552 41596.86868249 0 -2074.14255889 0 -23323.12350257 0 -18911.26718051 0 8779.40331232 0 7
0.00450000 0.00420575 37569.65507059 0 2418.61295371 0 -11615.14509206 0 -14565.62530422 0 1111.11611027 0 24
0.00550000 0.00557378 34826.35841742 0 -1163.11164157 0 -9847.70740237 0 -1683.21114006 0 12769.73869437 0 45
0.00650000 0.00659388 36735.15341221 0 -8576.68950570 0 -11067.04032127 0 11128.01972209 0 -17042.62231867 0 40
0.00750000 0.00754703 45080.94637984 0 -4546.10416993 0 -8967.08854708 0 1815.25183973 0 5605.05838095 0 57
0.00850000 0.00846663 52652.13015260 0 -7871.06755585 0 -25072.75982115 0 3500.64794559 0 10204.86612650 0 75
0.00950000 0.00948925 60627.92079004 0 -10650.85424698 0 -21220.78712103 0 7300.63620561 0 28849.53420596 0 112
0.01050000 0.01054430 78897.22949118 0 -14511.83299902 0 -43370.90563436 0 11950.32106383 0 17116.82242625 0 105
0.01150000 0.01145670 90939.16384181 0 -6322.05989887 0 -43585.07664743 0 2849.90523824 0 22081.02035634 0 144
0.01250000 0.01249090 96069.84063808 0 -3811.33455450 0 -49412.61334797 0 3799.89953045 0 45113.22176296 0 169
0.01350000 0.01339930 107002.65529389 0 -6961.43412934 0 -50908.92672825 0 16594.42704999 0 80895.64135731 0 180
0.01450000 0.01448870 103606.64170031 0 -472.92863787 0 -46082.81420017 0 626.99201820 0 52580.37010835 0 267
0.01550000 0.01550050 100661.48526268 0 5756.53085767 0 -52806.29779018 0 -9421.93853392 0 29295.51123525 0 238
0.01650000 0.01653350 85203.79498791 0 11768.97999373 0 -12349.04959412 0 -27625.62062272 0 44927.00056620 0 315
0.01750000 0.01747870 73831.32528508 0 11714.07856883 0 -8457.22622337 0 -26107.34667248 0 26205.83650138 0 297
0.01850000 0.01844180 66166.19907416 0 3542.56157885 0 23389.00521244 0 -3192.42358239 0 14979.43786236 0 388
0.01950000 0.01947590 67577.77570976 0 -1160.00610642 0 14561.41064938 0 -4584.08042828 0 3123.69143491 0 399
0.02050000 0.02045430 63693.97127441 0 1876.08705499 0 19416.36028953 0 -846.65650112 0 -4889.88691053 0 462
0.02150000 0.02154770 65470.44828960 0 2044.04105038 0 22346.65452325 0 -332.32109768 0 -2517.16932979 0 571
0.02250000 0.02255340 64301.21430732 0 2.57596376 0 15723.10261774 0 1167.69230591 0 -9670.00424487 0 510
0.02350000 0.02348930 62995.89133848 0 -520.13277208 0 20485.32985140 0 5291.65442878 0 -7361.40487369 0 555
0.02450000 0.02439640 62224.27676680 0 2833.57899633 0 20401.81313838 0 -6670.06838551 0 -15594.66655708 0 592
0.02550000 0.02547300 59356.86961977 0 3074.49088524 0 24199.99353330 0 -4748.38541987 0 -7543.31159483 0 837
0.02650000 0.02652900 56804.67429002 0 44.91413478 0 23678.81818870 0 3817.87836070 0 -17098.41103932 0 723
0.02750000 0.02749970 57939.85829767 0 946.13899215 0 26136.84925636 0 -1701.45615904 0 -11747.46307165 0 826
0.02850000 0.02848090 56580.96484757 0 945.56890462 0 23821.89462933 0 -2023.01214096 0 -13787.46692634 0 831
0.02950000 0.02946900 57247.32396022 0 -217.10907114 0 31362.68852246 0 6157.22252982 0 -1080.95914577 0 996
0.03050000 0.03053250 57381.52744329 0 -905.39326192 0 23121.48554205 0 5891.11144144 0 -6724.91435442 0 1041
0.03150000 0.03150510 57086.16886856 0 711.49252039 0 26632.40393601 0 34.40145466 0 -4020.86944725 0 1036
0.03250000 0.03246190 59230.09723865 0 1237.63339386 0 26063.31462060 0 2304.05198043 0 5303.47764473 0 1059
0.03350000 0.03345080 55086.86970668 0 274.13113289 0 24450.43276039 0 3803.11597756 0 417.03787821 0 1302
0.03450000 0.03451200 57539.68791178 0 -1431.37442215 0 17737.04215960 0 5954.28689926 0 3415.58955619 0 1339
0.03550000 0.03553350 55059.36353824 0 1507.70403955 0 18134.21792231 0 -633.54026088 0 -5132.15192547 0 1365
0.03650000 0.03647120 54931.48203743 0 2041.72299021 0 13306.66353863 0 268.46464037 0 3129.44776612 0 1308
0.03750000 0.03744890 50987.67422658 0 1792.32633564 0 19221.48795915 0 -1355.42190545 0 -4130.88302977 0 1579
0.03850000 0.03847530 49175.81629312 0 2147.32227636 0 15652.34078121 0 -1870.97401320 0 -4377.66216187 0 1662
0.03950000 0.03950240 45381.18508123 0 3102.34088078 0 14884.16448058 0 -1542.71894832 0 -7425.29016811 0 1683
0.04050000 0.04050350 42078.89210186 0 2307.91171697 0 21510.71100926 0 655.47864844 0 -4817.66103601 0 1822
0.04150000 0.04152450 39313.74579070 0 1060.35059272 0 18317.44449590 0 1543.55078809 0 -3075.13417467 0 1887
0.04250000 0.04250150 39473.90267463 0 576.60027399 0 19597.14679978 0 3737.62245958 0 -1314.53975350 0 1920
0.04350000 0.04349210 38792.79227004 0 -1085.51319124 0 14120.64648266 0 4686.61854406 0 2899.85998929 0 2005
0.04450000 0.04448520 40010.49478299 0 -868.10576690 0 15567.16038865 0 4925.47856154 0 3965.12509138 0 2151
0.04550000 0.04548030 40252.94834828 0 -518.20068558 0 11491.47824608 0 1126.21122932 0 7136.75267950 0 2274
0.04650000 0.04648670 41888.12351435 0 800.22985981 0 15095.00813456 0 -2500.22198086 0 4985.87012892 0 2311
0.04750000 0.04749250 39249.30593643 0 1772.35108993 0 15134.82553161 0 -3220.79486419 0 2805.90645995 0 2568
0.04850000 0.04851840 38005.87184657 0 1198.98057250 0 17982.60126003 0 -723.38339264 0 5482.09028039 0 2493
0.04950000 0.04949480 38399.05477838 0 170.36300336 0 19396.06339911 0 1064.21809310 0 3568.98080998 0 2644
0.05050000 0.05050630 37387.87035261 0 164.25286297 0 17142.22126726 0 4401.06458743 0 6343.94283044 0 2829
0.05150000 0.05149060 36874.01519800 0 127.48998156 0 16890.22927260 0 9.35549117 0 3233.39446392 0 2784
0.05250000 0.05249300 37098.94467211 0 821.03472705 0 16192.59298456 0 1007.41563705 0 7058.32682588 0 3055
0.05350000 0.05348950 35068.59015877 0 1322.66960086 0 18006.22550953 0 -384.05154937 0 3247.89065833 0 3009
0.05450000 0.05448610 34602.87079891 0 712.79351779 0 17071.45943073 0 -471.38363414 0 7134.82281123 0 3336
0.05550000 0.05550870 32802.76953422 0 796.12833518 0 16567.36452944 0 2159.94405848 0 234.81505795 0 3349
0.05650000 0.05647670 32213.38332839 0 409.98054959 0 16886.90191352 0 -956.26636408 0 4587.61852010 0 3324
0.05750000 0.05747970 31852.47577969 0 186.43525686 0 15394.91410004 0 2907.79019511 0 1231.67742110 0 3639
0.05850000 0.05849280 32163.58385409 0 -314.77149675 0 13374.98531183 0 2221.54456634 0 799.84832264 0 3846
0.05950000 0.05951020 32160.58923091 0 -15.99794248 0 10842.33267110 0 362.77752450 0 -0.07450035 0 3787
0.06050000 0.06049470 31163.71244921 0 775.51645477 0 10671.41732613 0 707.15697150 0 -48.64221881 0 3930
0.06150000 0.06148310 30325.88343174 0 536.33811994 0 11130.90343330 0 -253.50261569 0 -514.23891003 0 4083
0.06250000 0.06249100 29562.03269791 0 494.72505811 0 10587.40150924 0 -282.72126493 0 -1410.98880216 0 4303
0.06350000 0.06350600 29069.13990554 0 689.17592301 0 10131.45349390 0 971.59328914 0 -3374.61867466 0 4470
0.06450000 0.06451750 28578.79808845 0 163.86134371 0 10539.26571449 0 -621.18134012 0 -938.47386594 0 4479
0.06550000 0.06550280 27892.91846918 0 -400.26466107 0 10199.37598401 0 981.77500794 0 -2220.70163537 0 4636
0.06650000 0.06648880 29299.50406615 0 278.36686101 0 8747.82667461 0 19.47991285 0 -3647.70612592 0 4653
0.06750000 0.06749660 27886.04192707 0 550.55703443 0 10737.88686944 0 -1017.82472538 0 -3603.36352052 0 5220
0.06850000 0.06852730 27255.06373268 0 774.76336250 0 9190.18797369 0 293.84018987 0 -2285.28567520 0 5029
0.06950000 0.06949320 27117.31106659 0 362.00003159 0 12944.20322236 0 -537.67128182 0 -3457.91356374 0 5040
0.07050000 0.07048030 26395.93961707 0 -6.84910249 0 8743.98912046 0 783.53206281 0 -2922.34184551 0 5475
0.07150000 0.07148790 27156.68481575 0 -314.83471657 0 10838.02928668 0 1515.91152529 0 -2473.51437860 0 5509
0.07250000 0.07249820 26379.74646953 0 345.14141223 0 7949.81505418 0 141.17430036 0 -3340.60197362 0 5916
0.07350000 0.07351270 26489.66023129 0 294.08086884 0 9108.21293705 0 789.69322271 0 -1408.99238671 0 5721
0.07450000 0.07449140 26145.83312589 0 -282.02584688 0 6975.49776707 0 1781.77860734 0 -2218.43903119 0 6028
0.07550000 0.07549160 26215.15310682 0 -79.44202909 0 7379.76080464 0 1291.37024308 0 1013.63890765 0 6183
0.07650000 0.07648840 26514.50451245 0 -36.52098240 0 5414.52270858 0 785.34547351 0 -2541.31486555 0 6330
0.07750000 0.07749960 26320.85221374 0 257.52539282 0 6287.25572284 0 767.53190209 0 1047.95174365 0 6583
0.07850000 0.07848650 25394.18270871 0 1197.69399365 0 6600.89259014 0 -2326.54492784 0 -510.50006753 0 6549
0.07950000 0.07947320 24001.79384383 0 1290.25003218 0 8326.63847050 0 -1810.84863454 0 623.23321156 0 6828
0.08050000 0.08048110 22693.36533985 0 885.95372103 0 10344.07173940 0 -1077.44434546 0 -1482.91521437 0 7147
0.08150000 0.08149960 22283.65652458 0 477.26196852 0 11922.59307146 0 -804.35467596 0 256.82997477 0 7386
0.08250000 0.08250610 21764.69941938 0 -202.95448560 0 11783.50946173 0 1093.09846083 0 -1928.17131586 0 7227
0.08350000 0.08350160 22426.06749340 0 -286.74293294 0 10815.55852167 0 1421.66962482 0 -121.49740785 0 7798
0.08450000 0.08449610 23196.24020948 0 -303.24108840 0 9261.01635740 0 874.30130951 0 -746.71372542 0 7371
0.08550000 0.08548940 22536.42490303 0 188.36290689 0 9897.15195837 0 1012.30241842 0 -328.60443758 0 8256
0.08650000 0.08650700 22523.33729063 0 524.61139741 0 9058.52437472 0 -809.44442624 0 -195.98699567 0 8037
0.08750000 0.08749060 21462.24247860 0 710.27359785 0 9755.09590785 0 -222.77556366 0 -494.98237388 0 8155
0.08850000 0.08849210 20679.75853390 0 490.47380232 0 9262.48039540 0 861.29022637 0 186.58498802 0 8718
0.08950000 0.08949900 20344.58256212 0 186.80903020 0 9261.08290458 0 297.74207296 0 520.80933510 0 8571
0.09050000 0.09049190 20355.45193513 0 -242.21621367 0 7855.87261603 0 1980.21121194 0 293.08044288 0 8932
0.09150000 0.09150830 19979.79309450 0 -135.99692962 0 6861.92391032 0 1764.57616087 0 1531.92721369 0 9285
0.09250000 0.09250820 19645.61533045 0 646.13431501 0 6583.76778206 0 -368.12902703 0 565.37709179 0 9204
0.09350000 0.09350330 19358.57515343 0 828.13309310 0 7193.08486880 0 -1113.80017993 0 1650.37010590 0 9349
0.09450000 0.09448040 18141.31628836 0 384.65823784 0 7011.89907545 0 -181.49967422 0 869.41674638 0 9564
0.09550000 0.09549270 17806.02940462 0 315.80408719 0 8287.05398859 0 211.58121858 0 2407.63266873 0 10155
0.09650000 0.09649430 17935.90732088 0 -61.36093800 0 7315.94205740 0 864.28152219 0 1800.46727420 0 9913
0.09750000 0.09749140 17692.78828377 0 153.23264968 0 8504.70763750 0 460.13161483 0 3463.33715905 0 10476
0.09850000 0.09850240 17654.08000642 0 335.61518317 0 7521.91667592 0 487.67438421 0 2571.77129237 0 10575
0.09950000 0.09950330 17030.75473793 0 243.87102026 0 8011.20482929 0 328.68983980 0 4331.06804349 0 10882
0.10050000 0.10051200 17064.58288863 0 -68.36081421 0 7450.70010032 0 431.82577110 0 4079.96334459 0 10875
0.10150000 0.10150300 17250.02770160 0 -330.26368065 0 6893.37854487 0 1526.92508386 0 5002.65110990 0 11118
0.10250000 0.10250800 17403.52986736 0 -51.45139717 0 6626.28033996 0 405.92893535 0 5025.36588125 0 11575
0.10350000 0.10349800 17803.03478144 0 32.34170848 0 5092.78926750 0 665.43188858 0 3327.53654362 0 11364
0.10450000 0.10450100 17247.36581433 0 244.25255743 0 5445.21205053 0 -146.28068743 0 3775.58762674 0 12093
0.10550000 0.10551000 16757.13490922 0 441.06030168 0 5327.13516782 0 -624.09277932 0 2451.56489984 0 12067
0.10650000 0.10649700 16207.56610044 0 572.55753270 0 5448.33976807 0 -420.65360842 0 2531.96498652 0 12054
0.10750000 0.10749900 15590.34099027 0 341.43140685 0 5546.34158431 0 -98.41207961 0 1196.14122608 0 12807
0.10850000 0.10850100 15039.21941391 0 261.36072873 0 5852.86899436 0 -118.74235453 0 532.02475345 0 12736
0.10950000 0.10950300 14776.57987018 0 222.54375765 0 4638.84875881 0 341.22732883 0 606.46775825 0 12933
0.11050000 0.11050200 14326.49909802 0 215.96556874 0 5814.56000011 0 350.84450570 0 504.28234253 0 13428
0.11150000 0.11150900 14341.13947799 0 40.24019347 0 4408.37368622 0 -28.79174907 0 360.28422343 0 13453
0.11250000 0.11250000 14277.80874342 0 -17.78495613 0 5048.63521245 0 645.50100767 0 -381.43180865 0 13668
0.11350000 0.11349100 14210.92882582 0 29.65176048 0 4652.75711978 0 -68.03129475 0 249.45654704 0 13791
0.11450000 0.11448600 14200.05945281 0 52.35765887 0 4241.79499926 0 -323.48474107 0 -450.92259401 0 14205
0.11550000 0.11549300 14112.99355677 0 148.60762055 0 4394.79806116 0 474.69324731 0 -31.51530339 0 14776
0.11650000 0.11649800 13884.73672357 0 164.24177177 0 4159.70905064 0 -231.29471204 0 -397.26671053 0 14553
0.11750000 0.11747300 13881.96392433 0 19.83449841 0 4147.27581886 0 861.05509300 0 929.13285987 0 14568
0.11850000 0.11849100 13735.78194856 0 -78.81770561 0 3410.08832250 0 834.48834895 0 485.87206471 0 16015
0.11950000 0.11950300 13940.85818013 0 -210.23807463 0 3206.13230182 0 460.82148728 0 942.85710697 0 15270
0.12050000 0.12050700 13910.24647655 0 197.42774216 0 2655.66510609 0 -160.82901047 0 50.76829035 0 15999
0.12150000 0.12150000 13653.70709114 0 475.53506916 0 3388.94850112 0 -1073.18310759 0 116.19248835 0 15670
0.12250000 0.12250700 13054.44972003 0 358.58061558 0 3718.82288075 0 -554.83047262 0 -385.47565906 0 16887
0.12350000 0.12352200 13055.33701578 0 89.99375021 0 4538.05196094 0 -60.73117983 0 -34.13082946 0 16407
0.12450000 0.12449800 12663.48502760 0 102.48742902 0 4332.55426388 0 -86.40064605 0 -260.88491638 0 16306
0.12550000 0.12549900 12748.66542016 0 141.85640897 0 4313.37758436 0 524.67683547 0 -705.86706530 0 17523
0.12650000 0.12650100 12617.56747224 0 150.06056735 0 4216.90635331 0 73.02876627 0 63.86521936 0 17154
0.12750000 0.12750600 12394.19076570 0 66.94701934 0 4273.06108345 0 343.53097044 0 408.60524117 0 18007
0.12850000 0.12850300 12472.49461615 0 61.12613736 0 4521.69244544 0 333.48900072 0 1097.30978831 0 17496
0.12950000 0.12949900 12032.50683322 0 163.14152503 0 3567.45022480 0 -32.89050090 0 353.52192065 0 18405
0.13050000 0.13049000 12147.74436951 0 79.85395614 0 4353.28371098 0 2.80932255 0 337.74025651 0 18100
0.13150000 0.13148800 11705.31652325 0 205.07844981 0 3904.30096732 0 -244.04626117 0 674.02867534 0 19059
0.13250000 0.13249300 11780.40392659 0 188.49378302 0 4070.10327050 0 14.18697184 0 -209.68795126 0 18957
0.13350000 0.13349100 11633.77830293 0 -111.05282768 0 3600.45762692 0 370.88629859 0 -518.67982528 0 19468
0.13450000 0.13450700 11556.36174823 0 8.94228863 0 3727.93984465 0 231.78050646 0 -529.46601432 0 19953
0.13550000 0.13551000 11382.00813220 0 253.46934210 0 3292.55490844 0 -170.77448677 0 -800.92527786 0 19956
0.13650000 0.13649900 11325.66485171 0 156.34594866 0 3252.53786985 0 -153.77390009 0 -797.05445013 0 19723
0.13750000 0.13749600 11086.20590960 0 52.27270031 0 3489.80075497 0 72.98650881 0 -1046.72283903 0 20946
0.13850000 0.13851100 11127.35425027 0 -123.36738366 0 2948.23979038 0 470.68045225 0 -849.09545533 0 20955
0.13950000 0.13949800 11148.53843644 0 -29.00813832 0 2839.03586523 0 319.67380580 0 -1293.06719621 0 20506
0.14050000 0.14048300 11279.85820831 0 44.25919960 0 2533.81721641 0 39.67066051 0 -974.36387014 0 21447
0.14150000 0.14148400 11039.64506481 0 19.70218043 0 2376.79914122 0 226.73623009 0 -1324.96547863 0 21771
0.14250000 0.14249400 11101.51176138 0 61.14499239 0 2066.70036574 0 1.45300226 0 -912.00028794 0 22470
0.14350000 0.14350900 11005.71709334 0 181.16361095 0 2206.20544096 0 233.51516967 0 -1000.44371064 0 22519
0.14450000 0.14449900 10753.78055466 0 140.70847008 0 1962.09928732 0 14.30365123 0 -1113.12361692 0 22218
0.14550000 0.14550500 10388.80253669 0 196.01916014 0 2369.25712729 0 -32.00375971 0 -585.86253256 0 23559
0.14650000 0.14650700 10488.93386274 0 77.10988310 0 2021.83647409 0 -56.16493405 0 -1529.30969121 0 23044
0.14750000 0.14750500 10246.89067174 0 112.26287727 0 1959.61485921 0 -1.43770750 0 -699.67374092 0 23649
0.14850000 0.14849900 10179.61147105 0 129.68714768 0 2316.26338827 0 -254.73706591 0 -791.93142626 0 23640
0.14950000 0.14949500 10152.68204486 0 28.25116413 0 2381.26889359 0 210.84919958 0 -537.94856174 0 24457
0.15050000 0.15050000 10176.87194540 0 -77.37962101 0 2283.08961820 0 459.64803865 0 -821.76563693 0 24591
0.15150000 0.15149900 10242.86456724 0 69.90958896 0 2147.72155945 0 -20.41645352 0 -104.23784172 0 25020
0.15250000 0.15250500 10008.67394368 0 188.54147516 0 2399.09244708 0 11.80325179 0 -167.74326264 0 25297
0.15350000 0.15350100 10027.76189363 0 161.87269210 0 2556.47653178 0 65.66398968 0 545.06356458 0 25452
0.15450000 0.15450400 9734.63264949 0 107.89948948 0 2507.53107965 0 -61.55436847 0 427.94939777 0 26061
0.15550000 0.15549900 9539.42758320 0 168.57842978 0 2752.93490332 0 281.19511623 0 542.16876218 0 26128
0.15650000 0.15649500 9267.80416993 0 243.75789005 0 2815.93290199 0 -267.40986754 0 949.74141292 0 26331
0.15750000 0.15749700 9121.28945825 0 56.45141967 0 2876.31337817 0 238.28216612 0 689.56300578 0 27345
0.15850000 0.15849900 9055.80703147 0 100.03971276 0 2771.20210470 0 235.58922350 0 969.48817996 0 26980
0.15950000 0.15949700 8894.38575108 0 24.63399207 0 2159.48931941 0 144.11235843 0 684.05955386 0 27777
0.16050000 0.16050000 8941.34587896 0 4.17773225 0 2404.93750787 0 200.44565685 0 1052.95720084 0 28224
0.16150000 0.16150500 8762.91070246 0 161.79505372 0 2014.84902001 0 -65.58468762 0 184.35676655 0 28075
0.16250000 0.16249700 8682.65480134 0 131.42070176 0 2214.67911542 0 -44.79756630 0 361.41219816 0 28590
0.16350000 0.16349900 8649.59194324 0 62.12456691 0 2143.52908700 0 -242.42805554 0 366.03611816 0 29163
0.16450000 0.16449100 8252.13890060 0 210.01625069 0 2378.01917288 0 -244.21928384 0 -135.15399865 0 28996
0.16550000 0.16550500 8364.28199294 0 -19.73977959 0 2259.62064546 0 92.75091086 0 121.23787384 0 30777
0.16650000 0.16650700 8326.68283529 0 -77.57515881 0 2234.28835163 0 183.52270854 0 -423.57613881 0 29211
0.16750000 0.16749900 8475.67088389 0 98.08732936 0 2174.69535043 0 -108.69572651 0 -525.47761989 0 30922
0.16850000 0.16850800 8254.74533188 0 112.63332325 0 2410.21691762 0 -316.59599865 0 -575.69523232 0 30867
0.16950000 0.16949900 8209.95907860 0 161.41018919 0 2635.87841073 0 -318.99835191 0 -419.57998055 0 30852
0.17050000 0.17049200 8091.49400400 0 159.00561769 0 2832.41442065 0 -114.14505339 0 -824.53621793 0 31257
0.17150000 0.17149500 7996.73081727 0 27.60654376 0 2708.68102750 0 194.64606996 0 -864.26044892 0 32608
0.17250000 0.17250900 7975.24716879 0 -17.19512628 0 2950.90167765 0 272.11253505 0 -353.21469449 0 32361
0.17350000 0.17350400 8002.32078054 0 -26.49942048 0 2426.27697080 0 349.26844662 0 -345.52738589 0 32508
0.17450000 0.17449800 7987.96877169 0 23.23095566 0 2483.72937099 0 239.63196478 0 -200.26930682 0 32791
0.17550000 0.17549800 7970.59995726 0 60.66640724 0 2012.84151336 0 156.91159971 0 -289.22625194 0 33633
0.17650000 0.17650100 7810.77580924 0 64.54865891 0 2275.95797856 0 74.21818623 0 -126.81785503 0 33984
0.17750000 0.17750300 7786.57481750 0 92.08865549 0 1838.56553571 0 95.38983935 0 -223.49760058 0 34069
0.17850000 0.17849800 7597.83591903 0 146.77091834 0 1834.00705377 0 -77.54776356 0 -109.58790239 0 34536
