### header ###
fiducial parameters:
Omega_m = 0.31
Omega_nu = 0
Omega_de = 0.69
Omega_k = 0
H_0 = 100
w_de = -1
zeff = 0
beta = 0
fgrowth = 0
b_1 = 2
gamma = 0.55
Lx = 3500 Ly = 3500 Lz = 3500
nx = 700 ny = 700 nz = 700
xoffset = 1379.75464 yoffset = 22.6059522 zoffset = 368.141391
bins = 400 dk = 0.001
kx_ny = 0.628318531 ky_ny = 0.628318531 kz_ny = 0.628318531
############################
A(data) = 3.36587141 (not used)
A(ran) = 3.36825009 (used)
Ngal = 188622
weighted Ngal = 0
Nran = 9399747
weighted Nran = 0
SN(data) = 6657.37957
SN(ran) = 133.973437
SN(data+ran) = 6791.353
############################
13 columns: k_central k_mean P_0(k) sigma^{lin}_{P_0(k)} P^img_1(k) sigma^{lin}_{P_1(k)} P_2(k) sigma^{lin}_{P_2(k)} P^img_3(k) sigma^{lin}_{P_3(k)} P_4(k) sigma^{lin}_{P_4(k)} N_modes
### header ###
0.00050000 0 0 0 0 0 0 0 0 0 0 0 0
0.00150000 0.00179520 49278.40986489 0 -21361.20167440 0 -32715.25999029 0 47200.03046876 0 -135879.36293237 0 3
0.00250000 0.00253879 92829.88018557 0 -18797.80423573 0 -6096.88641842 0 -24473.05880216 0 160735.84441303 0 6
0.00350000 0.00331552 95818.95776312 0 -17656.74189369 0 -55218.52221445 0 24264.10065166 0 44523.05917334 0 7
0.00450000 0.00420575 88967.92540820 0 -6409.79126673 0 -20680.31309375 0 -29214.65640950 0 27902.01325067 0 24
0.00550000 0.00557378 137679.46419707 0 -31268.08061249 0 -95661.90641433 0 27299.09578457 0 9890.06468352 0 45
0.00650000 0.00659388 106847.48944858 0 -12500.88808034 0 -21955.13527098 0 -21492.74327020 0 -73260.01773028 0 40
0.00750000 0.00754703 156343.73042154 0 4840.33144257 0 -88274.17103909 0 -73473.07962365 0 15653.44990090 0 57
0.00850000 0.00846663 119977.91386770 0 14828.93031977 0 -43472.05735053 0 -33256.51040137 0 -44956.61406205 0 75
0.00950000 0.00948925 109375.94961687 0 18987.57461551 0 5022.47107885 0 -68223.39428412 0 -9281.93435485 0 112
0.01050000 0.01054430 102684.29776210 0 6136.49308272 0 11413.39621957 0 -10977.75618584 0 -64654.57984209 0 105
0.01150000 0.01145670 92947.11413731 0 4956.86664890 0 47933.60223492 0 -25944.52790128 0 -42624.24625581 0 144
0.01250000 0.01249090 96159.34659746 0 4785.54092964 0 53222.10676377 0 -3310.99956897 0 -46141.37572006 0 169
0.01350000 0.01339930 95565.41300088 0 2711.58692110 0 77228.66982229 0 7199.67303979 0 -13300.67429228 0 180
0.01450000 0.01448870 100997.65944218 0 -775.53530981 0 78717.66301259 0 13120.66416581 0 -12228.59919526 0 267
0.01550000 0.01550050 100229.92678942 0 2270.56765685 0 72497.49794009 0 9882.42284882 0 -18299.92040472 0 238
0.01650000 0.01653350 97217.66861026 0 5247.26745860 0 87787.71114094 0 8022.57330616 0 9534.83582766 0 315
0.01750000 0.01747870 96367.41745220 0 8205.62242060 0 81344.61300978 0 9585.22313540 0 -4359.53914606 0 297
0.01850000 0.01844180 81685.11275609 0 7537.07834215 0 79865.49098476 0 -74.38211413 0 21583.35834927 0 388
0.01950000 0.01947590 76482.78682752 0 6268.93306548 0 80305.92241558 0 21688.83563225 0 10432.18020795 0 399
0.02050000 0.02045430 74502.12087651 0 -2068.16440374 0 67100.18876917 0 30604.16156317 0 26869.42281479 0 462
0.02150000 0.02154770 71029.57802399 0 -5002.68438350 0 38820.63117438 0 28136.03750628 0 24367.80334312 0 571
0.02250000 0.02255340 82400.38404728 0 -2841.33174300 0 14096.91132119 0 19992.32614705 0 22602.86117275 0 510
0.02350000 0.02348930 73964.53056043 0 2036.18848294 0 15081.69869822 0 -2060.76657537 0 25210.51248725 0 555
0.02450000 0.02439640 71505.94493292 0 5930.01936034 0 1479.35494015 0 -5285.45444969 0 5116.82389129 0 592
0.02550000 0.02547300 60271.44972012 0 6466.57819510 0 14174.99334771 0 -10009.61669542 0 10533.64247764 0 837
0.02650000 0.02652900 53780.65944208 0 5110.45754424 0 17259.12248310 0 113.07697113 0 6417.59946938 0 723
0.02750000 0.02749970 52346.23494077 0 -20.80886007 0 16995.81746755 0 7859.97635890 0 6905.30158158 0 826
0.02850000 0.02848090 50957.72799482 0 -1370.86085160 0 12702.30421692 0 8572.80758677 0 -642.19804922 0 831
0.02950000 0.02946900 52926.08271722 0 556.65608363 0 14991.52726703 0 827.88021381 0 9117.16353298 0 996
0.03050000 0.03053250 50354.58870478 0 1453.11316817 0 13333.28241131 0 -3318.44176212 0 10372.80903069 0 1041
0.03150000 0.03150510 48921.82788301 0 1329.30213664 0 17106.28578915 0 113.20341077 0 9422.22690504 0 1036
0.03250000 0.03246190 48581.43904867 0 1189.40886953 0 15243.18652579 0 -164.61332687 0 10801.52815753 0 1059
0.03350000 0.03345080 50085.51626681 0 -1023.46127167 0 19833.94385463 0 5920.35892779 0 11291.72578905 0 1302
0.03450000 0.03451200 49994.67936381 0 -1592.64042578 0 13653.26344326 0 5040.26135876 0 10161.00044257 0 1339
0.03550000 0.03553350 51004.42193397 0 632.42448647 0 13067.20459652 0 1205.81274982 0 6180.05930434 0 1365
0.03650000 0.03647120 49898.85142218 0 1555.25200087 0 11161.73696081 0 -1892.19147296 0 10117.24567061 0 1308
0.03750000 0.03744890 46954.69319227 0 1977.40513911 0 19323.52697107 0 -2809.56655494 0 7846.83329052 0 1579
0.03850000 0.03847530 45250.86351708 0 2636.16678185 0 20252.30380352 0 -3389.85797927 0 8732.75373796 0 1662
0.03950000 0.03950240 44020.18430371 0 1138.38936357 0 19128.43281675 0 3058.30882890 0 7226.92411069 0 1683
0.04050000 0.04050350 43076.32344342 0 -467.22998088 0 18544.37038546 0 5866.73299055 0 7057.40625653 0 1822
0.04150000 0.04152450 44265.29975626 0 -1475.04046454 0 16596.97802529 0 5757.34051505 0 14225.45829382 0 1887
0.04250000 0.04250150 44480.69080100 0 -426.99000923 0 13977.45913006 0 3394.39427882 0 7736.49806328 0 1920
0.04350000 0.04349210 44745.21584821 0 537.56591545 0 11145.21107736 0 -168.79248988 0 16382.58518828 0 2005
0.04450000 0.04448520 44196.64524716 0 122.90155338 0 12959.50907415 0 1078.53793748 0 9867.40536815 0 2151
0.04550000 0.04548030 44442.09343562 0 1292.14662686 0 12755.09831439 0 -962.83568003 0 11697.77450932 0 2274
0.04650000 0.04648670 42694.23170855 0 1733.43207984 0 17112.38594747 0 -4059.91046050 0 11291.06031723 0 2311
0.04750000 0.04749250 40324.15383268 0 1475.32883566 0 16934.15041252 0 -51.95405022 0 5972.14372635 0 2568
0.04850000 0.04851840 39510.83636047 0 1169.79963333 0 20102.23990881 0 953.26397707 0 8636.51542204 0 2493
0.04950000 0.04949480 37074.43312685 0 726.63865894 0 16001.71348508 0 539.21295819 0 4076.00378727 0 2644
0.05050000 0.05050630 37682.56345553 0 1076.67794375 0 21995.17449196 0 887.69060247 0 8693.89018385 0 2829
0.05150000 0.05149060 35802.49466083 0 1282.64147108 0 18245.01897983 0 174.80502774 0 6275.21068296 0 2784
0.05250000 0.05249300 34664.64876591 0 -391.34179312 0 18101.49889132 0 2204.14247832 0 4645.91385126 0 3055
0.05350000 0.05348950 35667.73661791 0 -366.44427421 0 17932.24722589 0 2423.72599550 0 6829.36015608 0 3009
0.05450000 0.05448610 36301.37669956 0 -363.91769955 0 14497.08170708 0 2177.68997360 0 7165.44560601 0 3336
0.05550000 0.05550870 35109.18393960 0 161.64088608 0 13659.69633749 0 1653.39800266 0 5294.69341675 0 3349
0.05650000 0.05647670 36612.81750987 0 -913.89799174 0 10846.10367806 0 2114.92489007 0 4375.62138163 0 3324
0.05750000 0.05747970 36701.54708545 0 491.81029156 0 12060.23482559 0 -1575.26052016 0 2317.96034141 0 3639
0.05850000 0.05849280 36203.44143051 0 1173.58173149 0 10882.09461216 0 -1989.02871351 0 278.83823688 0 3846
0.05950000 0.05951020 33760.05074282 0 1037.41954303 0 14261.06103602 0 -1014.83897516 0 597.79776959 0 3787
0.06050000 0.06049470 33488.87097743 0 1009.59949373 0 13213.60839623 0 374.92238516 0 -615.14440162 0 3930
0.06150000 0.06148310 32197.30109281 0 296.50207714 0 15297.08974296 0 1947.61418411 0 732.10994640 0 4083
0.06250000 0.06249100 31359.69389928 0 611.03067667 0 13988.55032701 0 1510.99812504 0 842.26105977 0 4303
0.06350000 0.06350600 30949.76326008 0 798.43419503 0 13288.47397563 0 1012.86696035 0 3936.39889129 0 4470
0.06450000 0.06451750 30675.58887152 0 70.40203810 0 14870.18957242 0 1175.60032933 0 4331.22332025 0 4479
0.06550000 0.06550280 29995.92032253 0 -124.24358821 0 13114.56400749 0 731.90586837 0 5306.68300065 0 4636
0.06650000 0.06648880 30207.65127227 0 159.40600990 0 13191.64782628 0 430.97840365 0 4192.82736473 0 4653
0.06750000 0.06749660 30971.50200609 0 -103.08391359 0 12652.17200672 0 -213.56432460 0 3303.90120292 0 5220
0.06850000 0.06852730 30135.11484423 0 477.24533172 0 12973.48398231 0 50.40094991 0 4006.67271515 0 5029
0.06950000 0.06949320 30224.39897966 0 141.30406736 0 13102.69642675 0 -367.45024577 0 2295.62267075 0 5040
0.07050000 0.07048030 29691.02331842 0 112.30613294 0 12863.34839661 0 1364.67196371 0 1724.57021348 0 5475
0.07150000 0.07148790 29555.15615581 0 514.04592320 0 11443.12062739 0 864.49336405 0 1628.57590389 0 5509
0.07250000 0.07249820 28775.00136247 0 286.70633199 0 10617.73593290 0 1343.69851028 0 3200.24287624 0 5916
0.07350000 0.07351270 28547.29908912 0 505.20845747 0 11350.39822090 0 586.71544560 0 1046.20598925 0 5721
0.07450000 0.07449140 27292.77380231 0 865.75886962 0 10324.41813840 0 -308.88761677 0 874.41333060 0 6028
0.07550000 0.07549160 25474.92662249 0 1223.65848571 0 11851.27667508 0 -1473.47660577 0 2623.68918528 0 6183
0.07650000 0.07648840 25084.73831386 0 386.70900016 0 11548.04335052 0 642.91010406 0 433.98744539 0 6330
0.07750000 0.07749960 24834.07726283 0 -512.47540971 0 11251.90839200 0 1730.44854786 0 2265.15515274 0 6583
0.07850000 0.07848650 25137.97605921 0 162.48492617 0 10416.28652273 0 1294.34268386 0 -144.84548655 0 6549
0.07950000 0.07947320 24448.54725691 0 625.57234499 0 9697.64350766 0 -344.60348918 0 2018.62002697 0 6828
0.08050000 0.08048110 24024.64170954 0 765.81720304 0 10944.32731823 0 -992.65214479 0 686.24341054 0 7147
0.08150000 0.08149960 23072.79518745 0 311.88889466 0 11269.98704303 0 -614.70408110 0 1605.86113254 0 7386
0.08250000 0.08250610 22783.75859498 0 273.51668058 0 10683.09635651 0 438.78549719 0 -1815.50693726 0 7227
0.08350000 0.08350160 22900.54889884 0 241.42984781 0 11851.60941099 0 -417.92628309 0 -1292.75664269 0 7798
0.08450000 0.08449610 21901.67570169 0 261.06570289 0 9957.26624583 0 558.67800884 0 -1148.38253202 0 7371
0.08550000 0.08548940 22050.07591685 0 31.59981831 0 10608.76315457 0 1013.25071576 0 -2079.65488378 0 8256
0.08650000 0.08650700 22081.35309225 0 117.73638296 0 8756.23380189 0 342.56492718 0 -1745.89858521 0 8037
0.08750000 0.08749060 21679.40811484 0 416.00085130 0 9155.72762477 0 1176.02179481 0 -1331.39837286 0 8155
0.08850000 0.08849210 21187.06988231 0 -22.34410355 0 8616.75090907 0 652.45407904 0 350.23116251 0 8718
0.08950000 0.08949900 20806.19817911 0 522.95215435 0 7870.36881044 0 -253.11553291 0 -1715.14269607 0 8571
0.09050000 0.09049190 20551.65520915 0 542.57469999 0 9296.79655876 0 -241.70380037 0 -268.69090079 0 8932
0.09150000 0.09150830 19201.74562858 0 707.16917182 0 9822.51929410 0 -692.70070540 0 -187.05525477 0 9285
0.09250000 0.09250820 19240.45390593 0 394.66582485 0 10048.54679671 0 218.33686664 0 14.86874772 0 9204
0.09350000 0.09350330 18390.97913166 0 105.78473096 0 9683.29149881 0 1504.35449807 0 414.92389607 0 9349
0.09450000 0.09448040 18385.65535713 0 12.65461207 0 9382.60914955 0 666.36798561 0 112.60670438 0 9564
0.09550000 0.09549270 18229.26948016 0 407.61146992 0 9286.67029594 0 385.64424525 0 1112.40268912 0 10155
0.09650000 0.09649430 17642.54516160 0 308.47502424 0 8399.29690171 0 258.14206337 0 740.21539313 0 9913
0.09750000 0.09749140 16916.73723331 0 372.67309042 0 8677.86340426 0 430.64344951 0 1049.75517228 0 10476
0.09850000 0.09850240 16815.91825305 0 61.18403341 0 7462.24603634 0 938.13003883 0 728.66723886 0 10575
0.09950000 0.09950330 16532.53817102 0 -257.48879187 0 6078.71903782 0 1576.05908634 0 1206.25639769 0 10882
0.10050000 0.10051200 16733.28883578 0 -117.19735079 0 5157.41767212 0 1371.28231709 0 1103.17370414 0 10875
0.10150000 0.10150300 16843.64624542 0 -111.26356043 0 3608.85366301 0 825.70633920 0 1342.93321769 0 11118
0.10250000 0.10250800 17137.23022864 0 -33.12219601 0 3121.50646911 0 366.76924628 0 1737.00344526 0 11575
0.10350000 0.10349800 16395.34006477 0 310.36607332 0 2646.17104150 0 -537.69457333 0 -442.66852524 0 11364
0.10450000 0.10450100 16147.00816510 0 401.89395790 0 3123.51397576 0 -850.16242848 0 248.60252488 0 12093
0.10550000 0.10551000 15940.04643005 0 161.36138792 0 3485.18681704 0 103.05918022 0 -173.58166872 0 12067
0.10650000 0.10649700 15788.65159170 0 45.14161523 0 3547.25315516 0 201.41391834 0 41.44059372 0 12054
0.10750000 0.10749900 15637.47857730 0 76.41501961 0 3066.43867626 0 -75.27262633 0 -1179.39351869 0 12807
0.10850000 0.10850100 15551.74362489 0 211.27177419 0 4228.89593721 0 -92.15564632 0 -49.35294271 0 12736
0.10950000 0.10950300 15359.53318178 0 299.71297865 0 4056.71619578 0 -541.74064198 0 -20.91733197 0 12933
0.11050000 0.11050200 15133.60549994 0 143.89275273 0 4491.38020418 0 368.18559213 0 147.15689199 0 13428
0.11150000 0.11150900 15146.69311234 0 244.46883577 0 5070.83978874 0 354.66985953 0 871.72593358 0 13453
0.11250000 0.11250000 14546.21570956 0 421.57195952 0 5060.82443790 0 -70.64804085 0 883.26632401 0 13668
0.11350000 0.11349100 14091.47663469 0 398.78731363 0 5457.72292069 0 74.87556148 0 2381.04706965 0 13791
0.11450000 0.11448600 13724.13619176 0 35.66030552 0 4789.85540526 0 520.12722649 0 2165.55620414 0 14205
0.11550000 0.11549300 13847.58121379 0 -212.80901408 0 5188.02937570 0 707.27675643 0 2438.03363957 0 14776
0.11650000 0.11649800 14076.28169487 0 90.19128443 0 4752.66662189 0 133.32949675 0 1810.18316272 0 14553
0.11750000 0.11747300 13950.06387360 0 26.73122650 0 4132.57998291 0 -283.76827392 0 1561.41870637 0 14568
0.11850000 0.11849100 13731.56729372 0 190.51570822 0 4365.10692693 0 -434.33016337 0 944.81248499 0 16015
0.11950000 0.11950300 13749.64594474 0 99.35416588 0 3836.87758107 0 -287.42615067 0 -300.46385269 0 15270
0.12050000 0.12050700 13364.00502685 0 244.81377200 0 4351.95276735 0 -199.41750289 0 -750.91839818 0 15999
0.12150000 0.12150000 13324.52036572 0 128.16987193 0 4514.52753221 0 2.62292389 0 -1167.03792529 0 15670
0.12250000 0.12250700 13043.69125899 0 -52.93750665 0 3917.15566458 0 375.68435039 0 -615.82429199 0 16887
0.12350000 0.12352200 13327.95863677 0 -50.08706903 0 3725.82142603 0 251.67256819 0 -1153.11847312 0 16407
0.12450000 0.12449800 13295.23960577 0 -86.81312767 0 3759.39447919 0 50.05002444 0 -1020.26367959 0 16306
0.12550000 0.12549900 13593.59280368 0 124.48426719 0 3662.47960026 0 58.48465789 0 -678.66812302 0 17523
0.12650000 0.12650100 13292.57771851 0 -27.36076284 0 3626.88794925 0 12.95895451 0 -71.61408410 0 17154
0.12750000 0.12750600 13541.35326605 0 -158.00740996 0 3695.84192068 0 562.00314968 0 -745.23970534 0 18007
0.12850000 0.12850300 13706.61210058 0 29.75002849 0 3203.67005610 0 174.63422331 0 -377.83826084 0 17496
0.12950000 0.12949900 13427.33576143 0 241.66498119 0 3545.54511083 0 -24.30192163 0 201.16436641 0 18405
0.13050000 0.13049000 13224.69959318 0 283.77271040 0 3685.30528358 0 -8.58295603 0 -8.74038448 0 18100
0.13150000 0.13148800 13174.34555904 0 103.70635156 0 3932.90516425 0 223.31459583 0 774.24429448 0 19059
0.13250000 0.13249300 12645.29546461 0 318.92293177 0 3736.21387757 0 -149.73226792 0 102.23466064 0 18957
0.13350000 0.13349100 12521.40679470 0 223.10940869 0 4042.41964292 0 106.55634553 0 973.07950953 0 19468
0.13450000 0.13450700 12128.55659879 0 26.39605053 0 3976.51575065 0 247.44571303 0 206.94953474 0 19953
0.13550000 0.13551000 12145.85886603 0 71.79841980 0 3681.40118225 0 418.94889144 0 1336.41159388 0 19956
0.13650000 0.13649900 12025.85211505 0 25.55001403 0 3419.38274555 0 364.40460309 0 946.35859785 0 19723
0.13750000 0.13749600 12107.15058868 0 47.87359886 0 3046.57434253 0 390.53213574 0 903.58872417 0 20946
0.13850000 0.13851100 11823.54868271 0 129.70711183 0 2979.73878972 0 356.70398505 0 994.34577056 0 20955
0.13950000 0.13949800 11724.17155806 0 84.70191833 0 2759.32343276 0 -260.74516730 0 1317.02418162 0 20506
0.14050000 0.14048300 11633.77830293 0 69.48457429 0 2640.10415677 0 230.02698823 0 1022.91558478 0 21447
0.14150000 0.14148400 11476.17239430 0 214.02239103 0 2472.74908602 0 -354.70202400 0 418.00392146 0 21771
0.14250000 0.14249400 11184.80665047 0 163.39773168 0 2487.67783711 0 -155.64831237 0 73.24182817 0 22470
0.14350000 0.14350900 10892.94180277 0 164.86509704 0 2631.98540060 0 -40.90000878 0 87.14220348 0 22519
0.14450000 0.14449900 10939.82429227 0 -28.70579229 0 2484.62775795 0 76.31286969 0 -220.78802117 0 22218
0.14550000 0.14550500 10868.43025752 0 35.89898807 0 2568.84321637 0 209.88870193 0 -173.44524700 0 23559
0.14650000 0.14650700 10787.32033424 0 281.34817475 0 2524.65588773 0 -379.30895355 0 -727.12999897 0 23044
0.14750000 0.14750500 10638.79811590 0 159.22965987 0 2838.22620785 0 -241.58401545 0 -728.59736432 0 23649
0.14850000 0.14849900 10184.36959454 0 210.57635614 0 3266.45732202 0 -466.92497296 0 -1115.31967392 0 23640
0.14950000 0.14949500 10255.54180536 0 270.00409851 0 3457.93574614 0 -471.46903635 0 -1112.42487151 0 24457
0.15050000 0.15050000 9808.44456518 0 64.81096572 0 3755.90075215 0 -207.53958641 0 -1577.56748913 0 24591
0.15150000 0.15149900 10012.56695381 0 -11.80724462 0 3649.26998469 0 319.54847528 0 -1034.64896203 0 25020
0.15250000 0.15250500 10048.14751362 0 -84.48419813 0 3526.13551617 0 456.65341547 0 -1459.30205607 0 25297
0.15350000 0.15350100 10012.85532493 0 29.31891366 0 3247.48028405 0 451.77550705 0 -1364.42795737 0 25452
0.15450000 0.15450400 9884.91836813 0 180.03341798 0 2940.05448703 0 151.52793271 0 -498.24762227 0 26061
0.15550000 0.15549900 9526.91671304 0 340.58071205 0 3127.86172496 0 -120.40825231 0 -499.28354006 0 26128
0.15650000 0.15649500 9255.23784379 0 152.28435234 0 3315.81314844 0 275.92236120 0 219.66559204 0 26331
0.15750000 0.15749700 9086.52964701 0 67.84141346 0 3377.10310278 0 113.02706074 0 -406.51011407 0 27345
0.15850000 0.15849900 9076.35901941 0 136.92748104 0 3177.91629679 0 -89.97888801 0 124.70165465 0 26980
0.15950000 0.15949700 8769.07740796 0 62.39463755 0 3212.05500099 0 -44.70739487 0 -177.96712799 0 27777
0.16050000 0.16050000 8833.57271821 0 10.91474710 0 3206.20994020 0 115.55363541 0 429.88924811 0 28224
0.16150000 0.16150500 9053.68861285 0 -41.46710168 0 3073.53704231 0 218.94355512 0 -394.22217697 0 28075
0.16250000 0.16249700 9113.33707004 0 -25.44808593 0 2790.32332823 0 353.99440564 0 39.32051142 0 28590
0.16350000 0.16349900 8921.02680615 0 35.82833715 0 2748.53169813 0 37.95130316 0 144.04802948 0 29163
0.16450000 0.16449100 8826.91800005 0 207.18577723 0 3050.11243435 0 -247.56993444 0 141.31072208 0 28996
0.16550000 0.16550500 8727.94015848 0 251.33983228 0 2920.44525083 0 -97.33845175 0 124.13156712 0 30777
0.16650000 0.16650700 8449.95039817 0 80.55425432 0 3439.18053210 0 3.77060768 0 51.35956206 0 29211
0.16750000 0.16749900 8320.72686253 0 174.85604725 0 3306.41890463 0 85.56170791 0 347.21768430 0 30922
0.16850000 0.16850800 8262.62008171 0 -0.73130140 0 3198.75665585 0 285.82236360 0 308.65248339 0 30867
0.16950000 0.16949900 8175.63182405 0 -32.69019389 0 3128.94866226 0 163.94896417 0 489.32475432 0 30852
0.17050000 0.17049200 8217.21272141 0 164.83847816 0 2966.76208929 0 -214.46714803 0 68.42425586 0 31257
0.17150000 0.17149500 7987.95768049 0 144.57042486 0 2970.25581632 0 -59.06040193 0 44.53159939 0 32608
0.17250000 0.17250900 7897.45351339 0 117.69201818 0 3283.95923081 0 -61.17671322 0 287.14332515 0 32361
0.17350000 0.17350400 7751.37135839 0 27.41233691 0 3258.32747466 0 47.50958578 0 -153.35132548 0 32508
0.17450000 0.17449800 7773.16556039 0 -5.41877064 0 3035.78260789 0 250.76198092 0 -78.57292289 0 32791
0.17550000 0.17549800 7886.08503652 0 -87.74068447 0 2811.92897989 0 228.49973041 0 -319.19355697 0 33633
0.17650000 0.17650100 7867.62928480 0 -89.87030519 0 2245.70119329 0 549.91818149 0 94.60890818 0 33984
0.17750000 0.17750300 8043.35820924 0 -33.91566024 0 2268.74870055 0 62.69942364 0 84.14658209 0 34069
0.17850000 0.17849800 7930.44982431 0 95.64160952 0 2084.31318649 0 151.21294271 0 145.69839959 0 34536
