### header ###
fiducial parameters:
Omega_m = 0.31
Omega_nu = 0
Omega_de = 0.69
Omega_k = 0
H_0 = 100
w_de = -1
zeff = 0
beta = 0
fgrowth = 0
b_1 = 2
gamma = 0.55
Lx = 3500 Ly = 3500 Lz = 3500
nx = 700 ny = 700 nz = 700
xoffset = 1379.75464 yoffset = 22.6059522 zoffset = 368.141391
bins = 400 dk = 0.001
kx_ny = 0.628318531 ky_ny = 0.628318531 kz_ny = 0.628318531
############################
A(data) = 3.31888128 (not used)
A(ran) = 3.32442149 (used)
Ngal = 186588
weighted Ngal = 0
Nran = 9399747
weighted Nran = 0
SN(data) = 6659.596
SN(ran) = 132.230138
SN(data+ran) = 6791.82614
############################
13 columns: k_central k_mean P_0(k) sigma^{lin}_{P_0(k)} P^img_1(k) sigma^{lin}_{P_1(k)} P_2(k) sigma^{lin}_{P_2(k)} P^img_3(k) sigma^{lin}_{P_3(k)} P_4(k) sigma^{lin}_{P_4(k)} N_modes
### header ###
0.00050000 0 0 0 0 0 0 0 0 0 0 0 0
0.00150000 0.00179520 30787.38813675 0 -20312.30717901 0 -22093.33158495 0 25117.90099273 0 45179.54712071 0 3
0.00250000 0.00253879 51756.95964691 0 -18563.33633224 0 -11635.33107050 0 -40511.04050126 0 -16179.39446019 0 6
0.00350000 0.00331552 67519.32510185 0 -22846.31294577 0 -56093.28491776 0 11834.52896769 0 63329.51454269 0 7
0.00450000 0.00420575 90838.56668549 0 -29645.99305881 0 -56559.33701352 0 -6276.94090968 0 -20221.24845206 0 24
0.00550000 0.00557378 129811.36908200 0 -9749.89413649 0 -52423.54058350 0 -44538.25411316 0 1967.11250834 0 45
0.00650000 0.00659388 113776.82565395 0 13156.37781998 0 3176.74062991 0 -48920.94058725 0 -83862.31471702 0 40
0.00750000 0.00754703 118673.58910659 0 9278.62917816 0 -8503.07723155 0 -12188.67088625 0 71584.02695943 0 57
0.00850000 0.00846663 103861.62831815 0 -6355.98787033 0 14321.39714742 0 1442.25488636 0 -54734.50237963 0 75
0.00950000 0.00948925 123407.31196409 0 -3061.64727918 0 25768.39969374 0 5833.83650040 0 -16148.67184464 0 112
0.01050000 0.01054430 126448.51816730 0 4732.41409626 0 45322.95629725 0 -47939.59148127 0 -732.09663696 0 105
0.01150000 0.01145670 112369.35276122 0 13154.27049256 0 54136.79777609 0 -8396.26900494 0 -11106.39188804 0 144
0.01250000 0.01249090 112350.49772641 0 10711.13490240 0 98369.82214924 0 -13809.53840826 0 8185.74699567 0 169
0.01350000 0.01339930 89450.72521135 0 11789.49870808 0 58018.49488403 0 18467.39747864 0 -20408.57876852 0 180
0.01450000 0.01448870 95546.11431819 0 6751.76614223 0 110385.24853915 0 31462.39838302 0 35132.69727713 0 267
0.01550000 0.01550050 81563.88597344 0 959.83440214 0 68892.85893192 0 26529.36671636 0 17365.48706183 0 238
0.01650000 0.01653350 83689.51386857 0 4272.81707712 0 94535.70627621 0 28940.03837306 0 60340.76970105 0 315
0.01750000 0.01747870 77544.10346350 0 5251.93685251 0 71435.95948017 0 9021.00285544 0 38544.68219431 0 297
0.01850000 0.01844180 70592.36304029 0 4250.81214238 0 75904.60273061 0 9667.65291112 0 58048.10837988 0 388
0.01950000 0.01947590 69677.33929206 0 1716.25181577 0 62744.45390367 0 14284.24163765 0 48230.06992935 0 399
0.02050000 0.02045430 71121.19131078 0 -1658.49995326 0 69649.61129969 0 14985.20528477 0 48460.32317799 0 462
0.02150000 0.02154770 73893.21416405 0 -1942.03531204 0 54490.60695874 0 9548.87728300 0 41971.64022737 0 571
0.02250000 0.02255340 76784.57829648 0 -1092.98533062 0 51324.40296593 0 15570.37683576 0 36085.43109498 0 510
0.02350000 0.02348930 80672.26465077 0 -2124.23040431 0 49926.46850258 0 2030.96452917 0 41843.75872656 0 555
0.02450000 0.02439640 77175.09934103 0 3013.58912280 0 38855.67935674 0 6775.19075019 0 12206.97136121 0 592
0.02550000 0.02547300 76734.77882219 0 6661.37288710 0 56623.66595582 0 -2925.20337432 0 29124.70680225 0 837
0.02650000 0.02652900 67121.26204338 0 2825.67097291 0 45089.48660149 0 -61.16373651 0 14824.27201706 0 723
0.02750000 0.02749970 66969.20173322 0 -16.48140775 0 54029.32407766 0 12391.30705449 0 23877.90517392 0 826
0.02850000 0.02848090 65761.70312146 0 -3.87350071 0 42130.35525570 0 -862.56460490 0 2346.44253517 0 831
0.02950000 0.02946900 62368.24050318 0 5287.22904120 0 48360.61331743 0 4895.78742731 0 7658.18312163 0 996
0.03050000 0.03053250 58005.40727163 0 2285.08603365 0 40977.97989278 0 4977.91774071 0 9610.97689471 0 1041
0.03150000 0.03150510 52426.09155880 0 2206.99291594 0 37615.68353793 0 4058.52406088 0 1549.77294958 0 1036
0.03250000 0.03246190 54900.87033385 0 796.37899623 0 34635.81165385 0 9452.55023750 0 15267.80898301 0 1059
0.03350000 0.03345080 48329.89070188 0 440.17411504 0 30388.10504662 0 8181.32160808 0 2722.31210855 0 1302
0.03450000 0.03451200 49843.39543743 0 1700.41358653 0 22072.92378257 0 3808.14028978 0 13923.88864880 0 1339
0.03550000 0.03553350 46224.33787323 0 -40.28988203 0 21969.55382701 0 5093.62110727 0 11539.61404084 0 1365
0.03650000 0.03647120 46255.50413665 0 -553.86110200 0 14330.27010498 0 6551.68094928 0 15155.01151005 0 1308
0.03750000 0.03744890 46745.40230586 0 -1012.40334831 0 13247.21472299 0 4094.24880625 0 13775.71025757 0 1579
0.03850000 0.03847530 47916.52179162 0 -212.34096557 0 10867.98660964 0 2996.16485240 0 16060.38591693 0 1662
0.03950000 0.03950240 47917.63091131 0 1119.35686961 0 12942.53954282 0 -1889.61831527 0 14809.74254905 0 1683
0.04050000 0.04050350 46352.77393389 0 1261.12454900 0 11861.03692840 0 -927.68213131 0 15154.34603823 0 1822
0.04150000 0.04152450 45908.79332005 0 11.14853844 0 12971.15483095 0 2121.79034098 0 13788.68695800 0 1887
0.04250000 0.04250150 45251.63990087 0 1163.16709755 0 16496.38086897 0 -1405.31010932 0 12297.80826422 0 1920
0.04350000 0.04349210 45706.15715181 0 -197.96233785 0 10566.80515651 0 2783.57988049 0 12472.82735206 0 2005
0.04450000 0.04448520 44128.87803380 0 323.36384703 0 15464.23408097 0 1508.36951137 0 11952.98295110 0 2151
0.04550000 0.04548030 44101.59368931 0 1316.81344887 0 9848.72779249 0 1075.33369068 0 8989.71458885 0 2274
0.04650000 0.04648670 41645.55903709 0 1758.87528564 0 14350.67790737 0 -696.81553947 0 11119.59041241 0 2311
0.04750000 0.04749250 39590.80389047 0 1453.65663682 0 12347.94047443 0 432.30712905 0 8908.18320009 0 2568
0.04850000 0.04851840 38609.78752040 0 175.79214427 0 13012.52499556 0 1144.36751872 0 6822.63889073 0 2493
0.04950000 0.04949480 37112.69775633 0 248.73007364 0 10064.11883723 0 608.24789536 0 1946.02814294 0 2644
0.05050000 0.05050630 37369.68078962 0 111.02842705 0 10410.99602178 0 -597.21880911 0 5698.40189447 0 2829
0.05150000 0.05149060 36441.34760505 0 847.23767984 0 11650.96965820 0 -868.02591028 0 -721.53449011 0 2784
0.05250000 0.05249300 37585.07183435 0 -138.86733139 0 10679.63590306 0 -1022.41426268 0 -180.13434788 0 3055
0.05350000 0.05348950 36031.63878978 0 1217.53614499 0 11906.95448376 0 -1906.19965470 0 -4683.33554977 0 3009
0.05450000 0.05448610 35202.12817002 0 885.66645903 0 14229.45112472 0 -875.80416670 0 641.19207765 0 3336
0.05550000 0.05550870 34633.03885461 0 -16.97463328 0 14184.75360102 0 1882.87486752 0 -1537.20662343 0 3349
0.05650000 0.05647670 35478.52079797 0 -1081.52146946 0 11401.30681489 0 2692.05532327 0 -428.88105831 0 3324
0.05750000 0.05747970 36346.07422326 0 -617.51680865 0 10745.72834568 0 3101.23176109 0 -746.34882504 0 3639
0.05850000 0.05849280 36198.45039188 0 -214.11001149 0 6926.65213571 0 549.92927269 0 -2926.35685880 0 3846
0.05950000 0.05951020 37269.63819314 0 1149.14782461 0 9842.93818768 0 -1412.48611375 0 496.39206502 0 3787
0.06050000 0.06049470 34179.63072337 0 1462.03049052 0 7795.38122788 0 -769.97972926 0 -5833.27084936 0 3930
0.06150000 0.06148310 33551.09259231 0 666.12841575 0 10169.38538746 0 -352.06010089 0 -999.95347974 0 4083
0.06250000 0.06249100 32204.06672295 0 203.46578978 0 8453.46630760 0 932.77742718 0 -3967.13259803 0 4303
0.06350000 0.06350600 31527.06006123 0 497.90268604 0 8171.45044280 0 772.35657276 0 -4327.07521259 0 4470
0.06450000 0.06451750 31003.77738921 0 877.02641660 0 8388.37207271 0 -470.73590824 0 -4027.93453970 0 4479
0.06550000 0.06550280 30209.09312787 0 620.35948243 0 8526.43529232 0 -433.56708902 0 -5705.57789889 0 4636
0.06650000 0.06648880 28945.36214759 0 579.34867259 0 9216.45192806 0 -1055.46048399 0 -3669.53360152 0 4653
0.06750000 0.06749660 28949.24406653 0 199.29106324 0 9678.38918976 0 841.44696591 0 -4436.07949620 0 5220
0.06850000 0.06852730 28553.62107138 0 144.86434158 0 9907.57768350 0 -295.05356682 0 -3910.37894325 0 5029
0.06950000 0.06949320 28991.83426281 0 182.64872222 0 9676.51477748 0 -587.95211406 0 -5580.40265013 0 5040
0.07050000 0.07048030 28365.84710705 0 804.37131275 0 10295.85830626 0 -1089.78108382 0 -4336.30308845 0 5475
0.07150000 0.07148790 27252.73458133 0 390.55320902 0 10626.42034011 0 762.31016657 0 -4711.74010515 0 5509
0.07250000 0.07249820 27398.36199726 0 156.89385379 0 11346.62721394 0 977.19434360 0 -2235.13128260 0 5916
0.07350000 0.07351270 26353.79306867 0 446.03137615 0 9263.56733270 0 1980.77686298 0 -3902.27127828 0 5721
0.07450000 0.07449140 26048.34150472 0 226.06854004 0 8732.63173479 0 836.73542545 0 -463.67857962 0 6028
0.07550000 0.07549160 25650.05662231 0 37.07820413 0 8217.20163021 0 2256.42638074 0 1156.35710262 0 6183
0.07650000 0.07648840 25630.64702765 0 37.26032159 0 7108.11520898 0 1108.39211230 0 83.70038324 0 6330
0.07750000 0.07749960 25016.86018853 0 736.94792651 0 7183.11388274 0 -651.01222343 0 512.65841446 0 6583
0.07850000 0.07848650 23992.47723840 0 1077.45210930 0 6390.23748651 0 -1581.56032003 0 -422.93395851 0 6549
0.07950000 0.07947320 23275.65317963 0 37.29237515 0 7640.78103362 0 578.01218336 0 1567.41904392 0 6828
0.08050000 0.08048110 23061.59307853 0 72.23374928 0 7157.52649138 0 157.58483536 0 -790.69586692 0 7147
0.08150000 0.08149960 23277.76050705 0 -64.37718901 0 6871.75071082 0 1798.39322037 0 143.75411277 0 7386
0.08250000 0.08250610 23303.71390791 0 -538.55081374 0 4753.58719124 0 1835.44890937 0 367.63103229 0 7227
0.08350000 0.08350160 23980.60965766 0 -372.64425331 0 4302.84094726 0 1345.19582187 0 1210.03849585 0 7798
0.08450000 0.08449610 23779.96990487 0 474.44369538 0 3334.29108256 0 -1010.21727340 0 694.22907234 0 7371
0.08550000 0.08548940 23742.70348312 0 480.93537295 0 4244.21288019 0 -701.19656226 0 510.62207070 0 8256
0.08650000 0.08650700 22329.79590389 0 462.39421901 0 5477.04378577 0 -1104.25398672 0 -207.13586685 0 8037
0.08750000 0.08749060 22571.69490933 0 740.88751966 0 5295.19252061 0 -931.75814618 0 -593.22930557 0 8155
0.08850000 0.08849210 21124.84826743 0 596.78403419 0 7239.64571359 0 -346.92931318 0 -943.66232787 0 8718
0.08950000 0.08949900 21038.00419533 0 384.36210288 0 6594.31551035 0 -343.40231255 0 -2502.91714171 0 8571
0.09050000 0.09049190 20377.41250509 0 302.81296820 0 7889.78949630 0 -133.67554210 0 -765.08740228 0 8932
0.09150000 0.09150830 20022.93785063 0 84.17730471 0 6395.90508815 0 232.50697986 0 -2518.11208153 0 9285
0.09250000 0.09250820 19903.48565949 0 332.33329800 0 7578.29323001 0 519.38744365 0 -877.52108399 0 9204
0.09350000 0.09350330 19709.83336078 0 -67.42094618 0 5667.09144548 0 615.52593880 0 -1748.73793163 0 9349
0.09450000 0.09448040 19456.39951051 0 220.98544448 0 6396.00490892 0 959.00145325 0 -1572.80936564 0 9564
0.09550000 0.09549270 19101.81394408 0 233.78357663 0 4721.38944649 0 526.51021033 0 -819.84242338 0 10155
0.09650000 0.09649430 18984.69090430 0 84.93771717 0 4825.73542738 0 166.36462686 0 -1602.47831747 0 9913
0.09750000 0.09749140 17995.57796046 0 521.92510951 0 4233.65406070 0 -20.46370202 0 -1830.38023237 0 10476
0.09850000 0.09850240 17677.48243199 0 771.35947416 0 4997.85971282 0 -731.23817832 0 -1661.57221481 0 10575
0.09950000 0.09950330 16610.28746163 0 395.58084859 0 5140.13758728 0 -546.99010549 0 -1982.50708971 0 10882
0.10050000 0.10051200 16344.32055881 0 83.83802500 0 5142.59983300 0 1113.93327430 0 -1537.05134668 0 10875
0.10150000 0.10150300 16172.29609414 0 171.20149785 0 4962.10169386 0 215.94005898 0 -2184.17832382 0 11118
0.10250000 0.10250800 16099.53784216 0 -6.93896336 0 4950.35611629 0 462.36870926 0 -361.81702684 0 11575
0.10350000 0.10349800 15938.82639838 0 151.01662853 0 4968.49022330 0 -83.36132535 0 -2064.55976473 0 11364
0.10450000 0.10450100 15917.42038827 0 28.53853704 0 5064.42907691 0 -207.17801339 0 -503.96957077 0 12093
0.10550000 0.10551000 16046.30009681 0 19.30589197 0 5716.28090395 0 101.44152914 0 -797.74321346 0 12067
0.10650000 0.10649700 16054.39667058 0 -68.86224723 0 4965.14068183 0 297.42708296 0 -470.49190190 0 12054
0.10750000 0.10749900 16578.56663836 0 32.40204459 0 5440.30974148 0 85.37726131 0 196.97633044 0 12807
0.10850000 0.10850100 15708.79497368 0 408.67178835 0 5235.76588736 0 -209.72011573 0 -547.07328947 0 12736
0.10950000 0.10950300 15448.37366933 0 510.38139173 0 5747.10334027 0 -640.97579931 0 86.35916497 0 12933
0.11050000 0.11050200 15015.81698835 0 436.25448604 0 6855.42446891 0 -24.82442792 0 -776.35938574 0 13428
0.11150000 0.11150900 14449.61138414 0 295.90758898 0 6944.69751314 0 -70.77902788 0 590.74265922 0 13453
0.11250000 0.11250000 14016.05649544 0 104.05206417 0 6407.17374425 0 390.45227913 0 -582.60282978 0 13668
0.11350000 0.11349100 14307.20041533 0 -233.49409639 0 5773.23420028 0 1174.49120964 0 -507.90916393 0 13791
0.11450000 0.11448600 14284.35254962 0 -200.87821353 0 5024.42312951 0 531.44690209 0 -298.77909987 0 14205
0.11550000 0.11549300 14343.35771738 0 145.64072537 0 4534.95751699 0 -51.36577313 0 -139.09691917 0 14776
0.11650000 0.11649800 14295.44374656 0 90.04787526 0 4367.45826068 0 -3.67343770 0 -1194.89901202 0 14553
0.11750000 0.11747300 14112.77173283 0 12.78604275 0 4163.13623050 0 122.56438100 0 -439.46095108 0 14568
0.11850000 0.11849100 14237.10405062 0 66.14856407 0 4065.76661249 0 296.89359639 0 -992.85400457 0 16015
0.11950000 0.11950300 14046.00272720 0 166.07847398 0 3930.11018262 0 68.03462211 0 -1059.72394009 0 15270
0.12050000 0.12050700 13977.34821809 0 121.85787175 0 4073.21989684 0 116.68826485 0 -617.08203373 0 15999
0.12150000 0.12150000 13790.68337345 0 183.33415820 0 3720.69729304 0 51.64870956 0 -900.29131132 0 15670
0.12250000 0.12250700 13414.58088494 0 275.13377710 0 4743.71602595 0 -332.51297539 0 -511.84542972 0 16887
0.12350000 0.12352200 13140.40649638 0 344.25522560 0 4311.42553370 0 -171.05953053 0 -575.67970464 0 16407
0.12450000 0.12449800 12897.28745927 0 200.57875121 0 5082.35245117 0 -228.63282477 0 -255.66761733 0 16306
0.12550000 0.12549900 12647.73552794 0 66.35009112 0 4853.13068385 0 159.22965987 0 -708.89828942 0 17523
0.12650000 0.12650100 12363.91179803 0 21.11730625 0 4756.38217287 0 811.77025024 0 -26.61255069 0 17154
0.12750000 0.12750600 12527.61786499 0 6.87993601 0 4244.00214745 0 805.08558584 0 429.41343577 0 18007
0.12850000 0.12850300 12509.20647805 0 10.93072951 0 3641.83888274 0 472.73343281 0 558.71017331 0 17496
0.12950000 0.12949900 12426.35523685 0 170.31863858 0 3384.71166389 0 97.66109466 0 1269.25439636 0 18405
0.13050000 0.13049000 12193.77283685 0 163.16925302 0 3585.66197019 0 258.47258104 0 1219.47710446 0 18100
0.13150000 0.13148800 11882.99749836 0 156.46240623 0 3498.37425021 0 50.83838672 0 1537.16225865 0 19059
0.13250000 0.13249300 11862.92243188 0 -7.99975871 0 3350.55077729 0 82.68853334 0 1315.34941088 0 18957
0.13350000 0.13349100 11655.07340107 0 245.50253533 0 3071.54062686 0 -42.68657878 0 673.74030422 0 19468
0.13450000 0.13450700 11710.19664990 0 162.20542801 0 3824.93236196 0 -495.34172867 0 1063.39956276 0 19953
0.13550000 0.13551000 11137.89088737 0 48.57777895 0 3506.00499371 0 37.87854491 0 785.69706445 0 19956
0.13650000 0.13649900 11496.69110865 0 -38.58072858 0 3580.64874917 0 607.73991854 0 1013.40710164 0 19723
0.13750000 0.13749600 11434.02584589 0 -12.28017326 0 2885.06433257 0 326.83539167 0 9.95534747 0 20946
0.13850000 0.13851100 11381.89722024 0 134.60498440 0 3059.06303029 0 48.42516408 0 796.39230567 0 20955
0.13950000 0.13949800 10991.98619152 0 294.84505231 0 2892.31797537 0 -260.11962379 0 787.24317731 0 20506
0.14050000 0.14048300 10690.68273523 0 228.07271933 0 2977.44291195 0 -97.45801485 0 915.20564386 0 21447
0.14150000 0.14148400 10578.77255802 0 70.14128406 0 3306.25253667 0 -44.00044197 0 451.86534575 0 21771
0.14250000 0.14249400 10547.58411220 0 20.19950971 0 3160.18147287 0 326.16437425 0 442.75725481 0 22470
0.14350000 0.14350900 10477.17719397 0 1.30822886 0 3197.30370905 0 362.09097941 0 705.52212907 0 22519
0.14450000 0.14449900 10559.91752321 0 117.13745833 0 2737.21867725 0 -92.19601828 0 871.06822560 0 22218
0.14550000 0.14550500 10294.61609220 0 68.65151449 0 2956.00362825 0 -6.98086591 0 233.28669101 0 23559
0.14650000 0.14650700 10210.10117146 0 261.65686368 0 3228.13723657 0 -477.32297010 0 301.56853590 0 23044
0.14750000 0.14750500 10059.57144648 0 147.04154354 0 2793.14049226 0 115.15324320 0 673.64270169 0 23649
0.14850000 0.14849900 9870.53308569 0 -33.14393475 0 3190.89299722 0 449.74359977 0 394.94865037 0 23640
0.14950000 0.14949500 9918.32505334 0 6.64969386 0 2803.82131492 0 260.65200124 0 529.02347556 0 24457
0.15050000 0.15050000 9884.87400335 0 89.76227693 0 2484.57230196 0 249.79704679 0 247.06306674 0 24591
0.15150000 0.15149900 9754.05333534 0 119.36457068 0 2298.63947632 0 56.31854713 0 646.12544206 0 25020
0.15250000 0.15250500 9587.25282444 0 -44.64750240 0 2204.58612620 0 139.71026236 0 501.96871884 0 25297
0.15350000 0.15350100 9620.64841845 0 -66.01314056 0 2054.59986987 0 270.72280807 0 384.58614506 0 25452
0.15450000 0.15450400 9806.55906169 0 68.01909444 0 1759.62948703 0 -98.39710649 0 25.02817321 0 26061
0.15550000 0.15549900 9608.85847609 0 81.03627773 0 1870.50818292 0 -198.13092404 0 -508.88962574 0 26128
0.15650000 0.15649500 9597.74509675 0 101.09492924 0 1925.58706697 0 -145.29246178 0 -204.91208186 0 26331
0.15750000 0.15749700 9577.99167499 0 81.04670346 0 1841.54906769 0 -133.62008611 0 -840.49312298 0 27345
0.15850000 0.15849900 9420.47449593 0 48.25003408 0 2101.50454176 0 -121.64048429 0 -610.01805039 0 26980
0.15950000 0.15949700 9368.07968154 0 138.63441625 0 1836.61348505 0 -107.84580809 0 -1143.04766629 0 27777
0.16050000 0.16050000 9195.78902815 0 157.94973574 0 2497.01662494 0 -234.89602369 0 -1021.35505337 0 28224
0.16150000 0.16150500 8955.27642233 0 230.14677315 0 2235.89657519 0 -250.97493190 0 -1238.12140653 0 28075
0.16250000 0.16249700 8876.66201836 0 67.76821156 0 2718.86274630 0 149.98847457 0 -1435.42270904 0 28590
0.16350000 0.16349900 8706.20141246 0 8.98546666 0 2499.72287699 0 59.60863979 0 -824.70924060 0 29163
0.16450000 0.16449100 8834.38237559 0 64.74253303 0 2450.36705057 0 191.59820904 0 -1284.47151857 0 28996
0.16550000 0.16550500 8683.94138019 0 38.96980777 0 2234.17743966 0 229.05096290 0 -889.95098841 0 30777
0.16650000 0.16650700 8605.95917444 0 97.38913852 0 2379.94904115 0 53.06050802 0 -1108.44978653 0 29211
0.16750000 0.16749900 8438.68174207 0 83.47711745 0 2002.02759634 0 99.98669684 0 -628.92743207 0 30922
0.16850000 0.16850800 8496.91052605 0 63.88119068 0 2077.17045566 0 202.88461106 0 -571.58816209 0 30867
0.16950000 0.16949900 8335.16760095 0 39.77303226 0 2137.07401038 0 173.55726809 0 -438.01133164 0 30852
0.17050000 0.17049200 8468.46160588 0 22.36961330 0 1916.72520061 0 132.63962430 0 -126.31431468 0 31257
0.17150000 0.17149500 8235.80156749 0 23.30981407 0 1837.15695370 0 -6.84640733 0 -364.88041544 0 32608
0.17250000 0.17250900 8386.34238367 0 113.41081615 0 2030.79816122 0 -167.81091895 0 -167.92404916 0 32361
0.17350000 0.17350400 8212.94261058 0 123.62248118 0 2461.24751478 0 -282.93643415 0 -563.89752612 0 32508
0.17450000 0.17449800 8036.90313262 0 157.74787596 0 2368.43637872 0 -221.96701541 0 -166.15056676 0 32791
0.17550000 0.17549800 8041.93853604 0 8.96663381 0 2396.51928939 0 157.77449483 0 -739.30480586 0 33633
0.17650000 0.17650100 8152.38467525 0 -130.51233273 0 2346.60890312 0 428.79787433 0 -296.77602970 0 33984
0.17750000 0.17750300 8092.89149482 0 14.40946125 0 2018.85294211 0 309.38339327 0 -276.82962111 0 34069
0.17850000 0.17849800 8156.13349981 0 57.21970688 0 1704.28441426 0 51.97756355 0 -304.24816909 0 34536
