### header ###
fiducial parameters:
Omega_m = 0.31
Omega_nu = 0
Omega_de = 0.69
Omega_k = 0
H_0 = 100
w_de = -1
zeff = 0
beta = 0
fgrowth = 0
b_1 = 2
gamma = 0.55
Lx = 3500 Ly = 3500 Lz = 3500
nx = 700 ny = 700 nz = 700
xoffset = 1379.75464 yoffset = 22.6059522 zoffset = 368.141391
bins = 400 dk = 0.001
kx_ny = 0.628318531 ky_ny = 0.628318531 kz_ny = 0.628318531
############################
A(data) = 3.34579828 (not used)
A(ran) = 3.34110413 (used)
Ngal = 187207
weighted Ngal = 0
Nran = 9399747
weighted Nran = 0
SN(data) = 6674.60245
SN(ran) = 132.893696
SN(data+ran) = 6807.49614
############################
13 columns: k_central k_mean P_0(k) sigma^{lin}_{P_0(k)} P^img_1(k) sigma^{lin}_{P_1(k)} P_2(k) sigma^{lin}_{P_2(k)} P^img_3(k) sigma^{lin}_{P_3(k)} P_4(k) sigma^{lin}_{P_4(k)} N_modes
### header ###
0.00050000 0 0 0 0 0 0 0 0 0 0 0 0
0.00150000 0.00179520 6502.15875491 0 -8287.08726218 0 -10845.52693582 0 8303.74624000 0 -44558.88373948 0 3
0.00250000 0.00253879 18456.63901760 0 -13740.88389915 0 -14536.12272034 0 8221.23882590 0 33699.16007157 0 6
0.00350000 0.00331552 22711.55490284 0 -12321.87616160 0 -13026.27807978 0 -24255.22769410 0 -29964.08858729 0 7
0.00450000 0.00420575 30785.61354524 0 -7627.26086454 0 -25754.64660953 0 -8517.32941963 0 -2539.10771736 0 24
0.00550000 0.00557378 45660.68324432 0 -15146.36037643 0 -43056.58111285 0 -4869.78966166 0 -12419.92234262 0 45
0.00650000 0.00659388 66515.57177803 0 -11714.52221671 0 -44094.71714720 0 -32427.22160555 0 -16111.84907077 0 40
0.00750000 0.00754703 77312.96291910 0 -8285.90050411 0 -48444.24094242 0 -37581.96629920 0 -49768.86259394 0 57
0.00850000 0.00846663 83689.40295660 0 2467.45858507 0 -6964.26238456 0 -52230.33193266 0 -41827.56557901 0 75
0.00950000 0.00948925 74600.16705753 0 6566.13277891 0 -4082.03739841 0 -29133.24702390 0 -42963.96961833 0 112
0.01050000 0.01054430 64554.31542168 0 12942.87227873 0 19587.60837041 0 -12687.99657286 0 -26574.50788794 0 105
0.01150000 0.01145670 65882.70808017 0 2571.90438673 0 35867.26725101 0 6163.77742722 0 -12594.05413471 0 144
0.01250000 0.01249090 53919.74305181 0 840.51530537 0 24000.90654808 0 27816.38921023 0 -7801.70321014 0 169
0.01350000 0.01339930 62243.46453752 0 -6805.28116751 0 15303.41172522 0 29666.73359711 0 11066.27502868 0 180
0.01450000 0.01448870 65225.33283705 0 -6905.36812877 0 -5278.61118117 0 19346.92939663 0 26975.67648156 0 267
0.01550000 0.01550050 75211.62474529 0 -4114.03550161 0 -12587.73215245 0 8295.53875426 0 15994.94785494 0 238
0.01650000 0.01653350 74341.29852076 0 -2869.80284556 0 -19751.42534933 0 -8248.44553201 0 23109.83978526 0 315
0.01750000 0.01747870 79615.05175767 0 5411.31735266 0 -16553.61144522 0 -19826.62366464 0 3584.24229698 0 297
0.01850000 0.01844180 69125.33041995 0 4654.09915461 0 -1661.89385952 0 -13648.60514054 0 8914.51627354 0 388
0.01950000 0.01947590 66866.60816144 0 3180.94419355 0 9253.27470193 0 -5373.72928620 0 -15137.04377100 0 399
0.02050000 0.02045430 66505.25696487 0 1460.38899337 0 18899.73233568 0 -6648.32963949 0 -3873.11252150 0 462
0.02150000 0.02154770 67523.98340457 0 111.92237752 0 15616.84895098 0 -2735.11134983 0 -6722.97339495 0 571
0.02250000 0.02255340 67388.11624195 0 2046.09292181 0 27541.10570198 0 -3383.19216990 0 -6823.28218015 0 510
0.02350000 0.02348930 65044.98997467 0 1194.03389866 0 25425.57079607 0 2471.61778393 0 2132.14951893 0 555
0.02450000 0.02439640 66142.13117679 0 -763.15309754 0 28066.27387748 0 4673.44220209 0 -5753.72478484 0 592
0.02550000 0.02547300 65856.08920749 0 385.80839496 0 30388.65960647 0 4072.15514193 0 7084.89024257 0 837
0.02650000 0.02652900 63313.09957120 0 2639.28340819 0 18640.19832709 0 2899.23888227 0 -11103.06452896 0 723
0.02750000 0.02749970 59732.08481253 0 2339.36635152 0 21116.52986972 0 -160.92550388 0 8251.24051365 0 826
0.02850000 0.02848090 59400.45802378 0 2567.17953683 0 23968.85298890 0 -322.10721441 0 -8118.97799004 0 831
0.02950000 0.02946900 56913.36802011 0 667.51037889 0 21830.69204122 0 296.43442084 0 -951.05571975 0 996
0.03050000 0.03053250 53712.00493297 0 1680.90417109 0 22041.09204732 0 -682.61215266 0 -10005.76805008 0 1041
0.03150000 0.03150510 55701.54384155 0 859.00433068 0 20440.85415164 0 -4546.14853471 0 -10398.32987487 0 1036
0.03250000 0.03246190 50227.15085184 0 -426.73602082 0 21179.52786839 0 6772.26267419 0 -7715.28060352 0 1059
0.03350000 0.03345080 54273.33041052 0 -873.33859362 0 18421.92357115 0 2126.11590779 0 -14055.54115657 0 1302
0.03450000 0.03451200 53291.42674470 0 890.56211336 0 17675.59692850 0 -2875.32626165 0 -14324.61359454 0 1339
0.03550000 0.03553350 53551.51531313 0 1997.15856088 0 19540.58169535 0 -2938.96754973 0 -10723.53486059 0 1365
0.03650000 0.03647120 50373.11100368 0 790.30878414 0 22193.26326945 0 34.43594828 0 -14518.37680522 0 1308
0.03750000 0.03744890 51593.69722783 0 227.98398975 0 20281.80638740 0 725.83343804 0 -14381.73325882 0 1579
0.03850000 0.03847530 50125.44457583 0 893.34822203 0 19928.99541247 0 1360.97859512 0 -11216.63838571 0 1662
0.03950000 0.03950240 48811.91412125 0 915.77129490 0 19089.72453940 0 2643.68661338 0 -8874.03340468 0 1683
0.04050000 0.04050350 48057.37999286 0 487.73427668 0 17401.53345191 0 5129.22384948 0 -4824.09393024 0 1822
0.04150000 0.04152450 45952.82537194 0 569.07378774 0 12313.11411601 0 3248.81122768 0 -2243.97096656 0 1887
0.04250000 0.04250150 45455.16336487 0 1796.69626723 0 16040.75449834 0 2041.26825114 0 -1309.71508283 0 1920
0.04350000 0.04349210 42696.44994794 0 1662.83661127 0 10900.77218782 0 909.08108490 0 -1676.35678035 0 2005
0.04450000 0.04448520 40708.13107103 0 1302.57235199 0 13562.64836420 0 -846.43911366 0 1910.55849510 0 2151
0.04550000 0.04548030 39520.15296591 0 184.04843128 0 11011.58433653 0 1866.58189920 0 1210.95906520 0 2274
0.04650000 0.04648670 39206.71574015 0 578.26395353 0 14502.18365768 0 216.87837425 0 -817.67853085 0 2311
0.04750000 0.04749250 37647.40436120 0 991.10603193 0 11467.74308461 0 322.58080852 0 361.64844065 0 2568
0.04850000 0.04851840 37334.18895938 0 596.10858030 0 13427.22484946 0 -811.34878475 0 -934.00633181 0 2493
0.04950000 0.04949480 36659.17871311 0 113.16237334 0 11016.26482164 0 1818.85647874 0 2607.20766662 0 2644
0.05050000 0.05050630 37123.78895327 0 -816.57384764 0 12311.67226041 0 3255.36612508 0 551.21030593 0 2829
0.05150000 0.05149060 37580.41353163 0 -506.59485709 0 9235.14059492 0 2319.61292975 0 3763.98623473 0 2784
0.05250000 0.05249300 37760.42365810 0 95.02882089 0 7364.90969192 0 2320.78859663 0 2895.19059538 0 3055
0.05350000 0.05348950 36866.25136014 0 1211.26961872 0 7774.99560789 0 -674.43794051 0 6357.77355304 0 3009
0.05450000 0.05448610 36026.75866313 0 769.33643983 0 8805.17925403 0 211.95942840 0 4544.57358475 0 3336
0.05550000 0.05550870 34966.55114684 0 1071.04028834 0 8988.48346599 0 272.26115709 0 6548.25376943 0 3349
0.05650000 0.05647670 32892.16458162 0 1031.69093981 0 8359.30204551 0 -255.04429206 0 4006.89453909 0 3324
0.05750000 0.05747970 32422.34147889 0 647.64160868 0 10652.87284483 0 932.23506765 0 5055.77794329 0 3639
0.05850000 0.05849280 32123.43372114 0 -93.47893703 0 8450.90424111 0 465.20694656 0 4730.79478151 0 3846
0.05950000 0.05951020 31111.58382355 0 -131.92867858 0 8653.24094703 0 1333.21732916 0 6475.31805830 0 3787
0.06050000 0.06049470 32670.45155462 0 298.48961963 0 7006.39784177 0 676.04394582 0 4302.04238108 0 3930
0.06150000 0.06148310 31671.24562156 0 -455.62304327 0 7560.22567018 0 -32.90558493 0 4869.32383139 0 4083
0.06250000 0.06249100 31341.61524826 0 897.89894014 0 8660.79405216 0 -1119.10177208 0 3351.80408254 0 4303
0.06350000 0.06350600 31062.89346895 0 1181.67830526 0 10211.48757108 0 -1865.49496190 0 2848.20828511 0 4470
0.06450000 0.06451750 30207.31853636 0 472.93196523 0 10684.20547621 0 -64.40314241 0 1562.72746761 0 4479
0.06550000 0.06550280 29195.69046271 0 -62.16771166 0 10892.33178694 0 300.59805617 0 3062.42366296 0 4636
0.06650000 0.06648880 29704.33275476 0 101.47668824 0 12240.57768797 0 1167.15992845 0 1657.25773920 0 4653
0.06750000 0.06749660 30145.42965739 0 61.51355287 0 9458.20674794 0 1179.44897467 0 164.27282712 0 5220
0.06850000 0.06852730 28515.57826585 0 1253.49380550 0 10709.21612533 0 -713.97140291 0 854.99929946 0 5029
0.06950000 0.06949320 27606.32194003 0 1269.75350022 0 10611.04794114 0 -1318.03348054 0 2946.68702281 0 5040
0.07050000 0.07048030 26091.70808479 0 167.02788044 0 11067.52833394 0 1947.53654573 0 3000.32405125 0 5475
0.07150000 0.07148790 26538.12876195 0 -403.03080558 0 8963.00698660 0 2306.01512229 0 2645.84939679 0 5509
0.07250000 0.07249820 26429.87867974 0 198.65442854 0 7478.43918388 0 1961.72218663 0 2260.90722430 0 5916
0.07350000 0.07351270 25958.83554535 0 319.85126495 0 6832.87606551 0 -1087.43862303 0 3893.32068234 0 5721
0.07450000 0.07449140 26231.01351845 0 -463.34140723 0 6658.99937096 0 1562.73855881 0 3957.42780070 0 6028
0.07550000 0.07549160 26064.09100438 0 163.00399419 0 6303.02740490 0 -736.03955748 0 1370.66121006 0 6183
0.07650000 0.07648840 26099.80465856 0 768.13526321 0 6772.35140377 0 -1552.84521113 0 447.92907995 0 6330
0.07750000 0.07749960 25146.40536889 0 761.18662832 0 8322.06889736 0 -1611.08508630 0 118.62367872 0 6583
0.07850000 0.07848650 24087.41788427 0 630.18961028 0 9364.51940732 0 -791.89704355 0 -2000.69665270 0 6549
0.07950000 0.07947320 23883.78350830 0 154.26191275 0 10537.08074869 0 -831.33733989 0 -2064.61522071 0 6828
0.08050000 0.08048110 23328.66910104 0 518.95155961 0 10241.02342855 0 -195.33705153 0 -3878.11465132 0 7147
0.08150000 0.08149960 23024.88121663 0 236.92016713 0 10201.18384911 0 1165.64043447 0 -1995.58361091 0 7386
0.08250000 0.08250610 23056.93477581 0 -521.79423339 0 9846.72028584 0 1488.05043856 0 -3305.13232578 0 7227
0.08350000 0.08350160 23212.98791687 0 34.57902473 0 8089.41995017 0 1256.53279346 0 -2009.29233034 0 7798
0.08450000 0.08449610 22991.38580185 0 318.03674513 0 8716.36094887 0 -104.40997710 0 -1827.38560919 0 7371
0.08550000 0.08548940 22596.53919049 0 324.24448806 0 7147.63314371 0 -61.99968003 0 -2435.98176813 0 8256
0.08650000 0.08650700 22163.87159754 0 231.91360083 0 8237.65379738 0 675.30859947 0 -1143.40258459 0 8037
0.08750000 0.08749060 21659.00031246 0 257.72059789 0 7284.76470277 0 164.74420299 0 -1549.73967598 0 8155
0.08850000 0.08849210 21578.36731064 0 222.88203915 0 7501.47559995 0 1470.14924668 0 1577.68949229 0 8718
0.08950000 0.08949900 21287.66703863 0 69.93188226 0 6188.98771788 0 1048.84458501 0 919.55006570 0 8571
0.09050000 0.09049190 21003.95422070 0 76.18798281 0 6705.71549250 0 1329.61269015 0 2434.99465160 0 8932
0.09150000 0.09150830 20946.61273247 0 594.52364825 0 5922.87662950 0 14.60289173 0 2335.95026286 0 9285
0.09250000 0.09250820 20095.58519064 0 566.96091472 0 7319.73524675 0 -953.64218688 0 3036.83627161 0 9204
0.09350000 0.09350330 19197.53097374 0 745.44489249 0 6540.62302593 0 -60.21921018 0 2982.99960162 0 9349
0.09450000 0.09448040 18671.03185461 0 323.84187761 0 7419.26764817 0 69.69985442 0 2721.02552970 0 9564
0.09550000 0.09549270 17840.41211516 0 194.80245584 0 6790.23041325 0 732.65230593 0 1470.30452344 0 10155
0.09650000 0.09649430 17828.76635836 0 131.08242025 0 6159.47404280 0 1015.67857877 0 2466.17200623 0 9913
0.09750000 0.09749140 17508.00894262 0 8.34735683 0 4805.49399295 0 706.65010380 0 2830.31818443 0 10476
0.09850000 0.09850240 17649.53261568 0 -98.79927330 0 3900.36359240 0 1210.22704620 0 2437.12416142 0 10575
0.09950000 0.09950330 17526.42032955 0 70.07795333 0 3050.81117976 0 -235.62360621 0 794.16297508 0 10882
0.10050000 0.10051200 16936.14682797 0 515.72402130 0 3175.64260141 0 -496.17356844 0 878.66569551 0 10875
0.10150000 0.10150300 16233.96314917 0 566.07916456 0 3583.23299806 0 -756.14900666 0 153.95801396 0 11118
0.10250000 0.10250800 15929.62070492 0 262.73492803 0 4045.25898933 0 -500.76310573 0 583.11635219 0 11575
0.10350000 0.10349800 15561.72570214 0 -48.86359910 0 4246.61966993 0 966.34049827 0 -462.03819159 0 11364
0.10450000 0.10450100 15726.65180076 0 -69.88729565 0 3856.50899967 0 480.60374616 0 -124.03951019 0 12093
0.10550000 0.10551000 15982.96936224 0 -120.52914636 0 3599.69233433 0 479.64103027 0 514.18345404 0 12067
0.10650000 0.10649700 15873.61016033 0 -51.99874774 0 3495.65690696 0 -28.23785469 0 683.02807254 0 12054
0.10750000 0.10749900 15982.63662633 0 128.68450347 0 3799.30060581 0 -327.38551504 0 321.59812847 0 12807
0.10850000 0.10850100 15877.04843138 0 347.12784561 0 4288.03419933 0 -926.42660781 0 -734.30600339 0 12736
0.10950000 0.10950300 15617.62533476 0 530.98329006 0 4917.54835572 0 -1287.74342167 0 -1044.84399027 0 12933
0.11050000 0.11050200 14727.33495573 0 514.08030591 0 6077.02208469 0 -713.78285256 0 -1735.86105197 0 13428
0.11150000 0.11150900 14448.16952854 0 191.65366503 0 5654.76912567 0 187.60315990 0 -561.28444012 0 13453
0.11250000 0.11250000 14441.07116249 0 -200.00311809 0 5536.22641269 0 1157.84332302 0 -2238.80246879 0 13668
0.11350000 0.11349100 14348.79240389 0 -64.26394789 0 4501.53974059 0 1209.33975045 0 -652.32209379 0 13791
0.11450000 0.11448600 14498.41265072 0 254.08268529 0 4258.93089854 0 137.06612101 0 -1410.24569197 0 14205
0.11550000 0.11549300 13734.45100492 0 387.09719205 0 4099.97186388 0 -191.81892386 0 44.53304125 0 14776
0.11650000 0.11649800 13489.11372843 0 263.87621219 0 4130.55029387 0 -44.06377271 0 -14.44805862 0 14553
0.11750000 0.11747300 13265.95884583 0 78.55218235 0 4093.36151050 0 205.64742822 0 -383.92178236 0 14568
0.11850000 0.11849100 13245.21830754 0 102.88538116 0 4135.54133249 0 389.29546728 0 117.41362913 0 16015
0.11950000 0.11950300 13218.48852289 0 27.21979373 0 4087.42772013 0 52.28811707 0 -389.82119002 0 15270
0.12050000 0.12050700 13117.66954263 0 -120.83304515 0 3929.01215412 0 71.51903255 0 606.01412829 0 15999
0.12150000 0.12150000 13396.16949800 0 -40.14003996 0 4356.24506057 0 125.29836104 0 -69.60247371 0 15670
0.12250000 0.12250700 13542.01873787 0 -150.14375133 0 3568.20442620 0 347.40401641 0 877.71739817 0 16887
0.12350000 0.12352200 13718.47968132 0 -106.57930431 0 3901.47271210 0 394.11902884 0 505.04874423 0 16407
0.12450000 0.12449800 14028.58954799 0 -12.27629134 0 3099.83427027 0 221.01206335 0 812.20502516 0 16306
0.12550000 0.12549900 13713.82137860 0 36.86647318 0 3231.15404214 0 408.36788956 0 697.13829330 0 17523
0.12650000 0.12650100 13749.20229686 0 196.32749542 0 3361.29814713 0 233.41756713 0 1052.94167316 0 17154
0.12750000 0.12750600 13537.69317106 0 194.67379795 0 3176.33025562 0 -203.31494950 0 1024.02359536 0 18007
0.12850000 0.12850300 13186.10222780 0 26.94173742 0 3018.91289734 0 48.41019097 0 970.00835710 0 17496
0.12950000 0.12949900 13047.79500186 0 268.01101042 0 3178.12702953 0 18.36990586 0 1022.28338656 0 18405
0.13050000 0.13049000 12809.00153156 0 212.63377317 0 3384.80039346 0 -67.69988979 0 997.72193091 0 18100
0.13150000 0.13148800 12732.36136065 0 -4.53511279 0 3064.99682066 0 260.83167863 0 1118.94649532 0 19059
0.13250000 0.13249300 12725.48481854 0 -128.26747447 0 3055.24765854 0 628.53147634 0 999.82704009 0 18957
0.13350000 0.13349100 12823.75282350 0 111.08055568 0 2535.69162870 0 94.34227580 0 729.95603595 0 19468
0.13450000 0.13450700 12588.73036017 0 237.93501165 0 2546.62754889 0 -242.46576560 0 1025.66287427 0 19953
0.13550000 0.13551000 12145.63704209 0 363.14131576 0 3119.14404416 0 -687.25492770 0 1176.73163142 0 19956
0.13650000 0.13649900 11930.35690933 0 186.38978295 0 3440.97730600 0 58.32738472 0 1158.50879483 0 19723
0.13750000 0.13749600 11857.26592144 0 90.46523700 0 3185.08121001 0 220.38319248 0 400.04172801 0 20946
0.13850000 0.13851100 11600.28288815 0 203.38260580 0 3775.14397886 0 -145.40226463 0 1107.19537215 0 20955
0.13950000 0.13949800 11328.77038685 0 288.89795251 0 3444.77049536 0 -46.07649222 0 849.54686704 0 20506
0.14050000 0.14048300 11169.50079868 0 124.73271000 0 3958.18200209 0 -38.18078002 0 900.66730290 0 21447
0.14150000 0.14148400 10976.44742460 0 82.36733228 0 3787.81012577 0 -126.28325933 0 578.83958665 0 21771
0.14250000 0.14249400 10949.50690721 0 80.42393275 0 3660.30572566 0 -64.05554429 0 151.59891637 0 22470
0.14350000 0.14350900 10924.58498767 0 27.57870486 0 3845.51762349 0 310.25627047 0 880.68540248 0 22519
0.14450000 0.14449900 10884.02448043 0 -130.73415667 0 3416.06647766 0 483.76806465 0 427.82184900 0 22218
0.14550000 0.14550500 11055.19492293 0 6.48510049 0 3171.66086171 0 401.21184929 0 727.83096262 0 23559
0.14650000 0.14650700 11050.68080577 0 57.57529065 0 2860.28659858 0 250.50355603 0 321.27204728 0 23044
0.14750000 0.14750500 10815.97998715 0 207.00720896 0 2797.73224780 0 -279.16209983 0 745.64786139 0 23649
0.14850000 0.14849900 10534.17485509 0 159.07549223 0 2888.49151242 0 -19.68432361 0 960.69951550 0 23640
0.14950000 0.14949500 10432.67931182 0 84.78177494 0 2839.22441558 0 80.66915912 0 234.04311064 0 24457
0.15050000 0.15050000 10300.02859632 0 94.06089213 0 3044.95502777 0 -39.37363825 0 76.50641108 0 24591
0.15150000 0.15149900 10110.63531723 0 139.52282113 0 2508.51819617 0 174.52220222 0 315.39814938 0 25020
0.15250000 0.15250500 9997.82675307 0 51.11489026 0 2597.52505168 0 -106.09339897 0 -206.78982150 0 25297
0.15350000 0.15350100 9983.09764352 0 24.41571731 0 2226.72415531 0 359.23166884 0 -402.67255992 0 25452
0.15450000 0.15450400 9975.41144403 0 -48.28408406 0 2118.69589703 0 264.91212999 0 -465.48866296 0 26061
0.15550000 0.15549900 9860.53991724 0 122.68749328 0 1904.70234312 0 -182.67977758 0 -860.98189110 0 26128
0.15650000 0.15649500 9692.58592185 0 268.47684069 0 1752.63094176 0 -132.32463431 0 -788.52199232 0 26331
0.15750000 0.15749700 9306.60117686 0 230.93092078 0 2188.44843464 0 -215.99884233 0 -634.17578646 0 27345
0.15850000 0.15849900 9181.98048795 0 54.76311767 0 1985.54607767 0 270.47991086 0 -524.07347436 0 26980
0.15950000 0.15949700 9286.12682729 0 -13.88884047 0 1820.34269913 0 516.47933181 0 -420.43511184 0 27777
0.16050000 0.16050000 8979.23340774 0 159.81749331 0 1738.29002410 0 -8.19107077 0 -45.71857929 0 28224
0.16150000 0.16150500 8911.12236728 0 147.96211289 0 1675.75785571 0 64.19629158 0 -11.19889247 0 28075
0.16250000 0.16249700 8792.59074549 0 0.71271477 0 1743.85780497 0 -35.86848728 0 205.56091688 0 28590
0.16350000 0.16349900 8610.19601168 0 4.77047908 0 1630.84959927 0 206.51475982 0 167.29074181 0 29163
0.16450000 0.16449100 8807.88550608 0 99.42481680 0 1651.75650551 0 -3.17286980 0 161.26933099 0 28996
0.16550000 0.16550500 8594.92343348 0 179.39567416 0 1574.26231244 0 -179.60640690 0 -21.62251027 0 30777
0.16650000 0.16650700 8485.06512771 0 134.67042247 0 1828.81637360 0 -7.54584039 0 172.67440881 0 29211
0.16750000 0.16749900 8275.97388284 0 14.20904332 0 1891.17108284 0 61.77619241 0 420.79890310 0 30922
0.16850000 0.16850800 8320.95977766 0 87.86268763 0 1865.48387071 0 122.61318226 0 -156.09306937 0 30867
0.16950000 0.16949900 8175.72055363 0 87.13699062 0 1717.99313369 0 -138.36379105 0 -80.83319792 0 30852
0.17050000 0.17049200 8126.30927122 0 78.88037087 0 2074.29783565 0 -196.33415014 0 -268.23394347 0 31257
0.17150000 0.17149500 8243.09957509 0 -11.22262763 0 1641.49714834 0 -2.95524943 0 -538.16151272 0 32608
0.17250000 0.17250900 8134.84949287 0 -72.36906188 0 2001.79468120 0 -60.05506047 0 -521.42046005 0 32361
0.17350000 0.17350400 8319.54010445 0 83.64060169 0 1736.97017167 0 80.89198126 0 -615.17656609 0 32508
0.17450000 0.17449800 8186.68974741 0 63.00443156 0 1805.14775931 0 127.99684926 0 -454.37417450 0 32791
0.17550000 0.17549800 8165.53883483 0 149.11005177 0 1796.58535526 0 82.45839101 0 -479.44138872 0 33633
0.17650000 0.17650100 7905.78300230 0 190.70204033 0 2081.57366085 0 -182.64650398 0 -90.90932852 0 33984
0.17750000 0.17750300 7754.93163261 0 157.78225867 0 2294.29172712 0 -15.80462292 0 302.10534983 0 34069
0.17850000 0.17849800 7667.61063903 0 0.19967149 0 2179.95257778 0 81.40528186 0 504.04610003 0 34536
