### header ###
fiducial parameters:
Omega_m = 0.31
Omega_nu = 0
Omega_de = 0.69
Omega_k = 0
H_0 = 100
w_de = -1
zeff = 0
beta = 0
fgrowth = 0
b_1 = 2
gamma = 0.55
Lx = 3500 Ly = 3500 Lz = 3500
nx = 700 ny = 700 nz = 700
xoffset = 1379.75464 yoffset = 22.6059522 zoffset = 368.141391
bins = 400 dk = 0.001
kx_ny = 0.628318531 ky_ny = 0.628318531 kz_ny = 0.628318531
############################
A(data) = 3.35063489 (not used)
A(ran) = 3.35821704 (used)
Ngal = 188497
weighted Ngal = 0
Nran = 9399747
weighted Nran = 0
SN(data) = 6569.46396
SN(ran) = 133.574368
SN(data+ran) = 6703.03833
############################
13 columns: k_central k_mean P_0(k) sigma^{lin}_{P_0(k)} P^img_1(k) sigma^{lin}_{P_1(k)} P_2(k) sigma^{lin}_{P_2(k)} P^img_3(k) sigma^{lin}_{P_3(k)} P_4(k) sigma^{lin}_{P_4(k)} N_modes
### header ###
0.00050000 0 0 0 0 0 0 0 0 0 0 0 0
0.00150000 0.00179520 28486.96297772 0 -3375.79434154 0 8032.59974821 0 21577.92366277 0 62728.81531597 0 3
0.00250000 0.00253879 16902.20776530 0 -982.55693733 0 21493.51965399 0 -12772.95514148 0 -53866.28348252 0 6
0.00350000 0.00331552 32114.00620373 0 -5152.47099828 0 -7134.67862567 0 50041.04056705 0 30628.22946055 0 7
0.00450000 0.00420575 41115.28891100 0 -8901.07374284 0 4429.12531571 0 20010.62662201 0 -3894.47416682 0 24
0.00550000 0.00557378 52073.39149584 0 3265.49238789 0 5577.65203329 0 809.54535613 0 23605.72720081 0 45
0.00650000 0.00659388 41241.61764424 0 -198.58344488 0 21676.19166773 0 -1331.57583201 0 -28185.28242073 0 40
0.00750000 0.00754703 45266.72392872 0 4619.51680253 0 28579.79629618 0 8803.31593294 0 18230.82224773 0 57
0.00850000 0.00846663 38937.42147825 0 1846.36264717 0 22772.55648606 0 -11775.41288796 0 -1934.31583897 0 75
0.00950000 0.00948925 37241.35564092 0 3353.64522123 0 33677.97588540 0 -1658.44449727 0 6803.06292812 0 112
0.01050000 0.01054430 40108.87369992 0 190.71756800 0 31844.37920592 0 4436.72278562 0 -9170.73401424 0 105
0.01150000 0.01145670 38003.87543112 0 -4508.60483304 0 17557.58659298 0 5996.65527160 0 -1559.37792613 0 144
0.01250000 0.01249090 49711.74292966 0 -5839.87011154 0 17000.69759421 0 21020.59101612 0 1573.82975576 0 169
0.01350000 0.01339930 60601.85647721 0 -9434.06121219 0 -435.97720612 0 15886.58686076 0 5489.33283199 0 180
0.01450000 0.01448870 60718.86860501 0 -3375.56142640 0 -9835.12998503 0 729.32827420 0 3913.97249106 0 267
0.01550000 0.01550050 71477.32964479 0 4154.97310955 0 -1679.56213626 0 -14348.68149192 0 4029.24330094 0 238
0.01650000 0.01653350 63307.77579667 0 1983.10601434 0 3617.13878713 0 -14962.69015497 0 -6459.92347693 0 315
0.01750000 0.01747870 67234.83590013 0 685.12874524 0 18051.92124096 0 -6131.20258178 0 -5132.04101350 0 297
0.01850000 0.01844180 57853.79060935 0 3552.54365611 0 23611.60553519 0 -8553.26489774 0 -10247.45632278 0 388
0.01950000 0.01947590 65761.81403343 0 -229.86616587 0 30929.79910557 0 9292.54863033 0 -7697.16867890 0 399
0.02050000 0.02045430 62677.90672198 0 941.11911641 0 36523.08972656 0 -1619.41457521 0 2482.24315060 0 462
0.02150000 0.02154770 61445.67474103 0 1519.41634353 0 29600.40823936 0 5032.91898638 0 1047.37943789 0 571
0.02250000 0.02255340 67200.00954171 0 -2551.40785477 0 38254.64739411 0 7228.65433741 0 14384.28423412 0 510
0.02350000 0.02348930 63089.05739285 0 -1365.74780981 0 31792.02875632 0 8380.56387006 0 12247.56514204 0 555
0.02450000 0.02439640 69189.43753831 0 669.43248332 0 29775.87097508 0 -170.92754529 0 7864.50156726 0 592
0.02550000 0.02547300 67947.55621602 0 1194.88792082 0 25721.59484262 0 1766.94967702 0 7351.51152601 0 837
0.02650000 0.02652900 65644.02552184 0 369.47106186 0 31137.20448850 0 3142.82374964 0 8778.88202606 0 723
0.02750000 0.02749970 61464.97342372 0 3609.30840209 0 25423.68529259 0 4611.19840481 0 12517.85761167 0 826
0.02850000 0.02848090 59271.91105115 0 -404.47487943 0 21209.03045227 0 14246.08792014 0 16208.89704407 0 831
0.02950000 0.02946900 61990.69615907 0 -1741.91684551 0 14938.73316956 0 10810.45657107 0 17594.40936684 0 996
0.03050000 0.03053250 58290.45103320 0 410.06151533 0 9191.66310289 0 5070.24086411 0 20667.55821726 0 1041
0.03150000 0.03150510 58781.45832210 0 3083.91840265 0 9246.25397426 0 -5732.86224339 0 14257.29002906 0 1036
0.03250000 0.03246190 54511.56932097 0 2978.29693411 0 13397.94408951 0 -2279.18551688 0 21647.79820354 0 1059
0.03350000 0.03345080 52452.71043147 0 1589.96744732 0 17964.96625688 0 -3777.87241331 0 8247.81333379 0 1302
0.03450000 0.03451200 54243.05144286 0 -1354.72316004 0 16294.85382042 0 1995.43942535 0 15320.49216852 0 1339
0.03550000 0.03553350 52235.32297129 0 158.97899882 0 17108.61494051 0 4576.92660624 0 151.19519680 0 1365
0.03650000 0.03647120 54137.35233594 0 1097.15783891 0 19857.23536822 0 -7118.56311651 0 12292.81722559 0 1308
0.03750000 0.03744890 52014.38632808 0 1076.56814090 0 17583.20725793 0 2997.46252244 0 4394.83133475 0 1579
0.03850000 0.03847530 53567.48663674 0 -6.40289254 0 22851.08216045 0 3327.69182038 0 8493.82717330 0 1662
0.03950000 0.03950240 52144.70789222 0 543.37770265 0 13509.52153081 0 -6.05981964 0 1935.65787380 0 1683
0.04050000 0.04050350 50667.24954675 0 2562.36595736 0 23752.46373644 0 -85.90220766 0 4929.00556217 0 1822
0.04150000 0.04152450 47182.72820153 0 3128.71574712 0 20780.68842613 0 -3328.43493057 0 6049.53809865 0 1887
0.04250000 0.04250150 43087.96920021 0 2192.43017435 0 24720.72523002 0 -387.14488420 0 1275.58746982 0 1920
0.04350000 0.04349210 42521.20903616 0 2045.37199401 0 24880.10573016 0 -94.21239789 0 1736.50434140 0 2005
0.04450000 0.04448520 39427.87420730 0 69.54380128 0 23198.23662493 0 1893.83297011 0 -826.71452901 0 2151
0.04550000 0.04548030 38953.94736170 0 661.89601500 0 24308.24361551 0 3723.34808911 0 4176.91149711 0 2274
0.04650000 0.04648670 39359.44152213 0 -42.19845520 0 18815.99379872 0 1031.36596774 0 -1329.91215247 0 2311
0.04750000 0.04749250 38250.32182730 0 597.56707270 0 20579.16137758 0 -811.76692288 0 687.79063251 0 2568
0.04850000 0.04851840 37770.40573536 0 1121.66383857 0 19841.48586855 0 347.66576866 0 1226.10964023 0 2493
0.04950000 0.04949480 37661.37926935 0 -185.43815826 0 19807.43589392 0 2026.01785533 0 -2193.98294192 0 2644
0.05050000 0.05050630 35678.82781486 0 80.36548214 0 18179.80274177 0 2481.84386751 0 829.96979531 0 2829
0.05150000 0.05149060 36357.27633218 0 1349.01119362 0 19004.87688275 0 -1643.01664232 0 -3063.06695239 0 2784
0.05250000 0.05249300 35675.38954381 0 743.45291352 0 21513.92745638 0 -599.86184135 0 -146.11875595 0 3055
0.05350000 0.05348950 33923.86772174 0 430.45711740 0 17049.49886078 0 1332.09711827 0 -3436.08608815 0 3009
0.05450000 0.05448610 34236.30673977 0 -415.31763356 0 18628.55257030 0 2494.92038871 0 400.69832687 0 3336
0.05550000 0.05550870 35165.19448419 0 -453.00662991 0 14086.15286015 0 2040.44750256 0 -2996.94123618 0 3349
0.05650000 0.05647670 34319.93436476 0 561.21567470 0 16744.82368061 0 3444.55976262 0 -1140.35250543 0 3324
0.05750000 0.05747970 33313.51915368 0 1394.89547539 0 12323.20710523 0 -1914.96170029 0 -525.31347018 0 3639
0.05850000 0.05849280 32371.32197293 0 1313.19771867 0 17604.05870819 0 299.32367764 0 2292.81659792 0 3846
0.05950000 0.05951020 29573.78936668 0 461.08878513 0 13562.09380435 0 561.63714018 0 2361.65965738 0 3787
0.06050000 0.06049470 30555.13847266 0 -205.24481777 0 16355.07901985 0 3191.75811058 0 4061.40777209 0 3930
0.06150000 0.06148310 30647.86087915 0 -695.32044612 0 12437.00278592 0 4303.79479020 0 6054.42931650 0 4083
0.06250000 0.06249100 31147.29747772 0 -379.66054450 0 11233.38609310 0 2677.60349365 0 7317.07335948 0 4303
0.06350000 0.06350600 31684.33323396 0 -203.76525209 0 8156.04477024 0 2654.13452091 0 9494.40841478 0 4470
0.06450000 0.06451750 31838.16813563 0 -162.19211857 0 9146.86575841 0 -337.71474676 0 9059.02347858 0 4479
0.06550000 0.06550280 32772.71239049 0 -184.05064952 0 8150.88736366 0 -219.99610971 0 8423.61989661 0 4636
0.06650000 0.06648880 32115.89170721 0 6.91043681 0 9398.68029392 0 -599.14535002 0 5758.10580764 0 4653
0.06750000 0.06749660 31638.74841450 0 791.84713316 0 8756.18943711 0 -2581.75336962 0 3723.69191621 0 5220
0.06850000 0.06852730 31720.49053601 0 831.45934306 0 9879.19531051 0 -389.59382048 0 3380.44155306 0 5029
0.06950000 0.06949320 30504.67352654 0 337.38311997 0 11691.78526297 0 679.97688426 0 2582.06392314 0 5040
0.07050000 0.07048030 30213.19687074 0 61.73216036 0 9371.51795260 0 2242.73984370 0 2929.93931542 0 5475
0.07150000 0.07148790 29388.45546567 0 423.55950202 0 8745.14260495 0 905.98220448 0 1241.27130646 0 5509
0.07250000 0.07249820 28734.51849361 0 930.06673865 0 8735.70399634 0 363.03151291 0 4751.76823494 0 5916
0.07350000 0.07351270 27308.07965410 0 798.23677172 0 8275.44150539 0 -97.00371942 0 2585.03636392 0 5721
0.07450000 0.07449140 27020.81765314 0 556.39433139 0 8045.54317504 0 1014.37758137 0 3453.68781771 0 6028
0.07550000 0.07549160 25493.55983337 0 275.73048349 0 7890.05568503 0 -94.12100642 0 1416.98913971 0 6183
0.07650000 0.07648840 25712.94370900 0 577.79479590 0 7576.37445294 0 -592.13349531 0 2021.70337972 0 6330
0.07750000 0.07749960 24468.28958747 0 680.94958223 0 7899.78266475 0 -948.18753622 0 -422.83302862 0 6583
0.07850000 0.07848650 23571.23357830 0 635.61320559 0 8737.38985828 0 -260.75958585 0 -330.62747191 0 6549
0.07950000 0.07947320 23684.69652308 0 47.69125958 0 8335.28960412 0 392.23907095 0 -409.25407619 0 6828
0.08050000 0.08048110 22913.30377533 0 243.95420424 0 9089.29135505 0 260.27490054 0 -1463.72744365 0 7147
0.08150000 0.08149960 22819.58316112 0 833.21618866 0 8877.61586130 0 -1047.43267564 0 -1278.70409616 0 7386
0.08250000 0.08250610 21819.15719639 0 281.81289590 0 9706.30573248 0 -228.29232502 0 176.35224972 0 7227
0.08350000 0.08350160 22108.63743674 0 7.33808009 0 9886.74841563 0 582.20798316 0 -392.85130503 0 7798
0.08450000 0.08449610 22424.29290189 0 -296.18154154 0 9433.89484423 0 1263.83080105 0 -297.23964173 0 7371
0.08550000 0.08548940 22464.44303484 0 267.70045690 0 10397.81967981 0 -172.28621691 0 -1053.29215498 0 8256
0.08650000 0.08650700 21469.78449252 0 550.62469073 0 9438.20931985 0 -493.88545451 0 28.37605101 0 8037
0.08750000 0.08749060 21789.10005266 0 136.01800289 0 10983.34614910 0 243.60150417 0 -75.24345648 0 8155
0.08850000 0.08849210 21297.20546801 0 193.31734457 0 10252.87991809 0 -424.58765597 0 -35.71176867 0 8718
0.08950000 0.08949900 21076.04700086 0 672.58016502 0 10889.98045319 0 333.55222054 0 -5.64595162 0 8571
0.09050000 0.09049190 20323.62019989 0 142.62281068 0 10166.34639950 0 648.89158658 0 317.99681682 0 8932
0.09150000 0.09150830 20035.13816727 0 160.35985284 0 9657.48228351 0 990.05125910 0 201.99953354 0 9285
0.09250000 0.09250820 19840.93130871 0 256.91426787 0 9904.66069870 0 814.63510641 0 -261.09675824 0 9204
0.09350000 0.09350330 19390.73962458 0 -36.82332843 0 7791.90968323 0 888.44258562 0 172.80528493 0 9349
0.09450000 0.09448040 19339.72011862 0 -3.52362891 0 7848.87407076 0 898.72745255 0 594.96507789 0 9564
0.09550000 0.09549270 19116.67614799 0 221.79399273 0 6818.73478940 0 754.01062389 0 587.14911140 0 10155
0.09650000 0.09649430 18842.16902352 0 272.83235373 0 6110.73932341 0 -29.54107034 0 -64.74830046 0 9913
0.09750000 0.09749140 18445.32599671 0 143.64874639 0 6451.50525845 0 -58.36165652 0 124.72494616 0 10476
0.09850000 0.09850240 18443.66231717 0 256.69022569 0 5734.85865884 0 -440.61221732 0 -450.87601098 0 10575
0.09950000 0.09950330 17917.38502198 0 136.03463969 0 6396.88111348 0 944.48307644 0 263.95939617 0 10882
0.10050000 0.10051200 17853.49972755 0 18.48347971 0 5700.84195780 0 637.08722566 0 -246.12253324 0 10875
0.10150000 0.10150300 17887.77152612 0 -163.19143542 0 5062.28847590 0 553.83448313 0 -292.04119772 0 11118
0.10250000 0.10250800 17790.61264086 0 373.31083424 0 4804.61778839 0 369.29582095 0 98.01290743 0 11575
0.10350000 0.10349800 17405.08263494 0 204.33423050 0 4774.86010698 0 277.52725740 0 -393.11527551 0 11364
0.10450000 0.10450100 16822.12932334 0 510.84389464 0 4623.09925914 0 -721.27939258 0 857.86748300 0 12093
0.10550000 0.10551000 16361.95556196 0 415.12131938 0 5093.19964179 0 88.78736072 0 -422.47145560 0 12067
0.10650000 0.10649700 15821.92518255 0 206.94509826 0 5377.25628683 0 292.28964054 0 434.23477908 0 12054
0.10750000 0.10749900 15748.94510663 0 61.56956341 0 4312.10209671 0 386.31748090 0 388.96162226 0 12807
0.10850000 0.10850100 15342.34182651 0 74.09884496 0 4161.53909814 0 806.34443669 0 52.38283589 0 12736
0.10950000 0.10950300 15637.47857730 0 123.98959980 0 4345.66405868 0 -78.07836642 0 377.36466673 0 12933
0.11050000 0.11050200 15104.10291606 0 153.50882048 0 3699.49092447 0 81.11203061 0 -341.03434200 0 13428
0.11150000 0.11150900 14874.95878711 0 226.79501344 0 4223.74962182 0 62.90771632 0 456.92071332 0 13453
0.11250000 0.11250000 14871.07686818 0 24.58707631 0 3955.28719969 0 -245.28292963 0 -676.18036755 0 13668
0.11350000 0.11349100 14875.06969908 0 -45.78534830 0 3906.82976022 0 512.40220781 0 593.18383166 0 13791
0.11450000 0.11448600 14918.65810308 0 64.41634093 0 3758.38518027 0 300.65794863 0 -137.85692335 0 14205
0.11550000 0.11549300 14851.88909746 0 144.87543278 0 3151.37506249 0 286.96364776 0 851.39909693 0 14776
0.11650000 0.11649800 14413.89772997 0 205.07955893 0 3704.20468318 0 -47.02013125 0 476.16948562 0 14553
0.11750000 0.11747300 14388.27706502 0 380.71088085 0 4051.28150928 0 -178.94426244 0 1692.31701275 0 14568
0.11850000 0.11849100 13795.56350011 0 191.53720746 0 4025.02864610 0 -14.75517386 0 940.80301730 0 16015
0.11950000 0.11950300 13890.83688189 0 149.26200117 0 5052.39512822 0 -307.28604793 0 1381.87441017 0 15270
0.12050000 0.12050700 13525.93650230 0 161.09519919 0 4701.95766944 0 -142.58399149 0 1402.59276607 0 15999
0.12150000 0.12150000 13710.27219558 0 42.36726322 0 5166.43481524 0 137.87245102 0 1047.80312161 0 15670
0.12250000 0.12250700 13563.53565995 0 29.22142204 0 5471.53146089 0 -129.32668378 0 1243.99974091 0 16887
0.12350000 0.12352200 13582.94525461 0 104.01823602 0 5306.58317988 0 143.88498889 0 997.24500944 0 16407
0.12450000 0.12449800 13458.72384879 0 13.12975895 0 5224.44177528 0 39.70171586 0 1119.39014320 0 16306
0.12550000 0.12549900 13584.60893415 0 -152.23776931 0 4979.14886357 0 724.58789663 0 1592.70697296 0 17523
0.12650000 0.12650100 13708.16486816 0 18.57553665 0 4702.15731099 0 311.64045185 0 1163.00072960 0 17154
0.12750000 0.12750600 13635.29570421 0 288.58074428 0 4654.66480565 0 -153.03522637 0 1012.61186282 0 18007
0.12850000 0.12850300 13063.65541349 0 325.87822137 0 4598.11079242 0 -210.45213473 0 1035.44309173 0 17496
0.12950000 0.12949900 12850.14987224 0 351.33806397 0 5028.91506428 0 -356.76165928 0 883.63344263 0 18405
0.13050000 0.13049000 12363.02450228 0 72.65188740 0 4509.11502810 0 392.59177102 0 1270.82934633 0 18100
0.13150000 0.13148800 12363.80088606 0 88.37543367 0 4951.65378634 0 389.27661225 0 451.83761776 0 19059
0.13250000 0.13249300 12184.12349550 0 150.43877717 0 3770.25276100 0 273.56326361 0 232.50587075 0 18957
0.13350000 0.13349100 12313.44685192 0 -59.62949124 0 4030.00859353 0 382.02075121 0 1042.78102764 0 19468
0.13450000 0.13450700 11966.95785925 0 32.95128066 0 3428.57734782 0 256.82221093 0 807.42250104 0 19953
0.13550000 0.13551000 11988.03113346 0 121.35654965 0 3613.86688403 0 141.78098883 0 581.95732211 0 19956
0.13650000 0.13649900 11886.65759335 0 199.78462151 0 3357.32749862 0 -30.77308049 0 362.32611278 0 19723
0.13750000 0.13749600 11399.86495929 0 249.41218225 0 3607.07907150 0 -414.84847593 0 -16.33200933 0 20946
0.13850000 0.13851100 11117.15034908 0 513.07322523 0 3900.74069310 0 -666.33360290 0 132.07286414 0 20955
0.13950000 0.13949800 10808.94816828 0 225.59383681 0 4719.44848703 0 -395.70063352 0 91.82557230 0 20506
0.14050000 0.14048300 10396.77710729 0 70.19640731 0 4543.08736436 0 221.25385144 0 -18.72748605 0 21447
0.14150000 0.14148400 10730.06757559 0 -114.22934649 0 4454.64615989 0 519.62368614 0 -22.83056345 0 21771
0.14250000 0.14249400 10705.17892964 0 -98.53818652 0 3710.11629115 0 849.38604469 0 -15.29398421 0 22470
0.14350000 0.14350900 10679.11461681 0 -34.40023463 0 3296.27045942 0 298.87781152 0 718.36018954 0 22519
0.14450000 0.14449900 10642.24747815 0 2.90318735 0 3322.32368105 0 261.77664861 0 297.78089214 0 22218
0.14550000 0.14550500 10795.92710307 0 81.07010589 0 2922.57476064 0 145.92244177 0 518.14522959 0 23559
0.14650000 0.14650700 10451.72289698 0 72.17696235 0 2865.00035729 0 -183.01584084 0 164.81407753 0 23044
0.14750000 0.14750500 10575.98866758 0 75.77505755 0 2918.57083855 0 -257.66846926 0 42.40242232 0 23649
0.14850000 0.14849900 10455.63808950 0 -25.48668329 0 2892.67289367 0 28.43816171 0 -837.69037751 0 23640
0.14950000 0.14949500 10590.90632748 0 9.14205218 0 2977.69800948 0 -92.05715649 0 -702.15927816 0 24457
0.15050000 0.15050000 10450.45850052 0 60.21466279 0 2908.57767010 0 -303.48953121 0 -1350.30886366 0 24591
0.15150000 0.15149900 10432.26893753 0 186.93879720 0 3098.80278895 0 -167.99503282 0 -1086.65891188 0 25020
0.15250000 0.15250500 10215.46931078 0 209.83768242 0 3298.12268931 0 -70.55598391 0 -1486.90804527 0 25297
0.15350000 0.15350100 10089.85041415 0 160.51291135 0 3597.85119564 0 -225.34539400 0 -1335.25810940 0 25452
0.15450000 0.15450400 9949.25840163 0 155.18580946 0 3544.18089361 0 197.20148174 0 -1256.22223995 0 26061
0.15550000 0.15549900 9624.82979970 0 89.10800723 0 3467.87345860 0 318.36837192 0 -1020.41341075 0 26128
0.15650000 0.15649500 9600.47353120 0 129.61949137 0 3316.72262659 0 313.65794058 0 -541.41677903 0 26331
0.15750000 0.15749700 9474.57735464 0 8.76500694 0 2993.43641795 0 372.90045996 0 -570.71084841 0 27345
0.15850000 0.15849900 9322.40613251 0 107.39938741 0 3206.75340885 0 246.47966978 0 -78.96788042 0 26980
0.15950000 0.15949700 9213.32421053 0 79.97551566 0 2793.10721867 0 43.72449299 0 -226.49666024 0 27777
0.16050000 0.16050000 9042.46432154 0 158.18154176 0 2884.03285125 0 -55.59872845 0 -471.94041222 0 28224
0.16150000 0.16150500 8934.08114496 0 202.84357363 0 3039.03232860 0 -326.60136741 0 -168.64719520 0 28075
0.16250000 0.16249700 8772.36040226 0 -112.95940444 0 2776.60351761 0 301.87687118 0 -330.58754360 0 28590
0.16350000 0.16349900 8997.21223799 0 -136.56590802 0 2799.42920093 0 581.16208329 0 191.61595496 0 29163
0.16450000 0.16449100 9201.31244423 0 -116.79474034 0 2099.18648160 0 426.35115629 0 -139.04922702 0 28996
0.16550000 0.16550500 9165.47678689 0 69.40482858 0 2091.16754621 0 186.72140974 0 455.92139647 0 30777
0.16650000 0.16650700 9073.02056913 0 221.20726841 0 2104.98717761 0 -394.69022548 0 65.19571934 0 29211
0.16750000 0.16749900 8822.31515331 0 210.73274202 0 2494.93147991 0 -101.65547833 0 645.91803667 0 30922
0.16850000 0.16850800 8739.59700647 0 163.04503162 0 2597.00376543 0 -115.55696276 0 295.26429956 0 30867
0.16950000 0.16949900 8441.44345011 0 113.73689734 0 2569.49759699 0 36.79992600 0 383.41491466 0 30852
0.17050000 0.17049200 8388.49407588 0 118.61147840 0 2706.19659938 0 170.24876404 0 199.81456774 0 31257
0.17150000 0.17149500 8156.59933009 0 132.90914039 0 2462.51191123 0 135.46677041 0 449.80127400 0 32608
0.17250000 0.17250900 7981.82424858 0 107.92433376 0 2459.29546412 0 178.04587549 0 958.19512323 0 32361
0.17350000 0.17350400 7999.29288377 0 23.69966964 0 2191.14359550 0 233.54844326 0 482.35282792 0 32508
0.17450000 0.17449800 7871.69975408 0 9.35776487 0 2187.33931495 0 194.04936357 0 648.23720596 0 32791
0.17550000 0.17549800 7881.58201056 0 -41.22830821 0 1684.81936362 0 82.80554547 0 697.46992009 0 33633
0.17650000 0.17650100 7967.26150698 0 -46.40590077 0 1632.48000522 0 253.52590720 0 532.78450044 0 33984
0.17750000 0.17750300 8081.45647076 0 -17.21486861 0 1401.22854885 0 161.41684391 0 493.97640232 0 34069
0.17850000 0.17849800 8059.64008636 0 10.37924192 0 1238.44305124 0 66.75314522 0 441.26327059 0 34536
