### header ###
fiducial parameters:
Omega_m = 0.31
Omega_nu = 0
Omega_de = 0.69
Omega_k = 0
H_0 = 100
w_de = -1
zeff = 0
beta = 0
fgrowth = 0
b_1 = 2
gamma = 0.55
Lx = 3500 Ly = 3500 Lz = 3500
nx = 700 ny = 700 nz = 700
xoffset = 1379.75464 yoffset = 22.6059522 zoffset = 368.141391
bins = 400 dk = 0.001
kx_ny = 0.628318531 ky_ny = 0.628318531 kz_ny = 0.628318531
############################
A(data) = 3.3454519 (not used)
A(ran) = 3.3420429 (used)
Ngal = 187503
weighted Ngal = 0
Nran = 9399747
weighted Nran = 0
SN(data) = 6715.00278
SN(ran) = 132.931036
SN(data+ran) = 6847.93381
############################
13 columns: k_central k_mean P_0(k) sigma^{lin}_{P_0(k)} P^img_1(k) sigma^{lin}_{P_1(k)} P_2(k) sigma^{lin}_{P_2(k)} P^img_3(k) sigma^{lin}_{P_3(k)} P_4(k) sigma^{lin}_{P_4(k)} N_modes
### header ###
0.00050000 0 0 0 0 0 0 0 0 0 0 0 0
0.00150000 0.00179520 22653.32611887 0 -15182.18494257 0 -28797.62740424 0 42452.33270311 0 -541.64193033 0 3
0.00250000 0.00253879 29799.05157670 0 -10975.21630174 0 1433.42629359 0 -32792.23289711 0 -2816.27672909 0 6
0.00350000 0.00331552 44909.58738699 0 -12813.32709837 0 -46853.20874019 0 25110.58080275 0 1381.50840067 0 7
0.00450000 0.00420575 47432.28013286 0 -8215.72650102 0 -24144.09390068 0 -13297.67966910 0 -3148.62444565 0 24
0.00550000 0.00557378 54046.62634490 0 1976.36256660 0 -28499.05238240 0 -29418.95625728 0 -8855.72183852 0 45
0.00650000 0.00659388 51919.22385826 0 -4306.41231268 0 -9067.90752734 0 -20133.18434829 0 -22073.25651847 0 40
0.00750000 0.00754703 47320.81360353 0 795.02365197 0 -7416.98286159 0 -29468.42299567 0 -27435.73933097 0 57
0.00850000 0.00846663 57193.86439093 0 -1693.48158843 0 9256.57987862 0 -21886.03711399 0 -34999.82473769 0 75
0.00950000 0.00948925 58468.90839210 0 -4325.06770594 0 30515.87563546 0 -19990.77337948 0 -26106.68120067 0 112
0.01050000 0.01054430 75684.88611907 0 -471.19175643 0 24291.49590812 0 -9492.71146165 0 -11442.12241966 0 105
0.01150000 0.01145670 77275.36376144 0 -7056.44132240 0 43819.32272698 0 13269.39711688 0 -21905.00306077 0 144
0.01250000 0.01249090 90470.22803483 0 -1523.58663358 0 43166.05122673 0 10211.60957424 0 6211.91322197 0 169
0.01350000 0.01339930 91037.98640661 0 6453.26875876 0 48871.36293689 0 914.16639870 0 9268.34763859 0 180
0.01450000 0.01448870 88046.35785377 0 4792.39528936 0 64804.53282483 0 18833.07424202 0 41743.16157024 0 267
0.01550000 0.01550050 78083.69019503 0 4077.66746682 0 56270.41133302 0 25079.74727523 0 29543.17766310 0 238
0.01650000 0.01653350 75413.70635368 0 7430.07047399 0 66614.50525481 0 8556.40370648 0 62817.10124368 0 315
0.01750000 0.01747870 71241.08714979 0 3335.93257971 0 57072.85943222 0 13311.65457726 0 45836.70053989 0 297
0.01850000 0.01844180 65537.88276705 0 1280.44541408 0 57279.93207925 0 23204.78043113 0 71027.13796066 0 388
0.01950000 0.01947590 65877.27339366 0 775.60518435 0 51232.67876717 0 17319.56950647 0 54099.30953041 0 399
0.02050000 0.02045430 69549.79052716 0 -1418.12044180 0 37877.21396197 0 14628.40147895 0 71230.32868875 0 462
0.02150000 0.02154770 67961.42021220 0 -2422.43941666 0 32920.66895778 0 16784.64107765 0 53148.35030407 0 571
0.02250000 0.02255340 72658.54211978 0 -2014.21682178 0 19241.67393759 0 6083.47716131 0 49890.42211249 0 510
0.02350000 0.02348930 71109.98920186 0 1282.59710629 0 25827.40486151 0 1422.01345193 0 46088.80344652 0 555
0.02450000 0.02439640 67810.57993371 0 5786.06671515 0 20584.04150424 0 -2814.00303372 0 31658.71256901 0 592
0.02550000 0.02547300 63970.80755023 0 2660.88905985 0 29811.69554122 0 382.85924570 0 35317.14388238 0 837
0.02650000 0.02652900 61849.61613389 0 -1426.91576098 0 19419.35491270 0 5398.35174343 0 21382.05312466 0 723
0.02750000 0.02749970 64971.23351496 0 -2493.99981937 0 23066.58411716 0 15406.33803290 0 34149.46266767 0 826
0.02850000 0.02848090 67558.58793904 0 -4379.48111817 0 1625.13763284 0 8634.61882736 0 22450.35721471 0 831
0.02950000 0.02946900 72715.55087209 0 -811.93883643 0 5091.35850310 0 5063.13140686 0 23980.60965766 0 996
0.03050000 0.03053250 68708.19050273 0 5390.15534888 0 8079.93697678 0 -12223.49724467 0 19748.65255010 0 1041
0.03150000 0.03150510 59213.79317914 0 7502.96182034 0 16117.28375728 0 -10175.90701127 0 15424.74941983 0 1036
0.03250000 0.03246190 57184.76960943 0 2819.75936493 0 28102.65300347 0 -4722.82021090 0 14479.89035181 0 1059
0.03350000 0.03345080 52191.29091940 0 1370.59466288 0 26610.77610196 0 1246.52853381 0 1497.30049681 0 1302
0.03450000 0.03451200 52735.75777759 0 2476.91937607 0 32929.76373927 0 445.24057381 0 4558.93668479 0 1339
0.03550000 0.03553350 47444.81318541 0 2618.93106179 0 27181.52909692 0 -2422.16213673 0 -733.11037236 0 1365
0.03650000 0.03647120 47210.78892980 0 572.96568875 0 33435.85505602 0 3970.45995712 0 5251.22701591 0 1308
0.03750000 0.03744890 44259.75415779 0 -196.49829985 0 25647.06199913 0 6209.97226251 0 156.72526760 0 1579
0.03850000 0.03847530 47413.20327411 0 -1205.15836920 0 20688.29875555 0 6530.37475995 0 849.51137521 0 1662
0.03950000 0.03950240 46155.57245215 0 -1483.97996928 0 11367.70048814 0 5370.40192712 0 -3222.01489585 0 1683
0.04050000 0.04050350 46997.28338855 0 324.86892245 0 7486.83521997 0 1981.86380028 0 -2791.67645426 0 1822
0.04150000 0.04152450 46554.96645426 0 1084.39076211 0 4546.68091217 0 164.80409545 0 -6418.10966444 0 1887
0.04250000 0.04250150 42878.90013774 0 1881.37755593 0 3375.68342957 0 -731.27034279 0 -7981.71333661 0 1920
0.04350000 0.04349210 40985.52190671 0 1451.98186608 0 3931.30803189 0 -2841.46483736 0 -8396.95665915 0 2005
0.04450000 0.04448520 38435.43390437 0 1135.36146680 0 4398.91289523 0 341.82070787 0 -8464.63514293 0 2151
0.04550000 0.04548030 37510.76081480 0 782.81446237 0 4167.08469661 0 2227.61145107 0 -8532.20271474 0 2274
0.04650000 0.04648670 36000.13979045 0 1104.07763669 0 7238.43677312 0 -1934.20492700 0 -5735.26903312 0 2311
0.04750000 0.04749250 34956.45815762 0 1477.05906238 0 6582.78066553 0 727.30745812 0 -4061.66286962 0 2568
0.04850000 0.04851840 33969.11980529 0 -348.88801856 0 9879.48368163 0 -1282.03145525 0 -985.89871497 0 2493
0.04950000 0.04949480 34655.22124851 0 111.29905226 0 7549.72230667 0 1303.10472945 0 -2296.26596018 0 2644
0.05050000 0.05050630 34616.40205919 0 286.38246904 0 12497.22798535 0 -2245.77883167 0 -808.35748894 0 2829
0.05150000 0.05149060 35161.20165329 0 -88.31831400 0 10925.19500350 0 -1684.45335412 0 -2851.72419454 0 2784
0.05250000 0.05249300 35270.44994323 0 -257.59194000 0 12858.24644601 0 1712.12589050 0 2151.82530232 0 3055
0.05350000 0.05348950 35034.54018414 0 -235.76557353 0 11389.77197007 0 -3.29668083 0 -3090.73948877 0 3009
0.05450000 0.05448610 36412.62140495 0 55.04516681 0 11715.18768853 0 2351.34484422 0 2073.13325997 0 3336
0.05550000 0.05550870 36144.21443881 0 89.71935400 0 11666.27550999 0 2124.99569690 0 -946.57487619 0 3349
0.05650000 0.05647670 36511.66579370 0 -531.26611558 0 7803.96581431 0 1548.58619150 0 1566.90884886 0 3324
0.05750000 0.05747970 35254.36770765 0 526.83185504 0 8825.99743070 0 1766.94967702 0 2078.60122007 0 3639
0.05850000 0.05849280 34219.66994435 0 2183.73467594 0 8441.43235891 0 -2675.99527009 0 1601.28046820 0 3846
0.05950000 0.05951020 31614.45869318 0 1644.34758595 0 10054.90205256 0 -1204.45962379 0 2496.48424748 0 3787
0.06050000 0.06049470 30015.77356507 0 1727.52047187 0 12577.08460338 0 1569.10490586 0 4072.96479931 0 3930
0.06150000 0.06148310 28105.64762664 0 -153.88370294 0 8667.97005658 0 2037.80779769 0 3313.16235237 0 4083
0.06250000 0.06249100 28433.72523237 0 -471.17733787 0 9794.19237710 0 3674.05880987 0 4819.42453632 0 4303
0.06350000 0.06350600 28252.60598621 0 -189.46648099 0 6213.12216244 0 273.77177811 0 2985.91658642 0 4470
0.06450000 0.06451750 29023.33326214 0 411.73406783 0 7720.78183720 0 -1236.62409494 0 1527.64601166 0 4479
0.06550000 0.06550280 28069.71214853 0 378.45936787 0 6508.63601393 0 -2260.69649156 0 2479.71435770 0 4636
0.06650000 0.06648880 28037.99132526 0 -344.00567367 0 7324.89265333 0 -521.58128241 0 -2079.16687111 0 4653
0.06750000 0.06749660 28894.78628951 0 -613.55836046 0 6744.53468182 0 -71.06518077 0 -3876.75043410 0 5220
0.06850000 0.06852730 29931.70229220 0 -290.49730311 0 8093.57914903 0 56.20330959 0 -6706.52514988 0 5029
0.06950000 0.06949320 30302.25918224 0 276.00110870 0 5423.59530768 0 348.11052566 0 -4830.27172694 0 5040
0.07050000 0.07048030 29639.78198852 0 359.81617492 0 8459.65519550 0 -645.97792914 0 -3465.55539844 0 5475
0.07150000 0.07148790 29360.50564937 0 157.05800351 0 6886.77928268 0 111.71164478 0 -3766.50393643 0 5509
0.07250000 0.07249820 29026.77153319 0 843.32026908 0 9007.24977123 0 590.06720532 0 -3664.44274212 0 5916
0.07350000 0.07351270 27988.30276293 0 1080.27149156 0 8771.47310650 0 -1637.28249350 0 -1947.17053623 0 5721
0.07450000 0.07449140 26792.11717207 0 707.51854452 0 10605.76853139 0 -528.77170539 0 -747.20950192 0 6028
0.07550000 0.07549160 26844.24579772 0 362.83741696 0 11141.77280631 0 1270.81825513 0 142.92449123 0 6183
0.07650000 0.07648840 25386.97343070 0 -16.39034903 0 9789.33443283 0 2025.90694337 0 179.54762356 0 6330
0.07750000 0.07749960 26073.51852179 0 -20.59036349 0 9131.49335944 0 1071.69577808 0 3239.89390533 0 6583
0.07850000 0.07848650 26534.80140287 0 -407.00699969 0 8432.99195804 0 2469.61027728 0 3604.40609304 0 6549
0.07950000 0.07947320 25489.01244262 0 372.30486268 0 7929.80653489 0 1482.48265769 0 4516.64595083 0 6828
0.08050000 0.08048110 25850.91819904 0 598.48653292 0 6711.73801244 0 -520.35459602 0 5916.64337682 0 7147
0.08150000 0.08149960 25166.48043536 0 365.93186091 0 7696.74721342 0 -204.48507078 0 4938.84345386 0 7386
0.08250000 0.08250610 23670.38887902 0 932.23950413 0 8600.74631188 0 -941.25553813 0 5020.44138981 0 7227
0.08350000 0.08350160 23282.64063371 0 579.94537899 0 8667.54859110 0 -472.31862204 0 4184.45351103 0 7798
0.08450000 0.08449610 22919.18210972 0 128.12661627 0 9666.46615304 0 543.03276642 0 3069.21147550 0 7371
0.08550000 0.08548940 22442.59337685 0 233.04601204 0 8804.59142059 0 137.27019903 0 1392.31122650 0 8256
0.08650000 0.08650700 21998.28002710 0 632.07622288 0 9720.21409345 0 -804.37020364 0 1952.36121640 0 8037
0.08750000 0.08749060 21170.98764674 0 647.60168037 0 9440.12809692 0 -290.55941381 0 1259.74924058 0 8155
0.08850000 0.08849210 20488.10265063 0 233.17023344 0 10001.86394876 0 610.16778155 0 2194.50422818 0 8718
0.08950000 0.08949900 20264.06047228 0 -24.48570277 0 8767.99047066 0 1712.10370811 0 1939.53979273 0 8571
0.09050000 0.09049190 20295.89220752 0 -57.16846555 0 8037.76824598 0 718.32691595 0 2337.53630402 0 8932
0.09150000 0.09150830 20365.21218845 0 292.36395156 0 7562.80991907 0 650.72828879 0 2415.23013864 0 9285
0.09250000 0.09250820 19425.34415906 0 429.77944526 0 7906.63702446 0 -348.80816194 0 1902.02936465 0 9204
0.09350000 0.09350330 19062.10745900 0 578.82849545 0 7204.32025131 0 -827.78482951 0 2958.02222609 0 9349
0.09450000 0.09448040 18599.82637020 0 148.18171859 0 8174.10123887 0 1051.48983548 0 2867.85079490 0 9564
0.09550000 0.09549270 18447.10058822 0 -145.51983132 0 7905.30608083 0 844.81979891 0 2850.08269739 0 10155
0.09650000 0.09649430 18606.25926443 0 9.69574691 0 6958.14004385 0 811.08925075 0 2499.78942418 0 9913
0.09750000 0.09749140 18567.55098708 0 138.67212632 0 6937.32186717 0 635.20837690 0 3666.46133996 0 10476
0.09850000 0.09850240 18685.45041064 0 12.05247099 0 6040.78714426 0 106.90283452 0 3439.16944090 0 10575
0.09950000 0.09950330 18017.42761845 0 248.13447637 0 6703.77453304 0 204.54052676 0 3500.21538890 0 10882
0.10050000 0.10051200 17714.74885373 0 665.10248003 0 6050.51412398 0 -697.74609089 0 2246.46648588 0 10875
0.10150000 0.10150300 17143.21947499 0 651.17748227 0 6914.36308949 0 -474.70322938 0 2617.73321252 0 11118
0.10250000 0.10250800 16182.38908337 0 246.99208308 0 6777.29807761 0 529.49041495 0 2902.13368467 0 11575
0.10350000 0.10349800 16134.47511255 0 -66.19170883 0 6200.62238348 0 1245.34177574 0 2258.32297542 0 11364
0.10450000 0.10450100 15866.51179428 0 -45.46348176 0 5564.54223850 0 1299.57772882 0 2682.46143791 0 12093
0.10550000 0.10551000 15963.55976758 0 302.06209417 0 5172.74570630 0 58.06019778 0 2225.96995392 0 12067
0.10650000 0.10649700 15280.12021163 0 484.44906414 0 5091.23649993 0 -782.68691360 0 2064.53758234 0 12054
0.10750000 0.10749900 14444.50943355 0 449.44746481 0 5645.34160827 0 -981.05962574 0 1957.72935572 0 12807
0.10850000 0.10850100 14446.94949688 0 53.23109063 0 5212.45219138 0 436.02711651 0 1594.17101096 0 12736
0.10950000 0.10950300 14736.98429707 0 -365.27526205 0 5665.96014339 0 752.10737450 0 1426.54975148 0 12933
0.11050000 0.11050200 14765.59958520 0 17.44833830 0 5098.60105470 0 808.27541408 0 520.12722649 0 13428
0.11150000 0.11150900 14811.07349269 0 122.59987283 0 4859.25302456 0 -322.76824975 0 1486.38675902 0 13453
0.11250000 0.11250000 14401.80832530 0 329.17674335 0 5059.38258230 0 -655.91453248 0 1104.31387918 0 13668
0.11350000 0.11349100 14160.90752758 0 530.42983933 0 5657.35337456 0 -397.95658298 0 1417.13332527 0 13791
0.11450000 0.11448600 14094.69308180 0 81.33962197 0 6427.70354980 0 118.93534135 0 983.23239122 0 14205
0.11550000 0.11549300 13573.29591327 0 -41.86727206 0 6313.33112687 0 399.99292674 0 1759.98440533 0 14776
0.11650000 0.11649800 13771.82833864 0 100.48757529 0 5379.47452622 0 221.11188412 0 1125.40157194 0 14553
0.11750000 0.11747300 13843.47747092 0 -149.16550776 0 5607.12134358 0 186.51511348 0 1031.69093981 0 14568
0.11850000 0.11849100 14189.30099177 0 -238.65815769 0 5175.45195836 0 1026.48916844 0 2390.68531980 0 16015
0.11950000 0.11950300 14269.26852177 0 -345.75364630 0 4578.40173544 0 922.95395405 0 1705.48226353 0 15270
0.12050000 0.12050700 14759.72125082 0 -172.05330178 0 3658.55331654 0 375.09429871 0 1822.06183465 0 15999
0.12150000 0.12150000 14619.75034533 0 180.81312913 0 3858.12831442 0 11.79304789 0 1282.77456544 0 15670
0.12250000 0.12250700 14604.11175763 0 395.08507209 0 3525.38131478 0 -790.92878205 0 1734.98484741 0 16887
0.12350000 0.12352200 13929.54515924 0 301.77705041 0 4391.02705420 0 -428.94760549 0 836.39603482 0 16407
0.12450000 0.12449800 13667.57108733 0 391.34401136 0 4716.69787019 0 -475.33764585 0 521.70217645 0 16306
0.12550000 0.12549900 13463.04941560 0 68.77861960 0 4666.27728886 0 96.30907776 0 -146.23410440 0 17523
0.12650000 0.12650100 13131.97718670 0 110.48839667 0 4732.22554591 0 237.19301058 0 -272.03711491 0 17154
0.12750000 0.12750600 13156.26690801 0 240.99840025 0 4244.02432984 0 -118.41405510 0 -557.33597401 0 18007
0.12850000 0.12850300 12684.55830180 0 147.54064740 0 4370.25324231 0 75.03605110 0 -1000.06217347 0 17496
0.12950000 0.12949900 12617.12382436 0 285.49517329 0 4558.09375383 0 -437.61204855 0 -920.21442840 0 18405
0.13050000 0.13049000 12369.12466060 0 21.58790574 0 4218.05983779 0 512.42217197 0 -635.00762624 0 18100
0.13150000 0.13148800 12255.21806794 0 -124.74601944 0 3882.89495721 0 709.55267004 0 -704.34202572 0 19059
0.13250000 0.13249300 12546.91654768 0 17.34685385 0 3828.94737525 0 526.75976226 0 -283.51983111 0 18957
0.13350000 0.13349100 12269.85844791 0 302.94384432 0 3521.39957508 0 1.18617024 0 -371.50740562 0 19468
0.13450000 0.13450700 11962.85411638 0 184.22589043 0 3764.11932909 0 197.44881543 0 1209.68357755 0 19953
0.13550000 0.13551000 11703.98557961 0 -76.09725682 0 3184.27155264 0 413.58297036 0 1000.67218930 0 19956
0.13650000 0.13649900 11935.68068386 0 21.23376382 0 3400.39461637 0 443.21532125 0 1414.14979329 0 19723
0.13750000 0.13749600 11835.30535148 0 34.70646258 0 2992.83749331 0 69.04525198 0 722.01030246 0 20946
0.13850000 0.13851100 11788.27867642 0 168.30114985 0 3270.91598320 0 -234.92596992 0 903.80278428 0 20955
0.13950000 0.13949800 11545.27055128 0 160.56393086 0 2958.77642748 0 -169.90050045 0 848.00851803 0 20506
0.14050000 0.14048300 11388.21920250 0 82.62021157 0 3254.80047403 0 15.86928459 0 709.61810811 0 21447
0.14150000 0.14148400 11317.01371809 0 25.87720434 0 3066.17248753 0 24.20099174 0 -103.19127637 0 21771
0.14250000 0.14249400 11267.32515576 0 127.32583185 0 3016.80556992 0 73.04706675 0 -48.19801637 0 22470
0.14350000 0.14350900 10995.10281786 0 143.44799573 0 3164.20757736 0 -93.87211996 0 -111.02288145 0 22519
0.14450000 0.14449900 11096.63163473 0 76.53158809 0 2769.48296917 0 125.23957770 0 -625.02443986 0 22218
0.14550000 0.14550500 10920.10414410 0 -76.09537132 0 2741.03404900 0 228.33447157 0 -461.85407772 0 23559
0.14650000 0.14650700 10959.77735558 0 81.80112668 0 2698.97623017 0 32.34425945 0 -581.05228044 0 23044
0.14750000 0.14750500 10962.86070833 0 132.40338181 0 2605.03379202 0 52.03102312 0 -427.38818320 0 23649
0.14850000 0.14849900 10595.53135661 0 168.65717727 0 2926.48995317 0 -85.75025826 0 -761.59700260 0 23640
0.14950000 0.14949500 10551.71003746 0 271.66445069 0 3053.05160154 0 -429.91919435 0 -541.70847751 0 24457
0.15050000 0.15050000 10297.27797947 0 217.76012440 0 3411.80745803 0 -223.46765435 0 -220.55177867 0 24591
0.15150000 0.15149900 10119.67464274 0 122.61429138 0 3423.88577151 0 94.29635825 0 -111.04284561 0 25020
0.15250000 0.15250500 9978.90517107 0 -29.34653074 0 3596.78644073 0 387.60849623 0 -12.62821502 0 25297
0.15350000 0.15350100 9858.45477222 0 120.05998873 0 3475.03837183 0 236.28796890 0 376.79014273 0 25452
0.15450000 0.15450400 9948.73711537 0 65.96034646 0 3245.31750064 0 211.06325969 0 429.53211157 0 26061
0.15550000 0.15549900 9866.28515726 0 -13.26340787 0 3314.77057593 0 242.69202602 0 735.51050738 0 26128
0.15650000 0.15649500 9803.94153921 0 25.62310501 0 2959.67481444 0 170.43953262 0 817.04411439 0 26331
0.15750000 0.15749700 9771.23359941 0 117.20067815 0 2814.66850554 0 64.56895580 0 410.69815004 0 27345
0.15850000 0.15849900 9557.48405183 0 297.66332546 0 3018.12542235 0 -314.13597116 0 650.16818334 0 26980
0.15950000 0.15949700 9132.35847280 0 301.76706833 0 3421.57880254 0 -231.53982749 0 88.14994963 0 27777
0.16050000 0.16050000 8855.95475366 0 210.67839515 0 3459.59942568 0 -45.13562598 0 661.01426484 0 28224
0.16150000 0.16150500 8613.34591161 0 30.98935883 0 3066.68268259 0 542.36063989 0 250.14420125 0 28075
0.16250000 0.16249700 8674.15894448 0 -60.48661894 0 3056.53423739 0 476.82830272 0 634.26229780 0 28590
0.16350000 0.16349900 8607.60067159 0 37.81399414 0 2561.19029048 0 370.10658744 0 1058.12902597 0 29163
0.16450000 0.16449100 8620.86574314 0 6.52286602 0 2178.56617816 0 408.72058962 0 1103.23359660 0 28996
0.16550000 0.16550500 8654.44988750 0 -30.61547458 0 2063.42846264 0 186.34763641 0 1384.68048300 0 30777
0.16650000 0.16650700 8501.75737911 0 128.24751031 0 1714.42176827 0 -43.71395636 0 746.52739331 0 29211
0.16750000 0.16749900 8481.75995102 0 191.42518637 0 2326.74456939 0 -429.02857123 0 1367.73313406 0 30922
0.16850000 0.16850800 8031.53499330 0 185.19637016 0 2013.16315807 0 -200.71960941 0 540.44519017 0 30867
0.16950000 0.16949900 8131.61086336 0 122.41354072 0 2612.62017073 0 -64.55364995 0 1220.74150091 0 30852
0.17050000 0.17049200 7862.84897891 0 -21.46479345 0 2267.21811537 0 230.72573364 0 322.73386704 0 31257
0.17150000 0.17149500 8179.65792854 0 -55.93501354 0 2432.37712912 0 300.64242096 0 1167.71448830 0 32608
0.17250000 0.17250900 8087.25716677 0 -38.94751447 0 2112.41827956 0 168.34107816 0 553.93430390 0 32361
0.17350000 0.17350400 8215.16084997 0 21.80141128 0 1960.46888137 0 -37.30435364 0 837.69148663 0 32508
0.17450000 0.17449800 8051.74315414 0 23.19380015 0 1979.27955140 0 -13.24677108 0 537.53596922 0 32791
0.17550000 0.17549800 8210.49145606 0 57.46881516 0 1935.80205936 0 -96.31584339 0 561.08701682 0 33633
0.17650000 0.17650100 8033.28740242 0 117.44801184 0 2027.16024862 0 31.65006144 0 287.53262616 0 33984
0.17750000 0.17750300 8000.61273621 0 118.01366289 0 2032.14019605 0 -20.14216822 0 562.54329097 0 34069
0.17850000 0.17849800 7771.61279282 0 73.54628152 0 1891.59254832 0 117.22286055 0 378.28079959 0 34536
