### header ###
fiducial parameters:
Omega_m = 0.31
Omega_nu = 0
Omega_de = 0.69
Omega_k = 0
H_0 = 100
w_de = -1
zeff = 0
beta = 0
fgrowth = 0
b_1 = 2
gamma = 0.55
Lx = 3500 Ly = 3500 Lz = 3500
nx = 700 ny = 700 nz = 700
xoffset = 1379.75464 yoffset = 22.6059522 zoffset = 368.141391
bins = 400 dk = 0.001
kx_ny = 0.628318531 ky_ny = 0.628318531 kz_ny = 0.628318531
############################
A(data) = 3.38794661 (not used)
A(ran) = 3.392834 (used)
Ngal = 190423
weighted Ngal = 0
Nran = 9399747
weighted Nran = 0
SN(data) = 6589.99172
SN(ran) = 134.951271
SN(data+ran) = 6724.943
############################
13 columns: k_central k_mean P_0(k) sigma^{lin}_{P_0(k)} P^img_1(k) sigma^{lin}_{P_1(k)} P_2(k) sigma^{lin}_{P_2(k)} P^img_3(k) sigma^{lin}_{P_3(k)} P_4(k) sigma^{lin}_{P_4(k)} N_modes
### header ###
0.00050000 0 0 0 0 0 0 0 0 0 0 0 0
0.00150000 0.00179520 51815.07751892 0 -26092.81720448 0 -50858.68360607 0 75619.22623313 0 34842.88430087 0 3
0.00250000 0.00253879 72049.74631929 0 -20405.58414534 0 -4074.28465175 0 -49084.97939011 0 -48752.68712955 0 6
0.00350000 0.00331552 89517.38330501 0 -15394.02680429 0 -48507.90441290 0 5658.16303194 0 45812.41081857 0 7
0.00450000 0.00420575 96611.09104916 0 -9010.99859580 0 -20155.25583022 0 -23641.44085498 0 -2856.44904444 0 24
0.00550000 0.00557378 89190.19299504 0 15269.13992665 0 -8645.83202747 0 -49384.99626756 0 -6287.84355628 0 45
0.00650000 0.00659388 71604.54567379 0 10940.37885212 0 7265.99839754 0 5639.91801296 0 4525.67418515 0 40
0.00750000 0.00754703 68259.55158617 0 -3788.64196554 0 -8225.07638004 0 22412.97988100 0 -6523.50930904 0 57
0.00850000 0.00846663 78275.78972617 0 -14665.22425282 0 -18951.52822543 0 1074.08925838 0 -23868.14492061 0 75
0.00950000 0.00948925 88938.64464825 0 935.84414314 0 -21179.30604445 0 -25303.78945358 0 -56723.37581639 0 112
0.01050000 0.01054430 70886.16884745 0 10071.16174729 0 -11712.08215338 0 -39256.62612642 0 -30782.84074601 0 105
0.01150000 0.01145670 62358.70207381 0 8301.65000378 0 9623.26594093 0 -29503.80391394 0 -54138.12871973 0 144
0.01250000 0.01249090 62257.43944567 0 -1070.02433470 0 10263.10600167 0 -7678.59092401 0 -45828.27123021 0 169
0.01350000 0.01339930 68570.21601269 0 -3047.51709427 0 5662.07822446 0 5903.20084612 0 -62177.13917977 0 180
0.01450000 0.01448870 63724.80480192 0 4392.21381227 0 22970.42343962 0 -14309.52956669 0 -37999.88260021 0 267
0.01550000 0.01550050 63343.93309872 0 3628.27434887 0 17865.92186814 0 1825.77738563 0 -33773.02744325 0 238
0.01650000 0.01653350 57217.15590452 0 1943.38843807 0 33560.63102169 0 5597.73819096 0 -11854.93677008 0 315
0.01750000 0.01747870 59428.62966403 0 -1745.33293417 0 17114.82601080 0 18462.51735198 0 4684.04538637 0 297
0.01850000 0.01844180 62234.81340390 0 -4189.06744897 0 22609.07224304 0 21721.66557522 0 28852.41791717 0 388
0.01950000 0.01947590 65684.61930267 0 -3266.32422766 0 12492.34785869 0 15911.87478980 0 33011.28403684 0 399
0.02050000 0.02045430 72611.40453275 0 -2360.10688981 0 13810.31479205 0 14767.81782459 0 40261.26674599 0 462
0.02150000 0.02154770 70608.88892374 0 1226.94148000 0 12719.71739613 0 -3758.67355139 0 50771.06315018 0 571
0.02250000 0.02255340 70343.80931668 0 1903.42685547 0 11873.68089292 0 -3850.84139803 0 33370.30608206 0 510
0.02350000 0.02348930 72287.43066989 0 2216.27624778 0 27368.41576550 0 -3716.67118855 0 34609.96916496 0 555
0.02450000 0.02439640 68236.70372046 0 -400.96562471 0 15992.28596767 0 -6012.92605752 0 11364.04039315 0 592
0.02550000 0.02547300 68663.82571493 0 2413.86592142 0 31444.98520381 0 -3990.46847641 0 22612.73233804 0 837
0.02650000 0.02652900 68356.37773553 0 -296.90912406 0 26485.11284054 0 782.20777389 0 5063.06485968 0 723
0.02750000 0.02749970 70069.96766403 0 -2204.16466072 0 28096.66375712 0 9969.32237691 0 16348.20247774 0 826
0.02850000 0.02848090 71759.60060712 0 -1501.00495659 0 15479.87266866 0 9773.70693633 0 -2109.81184828 0 831
0.02950000 0.02946900 71173.20902447 0 1316.92436084 0 16130.26045771 0 3209.63712006 0 8628.79594896 0 996
0.03050000 0.03053250 69034.71534088 0 3638.21206133 0 17078.66870875 0 -2337.64721599 0 16383.13974813 0 1041
0.03150000 0.03150510 62898.51062928 0 4503.91325673 0 17965.40990476 0 -1256.59934064 0 7995.58842399 0 1036
0.03250000 0.03246190 59483.75291286 0 2974.74775109 0 24824.53883345 0 -540.61377637 0 17852.72334377 0 1059
0.03350000 0.03345080 56015.75745109 0 1823.34841350 0 19276.83303192 0 4626.93681328 0 5787.34220279 0 1302
0.03450000 0.03451200 52441.28649862 0 2242.24073984 0 25728.58229670 0 4148.81749524 0 22137.36363684 0 1339
0.03550000 0.03553350 52384.72139418 0 -544.55780600 0 15717.66793123 0 2212.92670631 0 11415.28172305 0 1365
0.03650000 0.03647120 54524.32419746 0 -1492.87510923 0 24812.89307666 0 5310.64255796 0 18704.19453348 0 1308
0.03750000 0.03744890 52847.00248298 0 30.93911571 0 13578.28695189 0 -92.88167608 0 8489.14668818 0 1579
0.03850000 0.03847530 54683.92652155 0 713.35473236 0 23083.77547243 0 -2174.31824973 0 11215.52926601 0 1662
0.03950000 0.03950240 53429.95579458 0 990.38843149 0 19665.80130889 0 -4005.41940990 0 2582.11937912 0 1683
0.04050000 0.04050350 53708.89939783 0 381.54382974 0 24594.17467284 0 -1009.17470088 0 -236.77930893 0 1822
0.04150000 0.04152450 54519.66589474 0 -308.45284185 0 19689.09282248 0 -1096.11082992 0 -1932.17523796 0 1887
0.04250000 0.04250150 53179.73839143 0 -52.80285952 0 18450.09521140 0 2655.28800539 0 -12388.97790313 0 1920
0.04350000 0.04349210 52440.28829089 0 1698.89409254 0 22822.24504839 0 1418.90791678 0 -3187.88728284 0 2005
0.04450000 0.04448520 51267.50512559 0 1078.48802709 0 18317.99905575 0 -119.21262128 0 -6066.78490991 0 2151
0.04550000 0.04548030 49419.48989007 0 1431.77370524 0 16253.37274383 0 4465.90372479 0 -4746.84374349 0 2274
0.04650000 0.04648670 46720.11437681 0 919.40366190 0 14331.04648877 0 1124.25917866 0 -4606.67319646 0 2311
0.04750000 0.04749250 43751.33368968 0 2185.35399069 0 13768.05733168 0 1776.35501203 0 -2272.28679237 0 2568
0.04850000 0.04851840 42323.89664245 0 1488.68263678 0 14184.42086511 0 2822.54325537 0 805.49706924 0 2493
0.04950000 0.04949480 40235.97881695 0 370.31732019 0 11907.73086755 0 1712.19243768 0 525.77375485 0 2644
0.05050000 0.05050630 38931.54314386 0 572.11055746 0 9098.43050134 0 2407.64375993 0 569.99768444 0 2829
0.05150000 0.05149060 38346.59341682 0 947.17823730 0 8045.50990145 0 1259.56069023 0 2644.14135246 0 2784
0.05250000 0.05249300 36053.82118368 0 824.35986789 0 8300.66288725 0 -1880.97827284 0 -1889.28557936 0 3055
0.05350000 0.05348950 35558.59923994 0 1541.16618074 0 10007.99738067 0 -3143.50031266 0 -1436.34327839 0 3009
0.05450000 0.05448610 34041.87805727 0 1034.15207641 0 11166.50617550 0 -1160.22793036 0 -3523.56235848 0 3336
0.05550000 0.05550870 33445.17166146 0 -269.90427773 0 11958.08490170 0 -411.38136777 0 -4767.27372827 0 3349
0.05650000 0.05647670 34484.63863944 0 -367.67317883 0 9805.63849235 0 2011.35529297 0 -7015.50371446 0 3324
0.05750000 0.05747970 34575.14280654 0 264.64594126 0 11665.38821423 0 -1368.59824743 0 -8822.14878536 0 3639
0.05850000 0.05849280 33995.18411812 0 523.90710641 0 10535.11760683 0 -677.67435178 0 -8999.70775730 0 3846
0.05950000 0.05951020 34132.71496028 0 176.13264402 0 10383.92241003 0 1106.95580230 0 -7284.88670594 0 3787
0.06050000 0.06049470 32105.90962996 0 604.48243399 0 10633.68507411 0 57.36710889 0 -7476.72004836 0 3930
0.06150000 0.06148310 32828.39019917 0 340.90679324 0 9867.27227379 0 2016.17996364 0 -5435.42961482 0 4083
0.06250000 0.06249100 31543.25320878 0 3.69505445 0 7866.89726580 0 3133.32968505 0 -3309.79062850 0 4303
0.06350000 0.06350600 31093.06152465 0 668.43982120 0 7203.81005625 0 1973.85595609 0 -480.12904293 0 4470
0.06450000 0.06451750 29658.30428743 0 1043.78256272 0 8027.44234162 0 -375.53794659 0 98.79483682 0 4479
0.06550000 0.06550280 29341.87243849 0 685.95947590 0 7218.00678834 0 -317.13503082 0 1622.15410086 0 4636
0.06650000 0.06648880 28503.37794921 0 421.54866801 0 9421.60579802 0 -1278.36026906 0 574.42307203 0 4653
0.06750000 0.06749660 28201.69739222 0 257.65848718 0 9769.56991987 0 -1512.10724474 0 265.40457913 0 5220
0.06850000 0.06852730 28234.63824715 0 76.97057767 0 11897.97061424 0 -197.23808269 0 -1220.90786886 0 5029
0.06950000 0.06949320 29110.62098212 0 -230.27321280 0 10024.58981130 0 -461.13314992 0 -2292.71677715 0 5040
0.07050000 0.07048030 28840.99398431 0 -104.00204287 0 12311.67226041 0 314.98888421 0 -821.42957366 0 5475
0.07150000 0.07148790 29040.52461741 0 561.07925298 0 12621.11665526 0 -710.40225573 0 -2891.64141236 0 5509
0.07250000 0.07249820 28737.18038088 0 693.79207918 0 13799.88906692 0 -155.48416266 0 100.28039174 0 5916
0.07350000 0.07351270 27370.96674079 0 200.13066685 0 13712.15769906 0 1017.71381341 0 -275.97559894 0 5721
0.07450000 0.07449140 28380.15475111 0 166.36351774 0 13388.96021999 0 1331.66456159 0 2515.11745836 0 6028
0.07550000 0.07549160 27672.64729778 0 -173.50403034 0 12113.25074700 0 3032.44415761 0 3754.27034620 0 6183
0.07650000 0.07648840 27544.10032515 0 -92.55226753 0 11033.89982479 0 1859.48353316 0 5244.01773789 0 6330
0.07750000 0.07749960 27927.07935578 0 187.49557529 0 10509.59676265 0 1629.77375316 0 7299.19435000 0 6583
0.07850000 0.07848650 27013.94111103 0 321.99741156 0 9736.07450509 0 1247.13854965 0 6852.16365701 0 6549
0.07950000 0.07947320 26441.96808441 0 670.02253500 0 9346.87331298 0 -102.43075300 0 8057.23329663 0 6828
0.08050000 0.08048110 25847.47992799 0 658.28472127 0 9977.86259856 0 -469.02564567 0 5922.22224888 0 7147
0.08150000 0.08149960 24747.45501466 0 499.50536400 0 10189.42718035 0 -547.42598953 0 6107.30105236 0 7386
0.08250000 0.08250610 24187.23865681 0 411.43571463 0 10060.70274857 0 -254.64611809 0 5261.89674737 0 7227
0.08350000 0.08350160 23658.96494616 0 592.30097239 0 9834.87488750 0 296.43552995 0 3576.83337742 0 7798
0.08450000 0.08449610 22868.27351572 0 467.82003256 0 10340.25636765 0 -577.76374055 0 3026.62127922 0 7371
0.08550000 0.08548940 22487.29090055 0 565.56009654 0 10462.12643971 0 -53.47853524 0 247.56882532 0 8256
0.08650000 0.08650700 21698.48497359 0 444.45864443 0 9625.53963630 0 -161.92260249 0 1381.15348237 0 8037
0.08750000 0.08749060 21120.30087668 0 234.14514965 0 9665.68976926 0 253.89746230 0 -508.08884132 0 8155
0.08850000 0.08849210 20810.74556986 0 369.58641031 0 9198.48418901 0 709.13785928 0 39.31186029 0 8718
0.08950000 0.08949900 20500.96843909 0 -54.60861729 0 8811.03540602 0 1068.62684388 0 -129.25348188 0 8571
0.09050000 0.09049190 20143.05551358 0 -160.15577481 0 7456.85571462 0 1192.02639201 0 411.76623230 0 8932
0.09150000 0.09150830 20501.63391091 0 -127.79831684 0 6257.57567981 0 1526.51470957 0 1269.74240903 0 9285
0.09250000 0.09250820 20183.09473456 0 -144.54380599 0 5487.33641654 0 1423.30003077 0 572.38894651 0 9204
0.09350000 0.09350330 20543.44772341 0 244.68955059 0 4154.56273526 0 -498.55373930 0 1645.41234086 0 9349
0.09450000 0.09448040 20051.99678663 0 291.00306169 0 5161.45486781 0 52.51005192 0 477.65126953 0 9564
0.09550000 0.09549270 19713.27163183 0 428.07029182 0 4975.79932209 0 -777.46406896 0 1536.07532134 0 10155
0.09650000 0.09649430 19050.12896630 0 650.61072210 0 5231.90615082 0 -1108.02721192 0 -578.26839001 0 9913
0.09750000 0.09749140 18805.78989753 0 381.81445494 0 6719.34657355 0 -79.26667726 0 -320.73856071 0 10476
0.09850000 0.09850240 18221.61655427 0 156.82952485 0 6500.59489614 0 -230.05915270 0 -1054.34360045 0 10575
0.09950000 0.09950330 17976.27927777 0 247.86939676 0 6132.02333035 0 891.71116136 0 406.25058006 0 10882
0.10050000 0.10051200 17829.43183018 0 -73.63833846 0 5902.82374542 0 793.61506995 0 -595.20908423 0 10875
0.10150000 0.10150300 17751.23889169 0 -147.66043233 0 4490.27108449 0 1156.73420332 0 -133.32616939 0 11118
0.10250000 0.10250800 17663.17478792 0 161.66639584 0 4593.07538900 0 365.99951721 0 522.57949013 0 11575
0.10350000 0.10349800 17276.97931019 0 497.84944830 0 4108.58972391 0 -623.86540978 0 -931.50193953 0 11364
0.10450000 0.10450100 16668.95989348 0 563.59029997 0 4907.99883515 0 -553.65369662 0 3.92836886 0 12093
0.10550000 0.10551000 15766.80193372 0 606.42006610 0 4766.78571560 0 -782.24326572 0 -1604.81856003 0 12067
0.10650000 0.10649700 15568.82406819 0 205.06624950 0 5782.70608247 0 -116.18472451 0 -888.96165364 0 12054
0.10750000 0.10749900 15222.55689947 0 -41.48540215 0 5045.95114279 0 529.42164953 0 -2032.78348547 0 12807
0.10850000 0.10850100 15302.96807734 0 178.73685706 0 5286.78539332 0 120.50141836 0 -1357.26304414 0 12736
0.10950000 0.10950300 14941.94961668 0 265.20493759 0 4692.51906084 0 293.66383984 0 -1729.23960739 0 12933
0.11050000 0.11050200 14544.99567790 0 290.44184712 0 5303.03399685 0 -43.54647928 0 -475.32322729 0 13428
0.11150000 0.11150900 14170.55686893 0 236.12381919 0 4692.56342563 0 401.00666214 0 -427.34825489 0 13453
0.11250000 0.11250000 14198.39577327 0 37.45852128 0 5090.20501861 0 759.19686758 0 -410.59722014 0 13668
0.11350000 0.11349100 14109.55528571 0 -66.52899213 0 5034.78230746 0 52.00096598 0 454.67252770 0 13791
0.11450000 0.11448600 14280.91427856 0 -164.70316556 0 4350.75491808 0 884.62166827 0 815.66547861 0 14205
0.11550000 0.11549300 14777.02351806 0 -342.73462250 0 3882.19621180 0 758.23415169 0 1371.45977624 0 14776
0.11650000 0.11649800 14832.92315067 0 -130.71751987 0 3654.23884092 0 120.14650006 0 960.18599308 0 14553
0.11750000 0.11747300 14940.95140895 0 372.34035451 0 3568.93644520 0 -430.82534514 0 743.65920978 0 14568
0.11850000 0.11849100 14248.19524756 0 722.33194717 0 4747.94177199 0 -1311.71149828 0 489.71183709 0 16015
0.11950000 0.11950300 13586.16170173 0 552.81298389 0 5265.24628885 0 -554.08847154 0 257.86589257 0 15270
0.12050000 0.12050700 13068.42462818 0 185.95833539 0 6521.62380555 0 1.90220682 0 1092.91656520 0 15999
0.12150000 0.12150000 13110.90391249 0 -57.93508908 0 5657.61956329 0 675.48162214 0 165.12130369 0 15670
0.12250000 0.12250700 12997.99552756 0 -45.07772993 0 5794.98403749 0 726.66416870 0 1371.34886427 0 16887
0.12350000 0.12352200 13186.10222780 0 -82.74820398 0 4981.45583254 0 535.46302451 0 1002.31368645 0 16407
0.12450000 0.12449800 13381.30729409 0 -231.87810900 0 4940.46276862 0 314.57629168 0 1558.65699833 0 16306
0.12550000 0.12549900 13404.48789571 0 118.60815104 0 4069.80380818 0 -67.44246311 0 889.69700000 0 17523
0.12650000 0.12650100 13574.62685690 0 84.35509660 0 4744.85841924 0 -133.75539872 0 1015.05192615 0 17154
0.12750000 0.12750600 13188.54229113 0 89.86753239 0 4433.02941704 0 -79.94168751 0 335.01071294 0 18007
0.12850000 0.12850300 13302.33797182 0 132.11501069 0 4587.77379686 0 73.77476018 0 212.67370148 0 17496
0.12950000 0.12949900 12965.60923247 0 166.21378659 0 4320.10994091 0 -66.73783936 0 8.78565875 0 18405
0.13050000 0.13049000 12875.54871325 0 24.89452429 0 4253.24111451 0 308.67799315 0 197.19815438 0 18100
0.13150000 0.13148800 12733.35956838 0 67.55304234 0 4149.47187586 0 358.99986282 0 951.70899125 0 19059
0.13250000 0.13249300 12922.57538831 0 -140.67297825 0 3976.63775382 0 904.10668307 0 587.02378088 0 18957
0.13350000 0.13349100 12989.45530591 0 -99.77906963 0 3338.87174690 0 476.10737492 0 813.16330458 0 19468
0.13450000 0.13450700 13073.19384287 0 -0.33037792 0 2818.53933327 0 372.04976515 0 1368.59824743 0 19953
0.13550000 0.13551000 12947.53058145 0 13.11722589 0 3138.58691241 0 54.67815910 0 1479.49912571 0 19956
0.13650000 0.13649900 12912.59331106 0 166.03965479 0 2416.23943756 0 -117.90829652 0 1464.94747532 0 19723
0.13750000 0.13749600 12750.55092365 0 344.30180862 0 3230.08928723 0 -399.48494992 0 491.31451505 0 20946
0.13850000 0.13851100 12285.60794758 0 227.96957119 0 2948.02905764 0 -280.58066392 0 539.25954122 0 20955
0.13950000 0.13949800 11881.88837866 0 241.69270918 0 3251.25129101 0 27.99861758 0 376.44077002 0 20506
0.14050000 0.14048300 11803.36270427 0 121.94660133 0 3135.65883641 0 -55.65329713 0 674.81615032 0 21447
0.14150000 0.14148400 11643.20582034 0 145.06620136 0 2992.12765671 0 288.87022452 0 -494.44555995 0 21771
0.14250000 0.14249400 11382.67360402 0 225.28661065 0 3286.19965259 0 53.42141557 0 -262.99002556 0 22470
0.14350000 0.14350900 11110.71745485 0 238.08585193 0 2875.71445354 0 -286.91595561 0 -84.78976061 0 22519
0.14450000 0.14449900 10744.79668514 0 104.50458501 0 3279.97749110 0 302.72645686 0 246.34990278 0 22218
0.14550000 0.14550500 10741.26968451 0 127.85820930 0 2967.09482519 0 -94.59670786 0 -573.03334505 0 23559
0.14650000 0.14650700 10559.82879363 0 134.28555793 0 3418.82818570 0 -129.97108232 0 -121.30109366 0 23044
0.14750000 0.14750500 10326.21491231 0 221.07528317 0 3525.07076127 0 -97.81448592 0 -144.75786609 0 23649
0.14850000 0.14849900 10273.44299723 0 61.70443237 0 3815.80430687 0 20.10756368 0 -9.17165458 0 23640
0.14950000 0.14949500 10223.57697575 0 31.76330256 0 3297.35739672 0 235.24761463 0 -157.77005835 0 24457
0.15050000 0.15050000 10202.24860402 0 58.45748446 0 3666.36151919 0 229.57890387 0 304.64301570 0 24591
0.15150000 0.15149900 10104.65716207 0 93.42769570 0 3592.22795879 0 36.28451808 0 863.77243625 0 25020
0.15250000 0.15250500 10020.33079167 0 86.31602022 0 3565.34289738 0 322.80041422 0 401.34605277 0 25297
0.15350000 0.15350100 10063.09844711 0 -45.10301786 0 3363.36110976 0 221.25828792 0 1257.16499169 0 25452
0.15450000 0.15450400 9943.50207041 0 -38.16148134 0 2788.48218954 0 425.22096332 0 1398.72193834 0 26061
0.15550000 0.15549900 9962.84511789 0 75.84282476 0 3142.18046022 0 271.10212701 0 984.55002542 0 26128
0.15650000 0.15649500 10012.67786578 0 115.55252629 0 2484.28393084 0 -39.97555751 0 1311.14584723 0 26331
0.15750000 0.15749700 9750.41542274 0 106.87732477 0 2560.92410175 0 -1.56644302 0 787.72675349 0 27345
0.15850000 0.15849900 9607.47207647 0 93.17925289 0 2464.95197456 0 -335.76824169 0 701.53373465 0 26980
0.15950000 0.15949700 9552.49301320 0 143.14631517 0 2952.09952692 0 -278.77168970 0 -327.32340434 0 27777
0.16050000 0.16050000 9326.83152009 0 195.00542474 0 2622.52460960 0 -328.13749819 0 -439.15927052 0 28224
0.16150000 0.16150500 9146.27792497 0 44.71294047 0 2762.37351192 0 20.56762653 0 -866.70938520 0 28075
0.16250000 0.16249700 9168.04994458 0 56.81343634 0 2441.61609618 0 166.38459102 0 -1152.54173087 0 28590
0.16350000 0.16349900 9134.24397628 0 -9.19716434 0 2556.08833988 0 471.71082445 0 -494.76054995 0 29163
0.16450000 0.16449100 8953.79020194 0 175.90527448 0 2211.75103943 0 -55.46308311 0 -1041.62199755 0 28996
0.16550000 0.16550500 8745.27569931 0 241.43428429 0 2299.50458968 0 -31.00932299 0 -699.43971667 0 30777
0.16650000 0.16650700 8424.61810434 0 215.84245645 0 2897.02064288 0 -400.89464105 0 -616.89459250 0 29211
0.16750000 0.16749900 8208.82777652 0 233.33881964 0 2599.98729741 0 -160.90221237 0 -615.61577749 0 30922
0.16850000 0.16850800 8034.95108196 0 134.79908035 0 3010.12866935 0 142.84463462 0 -538.38000930 0 30867
0.16950000 0.16949900 7905.13971288 0 -73.03275910 0 2793.61741373 0 205.25590896 0 -580.31138849 0 30852
0.17050000 0.17049200 8008.35439168 0 -36.65984418 0 2715.94576150 0 405.71709349 0 -589.44498917 0 31257
0.17150000 0.17149500 8132.43161194 0 110.82701091 0 2640.33707190 0 -122.61650962 0 -531.50790367 0 32608
0.17250000 0.17250900 7897.87497888 0 151.75862960 0 2454.39315507 0 -52.32937632 0 -114.21049145 0 32361
0.17350000 0.17350400 7801.55902458 0 30.65673384 0 2803.38875824 0 157.84880585 0 -567.12950091 0 32508
0.17450000 0.17449800 7747.94417853 0 54.68403743 0 2598.54544180 0 128.97287459 0 221.78511978 0 32791
0.17550000 0.17549800 7655.52123436 0 114.96025637 0 2611.40013907 0 171.69616524 0 -175.10449006 0 33633
0.17650000 0.17650100 7560.58058848 0 9.90403959 0 2442.19283842 0 325.10627407 0 625.67105664 0 33984
0.17750000 0.17750300 7534.29445172 0 -47.67307002 0 2268.79306533 0 476.99577979 0 549.73628586 0 34069
