### header ###
fiducial parameters:
Omega_m = 0.31
Omega_nu = 0
Omega_de = 0.69
Omega_k = 0
H_0 = 100
w_de = -1
zeff = 0
beta = 0
fgrowth = 0
b_1 = 2
gamma = 0.55
Lx = 3500 Ly = 3500 Lz = 3500
nx = 700 ny = 700 nz = 700
xoffset = 1379.75464 yoffset = 22.6059522 zoffset = 368.141391
bins = 400 dk = 0.001
kx_ny = 0.628318531 ky_ny = 0.628318531 kz_ny = 0.628318531
############################
A(data) = 3.36050938 (not used)
A(ran) = 3.35622216 (used)
Ngal = 188619
weighted Ngal = 0
Nran = 9399747
weighted Nran = 0
SN(data) = 6669.60599
SN(ran) = 133.495021
SN(data+ran) = 6803.10101
############################
13 columns: k_central k_mean P_0(k) sigma^{lin}_{P_0(k)} P^img_1(k) sigma^{lin}_{P_1(k)} P_2(k) sigma^{lin}_{P_2(k)} P^img_3(k) sigma^{lin}_{P_3(k)} P_4(k) sigma^{lin}_{P_4(k)} N_modes
### header ###
0.00050000 0 0 0 0 0 0 0 0 0 0 0 0
0.00150000 0.00179520 24226.05784612 0 -27030.02334660 0 -47905.98515452 0 54511.90205688 0 12094.06297628 0 3
0.00250000 0.00253879 38870.20882474 0 -24062.46269114 0 -10537.91258846 0 -35565.03213417 0 -2327.68732113 0 6
0.00350000 0.00331552 53177.74197598 0 -11729.05168471 0 -31583.07060582 0 -37183.01594498 0 -14646.03648210 0 7
0.00450000 0.00420575 62729.03713991 0 -2448.99174215 0 -15719.22069881 0 -33582.59159165 0 2807.32613316 0 24
0.00550000 0.00557378 51398.38124958 0 12815.76716170 0 2651.28408329 0 -26162.02627344 0 9800.28144422 0 45
0.00650000 0.00659388 41263.91095011 0 13279.04645823 0 17433.25427519 0 -2879.90692598 0 -11664.50091848 0 40
0.00750000 0.00754703 27817.72015387 0 4196.44309494 0 28774.44680262 0 10437.79235361 0 5076.11919849 0 57
0.00850000 0.00846663 23213.20974081 0 3767.99015683 0 22475.64514376 0 8839.20704626 0 -4038.92591588 0 75
0.00950000 0.00948925 29766.22163373 0 -6459.38000828 0 15713.34236442 0 17628.57025344 0 9913.03455240 0 112
0.01050000 0.01054430 35633.35390737 0 -9461.40101267 0 10118.72079980 0 16076.68997645 0 4642.19830028 0 105
0.01150000 0.01145670 45767.38055896 0 -8806.83184237 0 -10240.00303843 0 8987.71817340 0 3555.54937048 0 144
0.01250000 0.01249090 59204.92022158 0 -4324.67951405 0 -2225.22684372 0 -3296.68083371 0 16225.75566343 0 169
0.01350000 0.01339930 63406.70927345 0 -2382.14509815 0 -14869.85683651 0 -1776.97611906 0 10673.31392080 0 180
0.01450000 0.01448870 62327.75763432 0 -993.94981483 0 2438.85438814 0 2854.06443710 0 27871.29063513 0 267
0.01550000 0.01550050 64991.75222932 0 -1431.74043165 0 -8073.27116741 0 8930.02176688 0 852.87755349 0 238
0.01650000 0.01653350 66763.79276573 0 1071.12679968 0 10023.25886767 0 1408.30473250 0 35245.60566206 0 315
0.01750000 0.01747870 70696.84211554 0 4503.85780075 0 3738.38775217 0 -5637.76632075 0 28921.18333825 0 297
0.01850000 0.01844180 63436.65550521 0 3660.17263129 0 10399.68300089 0 8517.25178125 0 55841.29292309 0 388
0.01950000 0.01947590 58811.07181795 0 -2875.28189686 0 16685.70760088 0 12775.83885269 0 32171.12586801 0 399
0.02050000 0.02045430 66086.67519205 0 -2718.58546637 0 7229.66363634 0 13503.86502037 0 47198.69952513 0 462
0.02150000 0.02154770 65602.32262132 0 1402.60385727 0 11948.65738429 0 -3649.94654771 0 38265.40585515 0 571
0.02250000 0.02255340 64706.15390790 0 917.84202137 0 11926.47499039 0 -3031.40158510 0 40742.07013369 0 510
0.02350000 0.02348930 65572.59821350 0 -2024.85327966 0 15966.88712666 0 -1193.04678213 0 32836.59768491 0 555
0.02450000 0.02439640 71432.74303306 0 -4708.49038444 0 9214.73279254 0 6128.93997760 0 9706.17263812 0 592
0.02550000 0.02547300 78499.38825665 0 -2912.86996331 0 10770.33971171 0 -1784.72886573 0 4745.83444457 0 837
0.02650000 0.02652900 79765.78112420 0 -1603.24361006 0 4320.40940323 0 -10594.61078726 0 -11040.05543909 0 723
0.02750000 0.02749970 80303.48235225 0 4464.73914911 0 18146.52915093 0 -9184.81983437 0 -4878.03042099 0 826
0.02850000 0.02848090 75152.39775358 0 3425.11689437 0 19947.73953532 0 -10625.96560103 0 -17424.38131763 0 831
0.02950000 0.02946900 68807.12397951 0 4765.58786633 0 21709.90890645 0 -1467.89773370 0 -23032.86687843 0 996
0.03050000 0.03053250 67016.45023221 0 2472.19452617 0 32476.35560803 0 545.28871588 0 -14919.98904672 0 1041
0.03150000 0.03150510 64524.59101386 0 -647.34103724 0 27289.66826716 0 8171.96063786 0 -15054.63617767 0 1036
0.03250000 0.03246190 62862.35332723 0 4360.64826575 0 31287.49020715 0 -2209.15569934 0 4054.80850991 0 1059
0.03350000 0.03345080 61224.07262601 0 1341.01444062 0 26076.06949709 0 4846.96397834 0 -10598.02687592 0 1302
0.03450000 0.03451200 58723.45136206 0 -1262.94350530 0 29483.83975943 0 7537.57744601 0 9411.63481196 0 1339
0.03550000 0.03553350 58140.49805046 0 1366.60183198 0 25102.59514094 0 1468.56320552 0 3694.38897388 0 1365
0.03650000 0.03647120 59091.23545286 0 2588.00880470 0 28163.87641062 0 1392.23358812 0 9847.09738654 0 1308
0.03750000 0.03744890 55010.45135970 0 1707.41213180 0 27541.66026183 0 705.80051812 0 10625.72159470 0 1579
0.03850000 0.03847530 51815.74299074 0 2192.27489759 0 28459.67863323 0 903.68521759 0 8124.83414203 0 1662
0.03950000 0.03950240 50745.10974932 0 474.39045763 0 29772.21088008 0 2121.49087867 0 8938.10724945 0 1683
0.04050000 0.04050350 49912.04994654 0 1074.67043710 0 26195.63260019 0 1329.79014930 0 4366.93697442 0 1822
0.04150000 0.04152450 46871.28739122 0 2659.86866973 0 26349.80023777 0 -1149.52492530 0 4699.96125399 0 1887
0.04250000 0.04250150 44916.79666500 0 1353.48094599 0 24074.55209581 0 -580.43006429 0 -624.32014886 0 1920
0.04350000 0.04349210 43261.65734442 0 -0.73416958 0 25743.44450061 0 3371.79041944 0 -1067.19497036 0 2005
0.04450000 0.04448520 44959.27594932 0 -518.70422592 0 22325.91398496 0 4650.64979236 0 968.52990055 0 2151
0.04550000 0.04548030 42371.25605342 0 547.60455780 0 17788.72713738 0 1639.84455999 0 -2180.99515029 0 2274
0.04650000 0.04648670 43302.80568510 0 382.77162524 0 18441.66590172 0 3417.92979875 0 -2119.61646638 0 2311
0.04750000 0.04749250 40585.01878491 0 1525.88251135 0 13281.81925747 0 -236.69168847 0 -1201.86428370 0 2568
0.04850000 0.04851840 39938.84565070 0 1014.60162355 0 18039.27727644 0 823.91954738 0 3937.55237577 0 2493
0.04950000 0.04949480 38349.36621605 0 418.70932159 0 13869.65269572 0 824.42530596 0 -2119.11736252 0 2644
0.05050000 0.05050630 37747.66878161 0 1243.30099550 0 15922.52233887 0 1720.26682906 0 1903.24939631 0 2829
0.05150000 0.05149060 35816.80230490 0 882.70732768 0 13327.95863677 0 -387.35118046 0 3172.54815746 0 2784
0.05250000 0.05249300 34599.32161589 0 1391.10228603 0 17504.34884762 0 29.69523797 0 3029.71572316 0 3055
0.05350000 0.05348950 34250.05982399 0 660.35212038 0 16453.01428890 0 512.14821940 0 2307.53461627 0 3009
0.05450000 0.05448610 33034.02099059 0 -721.66092975 0 15445.37904616 0 3781.47705231 0 5794.07455934 0 3336
0.05550000 0.05550870 34214.23525785 0 -115.80873293 0 13849.79945318 0 2340.38674164 0 3414.54698368 0 3349
0.05650000 0.05647670 34094.11759490 0 -120.57240202 0 13557.43550163 0 890.26154192 0 6649.27239123 0 3324
0.05750000 0.05747970 34079.47721493 0 274.21875335 0 10298.33164318 0 1536.98479949 0 6013.19224625 0 3639
0.05850000 0.05849280 33258.72864076 0 679.56983733 0 13301.22885213 0 -1265.92703728 0 5412.71484347 0 3846
0.05950000 0.05951020 33553.31083170 0 433.16558769 0 12913.70243075 0 -976.26601042 0 5244.26174423 0 3787
0.06050000 0.06049470 33217.35847614 0 -36.35062161 0 13634.96296830 0 468.19158766 0 1723.35018181 0 3930
0.06150000 0.06148310 32693.96489215 0 313.21318358 0 13521.72184746 0 -659.72103128 0 2494.82056794 0 4083
0.06250000 0.06249100 32618.54475291 0 350.99978246 0 13887.17678690 0 -1066.05590443 0 720.91671044 0 4303
0.06350000 0.06350600 32534.02983216 0 656.50014768 0 15079.81319474 0 133.23965806 0 490.63573380 0 4470
0.06450000 0.06451750 32392.39524713 0 -182.56664737 0 14782.45820456 0 542.12772475 0 189.90125591 0 4479
0.06550000 0.06550280 32060.76845838 0 100.35780829 0 14064.85776201 0 1093.66633011 0 -1266.60360029 0 4636
0.06650000 0.06648880 33337.69796303 0 -106.03916301 0 14899.35942039 0 761.47167208 0 1417.14441647 0 4653
0.06750000 0.06749660 32305.77299897 0 -84.69947826 0 13835.60272109 0 1330.58871548 0 -965.15374019 0 5220
0.06850000 0.06852730 32638.39799544 0 873.77558678 0 15528.78484721 0 -1148.92600067 0 1858.25241030 0 5029
0.06950000 0.06949320 30781.28797843 0 1473.90916245 0 16793.40312324 0 -1813.03360034 0 936.23233503 0 5040
0.07050000 0.07048030 30130.12380560 0 897.77250050 0 16441.14670817 0 96.50417191 0 1290.99314238 0 5475
0.07150000 0.07148790 29581.33138060 0 553.99752373 0 18321.65915074 0 1552.23519530 0 2604.74542090 0 5509
0.07250000 0.07249820 28486.96297772 0 14.53013347 0 15770.12929280 0 2475.06714618 0 2001.00720622 0 5916
0.07350000 0.07351270 28613.95718278 0 36.98060160 0 15474.77071807 0 2380.05995312 0 4167.39525013 0 5721
0.07450000 0.07449140 27427.08819735 0 354.12528176 0 12871.66679432 0 1503.42283753 0 3272.52420675 0 6028
0.07550000 0.07549160 27054.42397989 0 282.55933345 0 12028.51400232 0 1497.02321689 0 4502.49358352 0 6183
0.07650000 0.07648840 26795.22270721 0 153.68184315 0 9454.86829766 0 1781.11313552 0 4809.75301258 0 6330
0.07750000 0.07749960 26018.06253705 0 241.57736073 0 9583.60382064 0 632.54427139 0 4938.42198838 0 6583
0.07850000 0.07848650 25745.21909212 0 551.15263171 0 7709.70173145 0 1293.78812401 0 3873.43416621 0 6549
0.07950000 0.07947320 25025.40041018 0 -89.35622821 0 7505.09133015 0 -10.78147527 0 4040.78923696 0 6828
0.08050000 0.08048110 25016.30562869 0 30.45387584 0 6211.86885718 0 921.70952175 0 2195.44697992 0 7147
0.08150000 0.08149960 25049.46830756 0 232.90404472 0 5749.09975572 0 -111.26577866 0 2494.38801126 0 7386
0.08250000 0.08250610 24228.38699748 0 641.93296961 0 5637.75522955 0 -1231.22268203 0 637.39999742 0 7227
0.08350000 0.08350160 23480.39667530 0 740.23535728 0 7110.30017478 0 -331.20754151 0 1459.37969445 0 7798
0.08450000 0.08449610 22310.49722120 0 476.31478030 0 7432.93200281 0 419.00212919 0 856.73839915 0 7371
0.08550000 0.08548940 23080.89176122 0 -28.90343742 0 6612.82671806 0 817.14171692 0 276.59559685 0 8256
0.08650000 0.08650700 21912.10142682 0 559.21593189 0 7960.32950889 0 -968.85709086 0 809.75165239 0 8037
0.08750000 0.08749060 21528.12418847 0 664.51021012 0 8247.95751935 0 -992.08094815 0 543.13258720 0 8155
0.08850000 0.08849210 21095.67841946 0 2.79251939 0 8720.54233012 0 998.76006695 0 1580.56211230 0 8718
0.08950000 0.08949900 21650.46009081 0 -293.14809918 0 8213.81881514 0 1358.26125187 0 1751.59946044 0 8571
0.09050000 0.09049190 21550.75023024 0 22.48163439 0 7268.33864009 0 540.51506472 0 1855.21342233 0 8932
0.09150000 0.09150830 21086.36181402 0 491.00728890 0 7687.91862065 0 831.63236573 0 2643.90843732 0 9285
0.09250000 0.09250820 20228.34681811 0 758.61125239 0 7723.67663961 0 -749.84144296 0 2820.51356633 0 9204
0.09350000 0.09350330 19469.93077079 0 649.59587758 0 8012.04776026 0 531.74858265 0 3805.11239301 0 9349
0.09450000 0.09448040 18874.77714255 0 466.80407892 0 8100.12295523 0 709.85545972 0 3991.31140738 0 9564
0.09550000 0.09549270 17945.33483829 0 331.88410452 0 7750.45078904 0 403.04966062 0 5276.71458650 0 10155
0.09650000 0.09649430 17893.53894854 0 320.79401669 0 7434.79532389 0 735.36521270 0 4338.23295672 0 9913
0.09750000 0.09749140 17363.49064638 0 144.18445121 0 7077.21513428 0 212.89774366 0 4356.68870844 0 10476
0.09850000 0.09850240 17219.08326212 0 115.20869918 0 6735.01843484 0 -15.08036775 0 4341.98178129 0 10575
0.09950000 0.09950330 16875.03433278 0 158.87030509 0 6362.90877723 0 551.53860536 0 3039.29851733 0 10882
0.10050000 0.10051200 17071.57034270 0 -204.32203018 0 5856.59563654 0 412.47717803 0 3380.25300271 0 10875
0.10150000 0.10150300 16982.17529530 0 78.20292056 0 5737.82000842 0 -319.48858281 0 1498.25433975 0 11118
0.10250000 0.10250800 17115.60239459 0 168.10927214 0 5134.68071838 0 116.33445567 0 2128.41178556 0 11575
0.10350000 0.10349800 16535.42188223 0 213.59870731 0 6239.61903195 0 -183.34524939 0 825.22387214 0 11364
0.10450000 0.10450100 16563.92625838 0 157.18777051 0 5230.61957198 0 102.18796670 0 1356.73066669 0 12093
0.10550000 0.10551000 16356.96452333 0 -72.91264144 0 5539.74232212 0 571.49832339 0 883.05337303 0 12067
0.10650000 0.10649700 16512.35219257 0 -197.09722449 0 3907.77251196 0 1254.18145971 0 2049.89720236 0 12054
0.10750000 0.10749900 16388.24169872 0 75.94674928 0 3980.29784881 0 610.32749479 0 699.49850001 0 12807
0.10850000 0.10850100 16542.29842434 0 432.97814646 0 3735.53731456 0 -460.12163276 0 2054.41131952 0 12736
0.10950000 0.10950300 15511.37166800 0 272.79353454 0 3368.79579627 0 344.37611964 0 1140.91815647 0 12933
0.11050000 0.11050200 15357.31494239 0 -43.61524470 0 3388.26084691 0 736.70170193 0 3100.78811321 0 13428
0.11150000 0.11150900 15455.47203538 0 -8.48822612 0 2523.46912966 0 422.13761057 0 1311.40094476 0 13453
0.11250000 0.11250000 15476.98895746 0 307.12300733 0 3561.32788409 0 -87.76674878 0 1116.04060172 0 13668
0.11350000 0.11349100 14591.91144099 0 380.71088085 0 2890.08864478 0 -800.14556672 0 1275.52092264 0 13791
0.11450000 0.11448600 14327.60821771 0 499.24582999 0 4233.05513606 0 -1206.65568078 0 1080.62862810 0 14205
0.11550000 0.11549300 14244.42424060 0 30.97682578 0 4012.82832946 0 -74.03118865 0 28.81736973 0 14776
0.11650000 0.11649800 14159.46567198 0 -20.42943022 0 4670.99104756 0 241.01836440 0 -271.67443277 0 14553
0.11750000 0.11747300 14499.52177041 0 16.23473953 0 4276.79881683 0 -343.22041692 0 -219.46373225 0 14568
0.11850000 0.11849100 14119.98101084 0 75.33018964 0 4421.97149368 0 120.55354699 0 -301.84914319 0 16015
0.11950000 0.11950300 14223.12914246 0 118.62700608 0 4451.29661841 0 109.70846370 0 -257.98678661 0 15270
0.12050000 0.12050700 14065.52323383 0 36.50822752 0 4456.05474190 0 609.40470720 0 562.00204056 0 15999
0.12150000 0.12150000 14262.05924375 0 -2.55253916 0 3896.06020799 0 504.16477584 0 -224.69101338 0 15670
0.12250000 0.12250700 13898.15707188 0 85.70833354 0 3968.54118004 0 104.94867653 0 1187.10190057 0 16887
0.12350000 0.12352200 13651.48885175 0 207.72148204 0 3783.21837024 0 12.28294606 0 -61.50113073 0 16407
0.12450000 0.12449800 13839.59555199 0 183.70460417 0 3731.51121006 0 -166.20602275 0 578.49354131 0 16306
0.12550000 0.12549900 13375.31804774 0 196.12896299 0 4059.58881579 0 -55.71629513 0 -330.59198008 0 17523
0.12650000 0.12650100 13078.18488150 0 251.17013697 0 3846.33837207 0 -427.59669771 0 58.89913592 0 17154
0.12750000 0.12750600 12865.01207615 0 184.48542444 0 4042.09799820 0 91.80316808 0 -415.17012064 0 18007
0.12850000 0.12850300 12749.44180395 0 145.28358882 0 4180.52722731 0 64.53801136 0 -355.38745997 0 17496
0.12950000 0.12949900 12581.74290609 0 -13.15338320 0 3687.09096629 0 450.40019863 0 -863.04041725 0 18405
0.13050000 0.13049000 12523.51412212 0 126.96869530 0 3979.02236116 0 114.11288892 0 97.05817720 0 18100
0.13150000 0.13148800 12318.99245039 0 204.00260371 0 3669.01231526 0 94.95084978 0 374.05394444 0 19059
0.13250000 0.13249300 12141.53329922 0 -108.42964869 0 3598.97140653 0 777.62710955 0 265.70293233 0 18957
0.13350000 0.13349100 12397.18538888 0 -13.99132313 0 3060.41615632 0 368.87990106 0 782.15009967 0 19468
0.13450000 0.13450700 12293.48269741 0 28.99460706 0 2785.11046567 0 521.91401831 0 1107.90964524 0 19953
0.13550000 0.13551000 12015.09365401 0 188.50820157 0 2677.12657218 0 81.91847154 0 1310.32509866 0 19956
0.13650000 0.13649900 12143.97336255 0 62.92413129 0 2547.30411190 0 -74.91571161 0 1145.77610074 0 19723
0.13750000 0.13749600 11759.44156435 0 46.28899955 0 2520.11958818 0 29.40409405 0 301.95118220 0 20946
0.13850000 0.13851100 11822.32865105 0 31.46117835 0 2449.79030833 0 -96.17565066 0 696.55933282 0 20955
0.13950000 0.13949800 11657.51346440 0 96.06695693 0 2341.17421662 0 -43.43434728 0 -77.52791032 0 20506
0.14050000 0.14048300 11726.38979745 0 176.93897403 0 2560.95737534 0 -185.75536649 0 -123.55482488 0 21447
0.14150000 0.14148400 11448.11166602 0 132.83482937 0 2266.10899567 0 -213.66303625 0 -479.63770291 0 21771
0.14250000 0.14249400 11168.05894307 0 178.22111640 0 2711.23200280 0 104.56325744 0 -316.75571188 0 22470
0.14350000 0.14350900 11263.55414880 0 47.24616985 0 2627.27164190 0 187.94476877 0 103.00605339 0 22519
0.14450000 0.14449900 10953.32227896 0 80.29338936 0 2844.72564926 0 -13.57906334 0 -50.99355256 0 22218
0.14550000 0.14550500 11156.52409825 0 36.38378429 0 2504.39227091 0 219.85857887 0 243.30426009 0 23559
0.14650000 0.14650700 10841.44537534 0 260.28155526 0 2926.39013239 0 -168.84240026 0 -14.77092336 0 23044
0.14750000 0.14750500 10789.39438806 0 123.85539632 0 2733.76931499 0 21.43939461 0 1138.64446110 0 23649
0.14850000 0.14849900 10439.41166836 0 133.77979935 0 3300.95094453 0 -105.81767181 0 -65.16610585 0 23640
0.14950000 0.14949500 10384.44369629 0 331.40274657 0 3537.69254339 0 -155.74480579 0 667.64347326 0 24457
0.15050000 0.15050000 10152.80404802 0 81.87577043 0 2997.38488406 0 113.64373129 0 175.21318379 0 24591
0.15150000 0.15149900 9913.55583865 0 34.61551476 0 3511.51731860 0 25.30977870 0 421.01074496 0 25020
0.15250000 0.15250500 9912.46890135 0 76.26185018 0 3298.64397557 0 74.40695841 0 143.44799573 0 25297
0.15350000 0.15350100 9830.13894641 0 59.28289134 0 3006.69039830 0 254.11263152 0 367.89389365 0 25452
0.15450000 0.15450400 9856.65799831 0 -2.96570843 0 2977.87546863 0 301.05501348 0 606.03076509 0 26061
0.15550000 0.15549900 9700.90431957 0 195.16957446 0 2999.99131534 0 -45.26262019 0 216.59665784 0 26128
0.15650000 0.15649500 9605.12074272 0 107.04369272 0 3145.90710239 0 -191.28100081 0 495.57908028 0 26331
0.15750000 0.15749700 9410.43696269 0 136.64687376 0 3182.16422522 0 -82.84125913 0 -227.66345416 0 27345
0.15850000 0.15849900 9343.11339721 0 111.24137803 0 3520.36809376 0 -286.71409583 0 729.81074127 0 26980
0.15950000 0.15949700 9194.43590212 0 78.38570349 0 3251.87239804 0 -14.66444787 0 -190.51238086 0 27777
0.16050000 0.16050000 9277.57551445 0 10.27886659 0 3417.74124840 0 374.34675204 0 314.55965489 0 28224
0.16150000 0.16150500 9117.56281607 0 80.19423406 0 2984.19745089 0 235.87093990 0 133.87851100 0 28075
0.16250000 0.16249700 9079.15400104 0 64.59624015 0 2989.72086697 0 426.19809777 0 227.94738880 0 28590
0.16350000 0.16349900 8863.41912920 0 160.07702731 0 2858.98892854 0 29.03963732 0 611.72165824 0 29163
0.16450000 0.16449100 8600.93486223 0 155.32777678 0 2585.11400230 0 2.97698817 0 432.49457028 0 28996
0.16550000 0.16550500 8540.05528218 0 57.75774084 0 2772.39995397 0 42.20089527 0 333.12742770 0 30777
0.16650000 0.16650700 8443.60623352 0 84.02269342 0 2588.10862547 0 86.50246324 0 334.20105556 0 29211
0.16750000 0.16749900 8341.00157055 0 203.80739864 0 2521.39507583 0 -1.53243741 0 271.42931732 0 30922
0.16850000 0.16850800 8082.37704011 0 122.57214483 0 2633.31634423 0 56.27285140 0 259.90445457 0 30867
0.16950000 0.16949900 7922.50852730 0 89.45005974 0 2782.99204705 0 -96.31284876 0 292.71443338 0 30852
0.17050000 0.17049200 7854.76349634 0 78.77123349 0 2622.28060327 0 -31.89118406 0 123.66684597 0 31257
0.17150000 0.17149500 7903.72003967 0 10.02749570 0 2771.25756068 0 183.58481925 0 54.58454940 0 32608
0.17250000 0.17250900 7753.54523299 0 36.84329258 0 2471.90615505 0 58.51249680 0 197.24141005 0 32361
0.17350000 0.17350400 7827.05768636 0 35.46465680 0 2339.75454341 0 32.63451608 0 89.02881608 0 32508
0.17450000 0.17449800 7713.15109370 0 38.60158003 0 2319.22473786 0 59.22377526 0 0.44270956 0 32791
0.17550000 0.17549800 7668.09865170 0 60.78719038 0 2264.33440416 0 113.55278348 0 59.64524074 0 33633
0.17650000 0.17650100 7663.68435531 0 29.76455795 0 2192.27489759 0 56.39873648 0 -70.19862555 0 33984
0.17750000 0.17750300 7757.97062057 0 -64.26472427 0 2011.15565142 0 157.00809312 0 -221.56551408 0 34069
0.17850000 0.17849800 7596.21660428 0 101.05012080 0 2039.29401808 0 -31.12389505 0 -311.29662475 0 34536
