### header ###
fiducial parameters:
Omega_m = 0.31
Omega_nu = 0
Omega_de = 0.69
Omega_k = 0
H_0 = 100
w_de = -1
zeff = 0
beta = 0
fgrowth = 0
b_1 = 2
gamma = 0.55
Lx = 3500 Ly = 3500 Lz = 3500
nx = 700 ny = 700 nz = 700
xoffset = 1379.75464 yoffset = 22.6059522 zoffset = 368.141391
bins = 400 dk = 0.001
kx_ny = 0.628318531 ky_ny = 0.628318531 kz_ny = 0.628318531
############################
A(data) = 3.33677273 (not used)
A(ran) = 3.33465012 (used)
Ngal = 187590
weighted Ngal = 0
Nran = 9399747
weighted Nran = 0
SN(data) = 6686.58285
SN(ran) = 132.636985
SN(data+ran) = 6819.21983
############################
13 columns: k_central k_mean P_0(k) sigma^{lin}_{P_0(k)} P^img_1(k) sigma^{lin}_{P_1(k)} P_2(k) sigma^{lin}_{P_2(k)} P^img_3(k) sigma^{lin}_{P_3(k)} P_4(k) sigma^{lin}_{P_4(k)} N_modes
### header ###
0.00050000 0 0 0 0 0 0 0 0 0 0 0 0
0.00150000 0.00179520 1605.57276142 0 -5083.21756454 0 -9788.71332581 0 4528.25843404 0 -30422.93140504 0 3
0.00250000 0.00253879 21277.79587335 0 -26296.11884454 0 -32376.97848337 0 18928.23671184 0 32536.13715958 0 6
0.00350000 0.00331552 32402.26641242 0 -29322.13010792 0 -31857.02317044 0 -19497.32602725 0 -43676.80084619 0 7
0.00450000 0.00420575 58048.99567564 0 -13789.57425376 0 -36177.70985359 0 -25723.92399398 0 -12586.95576866 0 24
0.00550000 0.00557378 70986.87691574 0 -4207.13500879 0 -34663.42873425 0 -27626.39700651 0 2809.59982853 0 45
0.00650000 0.00659388 68113.25869842 0 2857.30306660 0 5626.80821817 0 -28143.69043218 0 -8701.90911924 0 40
0.00750000 0.00754703 68739.24585418 0 2193.57256763 0 -17191.02253384 0 -2351.89940407 0 5710.56893752 0 57
0.00850000 0.00846663 86051.49517066 0 -12956.95809885 0 -26759.95270092 0 25479.58492521 0 -2228.24364929 0 75
0.00950000 0.00948925 86826.88074931 0 -11550.70523779 0 -37125.45263282 0 8239.91640156 0 14569.72904709 0 112
0.01050000 0.01054430 104204.45721582 0 -1014.52065781 0 -38735.45078182 0 -5771.78125348 0 18316.55720014 0 105
0.01150000 0.01145670 92179.71422046 0 6173.43785976 0 -19181.67056210 0 -15468.44873581 0 -10464.91033015 0 144
0.01250000 0.01249090 92150.32254855 0 7265.97621514 0 -17081.77424390 0 -18781.50017621 0 21595.78048985 0 169
0.01350000 0.01339930 79663.96393621 0 2404.20548888 0 2800.89323893 0 9340.89515782 0 3542.93867955 0 180
0.01450000 0.01448870 83411.23573714 0 -1549.18511614 0 4364.21963117 0 1484.24615801 0 17950.43678888 0 267
0.01550000 0.01550050 75000.33744342 0 -2000.14209285 0 -8791.29307545 0 1381.83004539 0 -28744.94421874 0 238
0.01650000 0.01653350 84641.24947870 0 1071.97194888 0 12500.44443246 0 -11776.96565553 0 14760.49763460 0 315
0.01750000 0.01747870 78437.38846571 0 2688.07358357 0 -59.07459866 0 -5824.93026925 0 -8883.54965166 0 297
0.01850000 0.01844180 80040.06642473 0 -403.68074973 0 8980.87490488 0 2249.27255871 0 3844.60814534 0 388
0.01950000 0.01947590 84804.40098580 0 -2017.39999531 0 10252.20335507 0 -2936.76040154 0 -9144.20387114 0 399
0.02050000 0.02045430 80964.96133824 0 3563.88995058 0 314.76816939 0 -1481.90591545 0 -20383.51266341 0 462
0.02150000 0.02154770 77794.87542650 0 4383.29648992 0 13902.48263869 0 -10665.99373082 0 2045.86000668 0 571
0.02250000 0.02255340 72665.41866188 0 5478.20836145 0 11539.94677675 0 -3172.28196874 0 -21699.26135738 0 510
0.02350000 0.02348930 69091.05862138 0 2919.51359029 0 34398.12730325 0 1137.16933190 0 7838.86981111 0 555
0.02450000 0.02439640 61967.40464548 0 991.24799926 0 18085.97121559 0 8501.26936645 0 -13339.93712947 0 592
0.02550000 0.02547300 64751.84963933 0 -697.85478462 0 23250.47616256 0 10400.55920545 0 10766.11396567 0 837
0.02650000 0.02652900 64973.11901844 0 -843.66631442 0 16260.24928594 0 6002.81088591 0 5260.76544528 0 723
0.02750000 0.02749970 64365.32142568 0 826.09785846 0 24380.22548370 0 1698.19534714 0 25862.12030796 0 826
0.02850000 0.02848090 67772.75895211 0 1588.42577094 0 19637.07510880 0 2474.96732541 0 17471.18616875 0 831
0.02950000 0.02946900 64321.84393364 0 -1088.01647439 0 19159.82090412 0 3754.32580219 0 28007.49053365 0 996
0.03050000 0.03053250 66531.09945376 0 -444.35549629 0 14612.65197928 0 12841.05509074 0 29419.39990516 0 1041
0.03150000 0.03150510 64704.04658048 0 -1305.62243115 0 12021.52654824 0 7085.11206651 0 27195.72582901 0 1036
0.03250000 0.03246190 70816.40521865 0 1179.14951235 0 8190.28329522 0 2795.52509960 0 29730.61889153 0 1059
0.03350000 0.03345080 64022.93617589 0 814.45653814 0 9272.66211420 0 -354.13859120 0 25889.07191654 0 1302
0.03450000 0.03451200 62617.34878664 0 2892.32906657 0 9456.13269412 0 -2146.50152778 0 24600.05300722 0 1339
0.03550000 0.03553350 59317.60678258 0 1154.10558964 0 6910.78063288 0 -1417.06677809 0 14519.48592492 0 1365
0.03650000 0.03647120 57260.30066065 0 2178.58836055 0 11757.11241299 0 -497.52447622 0 13546.34430468 0 1308
0.03750000 0.03744890 55220.18589399 0 3054.69309869 0 7997.48501867 0 -1157.27767197 0 7338.75664952 0 1579
0.03850000 0.03847530 50357.13968008 0 1680.26088167 0 11126.13421861 0 2253.25429841 0 15018.81161153 0 1662
0.03950000 0.03950240 49348.06258173 0 230.80780849 0 5742.68904388 0 4532.15144416 0 10290.11306624 0 1683
0.04050000 0.04050350 49434.79574186 0 -174.78284535 0 8277.06082014 0 4612.72898999 0 14204.82866750 0 1822
0.04150000 0.04152450 47836.88699753 0 489.50221347 0 4408.16295348 0 271.79865417 0 9291.89424971 0 1887
0.04250000 0.04250150 46945.82023471 0 2128.73343027 0 6224.12462981 0 -2361.92584611 0 10942.89655383 0 1920
0.04350000 0.04349210 43411.83215110 0 3025.86707782 0 10673.92393664 0 -6491.15628754 0 11733.15542759 0 2005
0.04450000 0.04448520 40410.33243297 0 2829.89671895 0 16936.59047584 0 -3371.69059867 0 3640.61885107 0 2151
0.04550000 0.04548030 38948.17993929 0 1641.77442826 0 19464.49608428 0 -120.96613952 0 9577.01564965 0 2274
0.04650000 0.04648670 36393.43363423 0 133.42044457 0 20554.87165626 0 -400.20476860 0 4218.95822474 0 2311
0.04750000 0.04749250 37109.03766133 0 -197.71278592 0 18524.29531898 0 5073.79004713 0 7975.13625682 0 2568
0.04850000 0.04851840 38476.69315702 0 -298.21788530 0 18617.90502123 0 2205.71742829 0 9006.46229624 0 2493
0.04950000 0.04949480 38182.55461395 0 -106.42158749 0 17570.78511734 0 1365.19324996 0 6395.74981139 0 2644
0.05050000 0.05050630 37774.17674232 0 1092.89438281 0 17476.73176722 0 -385.01093790 0 6503.25678341 0 2829
0.05150000 0.05149060 35900.54084185 0 1090.48315659 0 16875.03433278 0 -2794.50470948 0 8482.96889148 0 2784
0.05250000 0.05249300 35887.56414142 0 313.22538390 0 19772.27679960 0 1087.33436578 0 4009.58969995 0 3055
0.05350000 0.05348950 35569.91226083 0 -53.88935317 0 17234.94367375 0 1167.63684992 0 1081.15102348 0 3009
0.05450000 0.05448610 35102.97286931 0 682.65873568 0 20413.90254305 0 866.78258710 0 3862.32078687 0 3336
0.05550000 0.05550870 34311.39414311 0 1110.89428633 0 16915.07355376 0 -1693.94741871 0 -349.62780140 0 3349
0.05650000 0.05647670 33217.24756417 0 1001.59164953 0 19919.23515916 0 -242.45467441 0 991.28349109 0 3324
0.05750000 0.05747970 31552.90255012 0 956.86528872 0 19569.19698347 0 -518.04208146 0 -2407.56612155 0 3639
0.05850000 0.05849280 30602.38697166 0 440.21515247 0 19250.32507121 0 2400.37902593 0 -1058.16229956 0 3846
0.05950000 0.05951020 31369.34324063 0 -876.61160584 0 16069.92434631 0 2962.52525205 0 -1984.30386361 0 3787
0.06050000 0.06049470 30909.61312712 0 -162.01022294 0 14511.72208705 0 2017.43326890 0 -2525.83155461 0 3930
0.06150000 0.06148310 30126.90735849 0 1164.20967006 0 13082.06680043 0 -487.89509903 0 -3284.79107058 0 4083
0.06250000 0.06249100 29703.33454703 0 569.30559375 0 12485.36040461 0 536.92484426 0 -1898.38036085 0 4303
0.06350000 0.06350600 28195.70814586 0 70.93663379 0 11384.11545963 0 1404.96628222 0 -2870.20212865 0 4470
0.06450000 0.06451750 29422.06179243 0 -178.08247644 0 10116.26964528 0 2490.94974021 0 -2796.00202107 0 4479
0.06550000 0.06550280 28114.96423208 0 341.05097880 0 10080.78890624 0 421.96791525 0 -1286.37920445 0 4636
0.06650000 0.06648880 27642.47924209 0 935.94840039 0 9431.67660484 0 -594.98393293 0 -262.99446204 0 4653
0.06750000 0.06749660 26705.27309996 0 410.96877524 0 9921.66350362 0 1573.37501668 0 835.86143913 0 5220
0.06850000 0.06852730 26539.01605771 0 -399.46720401 0 7630.51058524 0 1398.44465841 0 2451.59817344 0 5029
0.06950000 0.06949320 27366.64117398 0 -201.03349029 0 8333.70356296 0 1916.30373512 0 3165.73816254 0 5040
0.07050000 0.07048030 26992.20236501 0 147.27445868 0 6038.25835135 0 842.76570923 0 4536.56574055 0 5475
0.07150000 0.07148790 27314.29072439 0 -109.00406178 0 6890.51701605 0 -22.48019253 0 3612.14774851 0 5509
0.07250000 0.07249820 27135.27880564 0 186.93657896 0 6959.64844663 0 -39.05354631 0 4024.79573096 0 5916
0.07350000 0.07351270 27121.08207355 0 274.50601535 0 5944.62646672 0 561.46079015 0 3218.06642974 0 5721
0.07450000 0.07449140 26835.81648804 0 342.29984758 0 7502.70672281 0 33.03335552 0 3959.11366264 0 6028
0.07550000 0.07549160 25767.06875011 0 647.78468512 0 6511.06498606 0 -1681.84692283 0 2371.94119695 0 6183
0.07650000 0.07648840 26655.47362566 0 79.62325924 0 8384.31269463 0 869.25814226 0 2346.61999432 0 6330
0.07750000 0.07749960 25010.87094218 0 222.39624473 0 7505.24660691 0 -44.24256280 0 1907.78569587 0 6583
0.07850000 0.07848650 25298.57659102 0 222.28311452 0 6947.49249478 0 723.27248067 0 1496.69048098 0 6549
0.07950000 0.07947320 25112.35539426 0 -48.16352275 0 7245.28004164 0 205.08954101 0 694.43980508 0 6828
0.08050000 0.08048110 23968.40934102 0 802.81632694 0 8532.20271474 0 -1650.54756505 0 -707.51521716 0 7147
0.08150000 0.08149960 23274.87679585 0 1448.29958870 0 9225.08087929 0 -2242.72875251 0 -933.77785315 0 7386
0.08250000 0.08250610 21839.56499878 0 927.43479761 0 10696.09523934 0 -1514.00383942 0 -1418.73045763 0 7227
0.08350000 0.08350160 21489.52682309 0 83.10356593 0 11704.87287537 0 781.95156724 0 -1836.34729632 0 7798
0.08450000 0.08449610 21348.11406200 0 -213.42790287 0 11109.60833516 0 2304.18507480 0 350.28107290 0 7371
0.08550000 0.08548940 21287.00156682 0 -56.76951520 0 9026.55954511 0 2312.55892849 0 -281.76742199 0 8256
0.08650000 0.08650700 21731.86947641 0 -97.64057595 0 8780.10205773 0 1191.17236985 0 2730.10922000 0 8037
0.08750000 0.08749060 21436.95454956 0 64.69384268 0 7945.63367293 0 905.84134627 0 2224.29518318 0 8155
0.08850000 0.08849210 20840.58088965 0 553.18786635 0 7851.69123478 0 -435.93949605 0 4047.80996463 0 8718
0.08950000 0.08949900 20676.76391072 0 521.26740153 0 8643.97979758 0 -1009.95219379 0 3564.76615514 0 8571
0.09050000 0.09049190 19910.80584948 0 226.37243883 0 8299.22103164 0 655.85685826 0 2209.32206730 0 8932
0.09150000 0.09150830 20073.51370871 0 -4.87447015 0 8883.12818618 0 299.50002767 0 2253.50939594 0 9285
0.09250000 0.09250820 19587.05381056 0 267.29451909 0 7976.60029481 0 -406.26832597 0 1157.92096139 0 9204
0.09350000 0.09350330 19342.16018194 0 459.16002598 0 8582.83402881 0 195.62209529 0 2340.20928248 0 9349
0.09450000 0.09448040 18729.03881465 0 507.19599996 0 8374.80753885 0 -224.77308823 0 482.36835559 0 9564
0.09550000 0.09549270 18131.55603505 0 239.37686725 0 8540.89821315 0 355.18227283 0 1261.87875039 0 10155
0.09650000 0.09649430 18101.94253919 0 102.92919139 0 7701.81589042 0 1219.24418932 0 1206.14548573 0 9913
0.09750000 0.09749140 17395.43329359 0 56.79347218 0 7621.40471255 0 361.09831728 0 1628.89754860 0 10476
0.09850000 0.09850240 17792.16540843 0 392.91119749 0 7434.60677354 0 -340.66056867 0 389.83782681 0 10575
0.09950000 0.09950330 16921.95009587 0 370.13986103 0 7511.52422438 0 -407.04138240 0 611.26470093 0 10882
0.10050000 0.10051200 16471.53658781 0 446.83437881 0 7750.72806896 0 -147.23674861 0 -74.45343052 0 10875
0.10150000 0.10150300 16064.48965981 0 336.13536031 0 7821.34571993 0 -58.50373475 0 117.83509462 0 11118
0.10250000 0.10250800 15991.17684798 0 34.19926214 0 7695.87100886 0 580.17385764 0 390.76283264 0 11575
0.10350000 0.10349800 15450.59190872 0 45.95049622 0 7386.29351964 0 954.42411627 0 -708.55113496 0 11364
0.10450000 0.10450100 15802.62649986 0 18.15296205 0 6838.65457912 0 264.05034399 0 216.32048704 0 12093
0.10550000 0.10551000 15435.50788087 0 4.69834194 0 6548.06521908 0 78.00494270 0 -517.43761123 0 12067
0.10650000 0.10649700 15427.30039513 0 222.67907025 0 6365.98103878 0 373.40400030 0 647.03048373 0 12054
0.10750000 0.10749900 15157.78430929 0 86.93701634 0 6156.96743229 0 43.98480339 0 -683.53161288 0 12807
0.10850000 0.10850100 15217.89859675 0 311.78352829 0 6129.97145892 0 79.39999345 0 -353.74485371 0 12736
0.10950000 0.10950300 14766.15414505 0 260.56992638 0 6458.34852697 0 266.38282270 0 173.03598183 0 12933
0.11050000 0.11050200 14186.75001647 0 126.54390246 0 5405.71629820 0 568.69335968 0 -29.83975627 0 13428
0.11150000 0.11150900 14390.82804032 0 22.66330820 0 5528.38493645 0 872.02428678 0 819.11705910 0 13453
0.11250000 0.11250000 14126.41390507 0 35.53020578 0 4655.45228064 0 423.70146934 0 853.60513601 0 13668
0.11350000 0.11349100 13897.93524794 0 43.84205968 0 4489.18414719 0 1122.78404946 0 1843.71185110 0 13791
0.11450000 0.11448600 14019.49476649 0 140.38349801 0 3988.32787540 0 -38.27527702 0 1301.65178265 0 14205
0.11550000 0.11549300 13721.14156859 0 88.44142629 0 3675.72248941 0 129.71931215 0 1411.09971413 0 14776
0.11650000 0.11649800 13637.29211966 0 149.66128426 0 4025.49447637 0 -68.13899028 0 1410.29005675 0 14553
0.11750000 0.11747300 13528.82021350 0 -38.56941556 0 3444.10502354 0 7.76509117 0 943.95624459 0 14568
0.11850000 0.11849100 13626.97730649 0 -131.60814299 0 3409.00138520 0 92.27554216 0 227.01572826 0 16015
0.11950000 0.11950300 13592.59459596 0 213.70518280 0 3400.79389946 0 -238.31987619 0 -521.14318013 0 15270
0.12050000 0.12050700 13383.85826939 0 222.63692370 0 3779.90210235 0 -30.57410442 0 70.91123495 0 15999
0.12150000 0.12150000 13218.59943486 0 176.42545162 0 3198.47937593 0 -34.68505657 0 -863.62159597 0 15670
0.12250000 0.12250700 13010.41766814 0 54.40564839 0 3771.42842788 0 346.16402059 0 92.07479150 0 16887
0.12350000 0.12352200 12961.28366566 0 -36.67825557 0 3050.10134316 0 439.17479820 0 -203.10754411 0 16407
0.12450000 0.12449800 12924.34997982 0 -31.75121315 0 2887.17165999 0 707.24015548 0 669.32600783 0 16306
0.12550000 0.12549900 13074.19205060 0 90.23553831 0 2557.58565147 0 -84.73718833 0 27.52413617 0 17523
0.12650000 0.12650100 12675.90716818 0 309.03069321 0 3088.98707966 0 -631.54051807 0 516.83757747 0 17154
0.12750000 0.12750600 12549.24569904 0 129.10264160 0 3081.26760658 0 -133.09103602 0 843.47443672 0 18007
0.12850000 0.12850300 12479.26024629 0 -106.12767077 0 3146.08456155 0 210.94458388 0 -21.83734676 0 17496
0.12950000 0.12949900 12928.12098679 0 -232.91735415 0 2622.16969130 0 987.95169552 0 649.44836466 0 18405
0.13050000 0.13049000 12982.24602789 0 -235.47276593 0 2362.84641546 0 230.27543104 0 80.71751673 0 18100
0.13150000 0.13148800 13266.06975780 0 29.08766220 0 1948.23529114 0 -35.26113334 0 690.73090882 0 19059
0.13250000 0.13249300 13207.17550200 0 222.15556575 0 2603.48102444 0 -478.30897751 0 72.35142688 0 18957
0.13350000 0.13349100 12871.66679432 0 439.88796216 0 2939.64411275 0 -726.81611809 0 209.76891700 0 19468
0.13450000 0.13450700 12351.26783351 0 364.69075597 0 3270.98253038 0 -337.15020483 0 -367.76523577 0 19953
0.13550000 0.13551000 11883.10841033 0 265.02526020 0 3761.91218090 0 -83.62097027 0 36.13323415 0 19956
0.13650000 0.13649900 11538.72674508 0 314.85135337 0 3792.19114857 0 114.15392635 0 -434.20261461 0 19723
0.13750000 0.13749600 11231.72241356 0 317.59309725 0 4395.80736008 0 -88.50420246 0 165.69139121 0 20946
0.13850000 0.13851100 10750.66392832 0 237.89730158 0 4105.58400954 0 67.47717855 0 86.95964238 0 20955
0.13950000 0.13949800 10785.57901631 0 78.03644170 0 4036.85186205 0 281.72083896 0 -202.76926261 0 20506
0.14050000 0.14048300 10404.52985396 0 111.44878341 0 3917.85440999 0 -98.48472695 0 262.09940244 0 21447
0.14150000 0.14148400 10372.50956837 0 6.53974682 0 3399.61823258 0 368.33088681 0 -431.64720283 0 21771
0.14250000 0.14249400 10471.50959233 0 -83.26139367 0 3368.47415155 0 519.26433136 0 7.83451097 0 22470
0.14350000 0.14350900 10576.27703870 0 -94.51973495 0 2561.87794469 0 292.29407701 0 -249.93235939 0 22519
0.14450000 0.14449900 10487.08163285 0 127.87595521 0 2628.08129928 0 89.64515389 0 -504.89457660 0 22218
0.14550000 0.14550500 10256.78401941 0 269.41293771 0 2664.99280272 0 -291.65966055 0 -294.45131482 0 23559
0.14650000 0.14650700 9941.09528068 0 194.12478371 0 2509.81586622 0 85.94934525 0 -294.53560792 0 23044
0.14750000 0.14750500 9697.71005484 0 89.00164265 0 2912.10467073 0 254.36883817 0 89.96380398 0 23649
0.14850000 0.14849900 9715.89961784 0 41.08245897 0 2362.35840279 0 402.80787253 0 9.05356661 0 23640
0.14950000 0.14949500 9565.55844321 0 29.53752115 0 2432.27730835 0 162.55701895 0 287.93967309 0 24457
0.15050000 0.15050000 9628.81153940 0 61.52253674 0 2128.56706232 0 11.36293127 0 247.45347687 0 24591
0.15150000 0.15149900 9590.20308283 0 -33.79210430 0 2164.25853410 0 265.85709997 0 363.90882659 0 25020
0.15250000 0.15250500 9640.77894091 0 -5.07041832 0 1828.08435460 0 -88.41902207 0 138.88174995 0 25297
0.15350000 0.15350100 9591.50075287 0 96.36065182 0 2118.99535935 0 -166.58977816 0 -259.37984095 0 25452
0.15450000 0.15450400 9402.28493293 0 149.55924525 0 2205.10741246 0 -355.44624332 0 -142.02943164 0 26061
0.15550000 0.15549900 9297.39548339 0 220.27893523 0 2184.25596220 0 -78.99693935 0 -748.28091155 0 26128
0.15650000 0.15649500 9075.33862929 0 76.16790775 0 2416.38362312 0 -35.53220219 0 -456.85971173 0 26331
0.15750000 0.15749700 8974.87456734 0 169.77516993 0 2451.26543753 0 -38.26540586 0 -858.18580035 0 27345
0.15850000 0.15849900 8895.57250916 0 108.42088665 0 2682.77199143 0 59.27889851 0 -221.34479926 0 26980
0.15950000 0.15949700 8604.51731884 0 119.49433768 0 2260.11974932 0 -48.65486277 0 -368.85882779 0 27777
0.16050000 0.16050000 8704.00535547 0 87.87599707 0 2791.62099828 0 147.66708705 0 -21.84666336 0 28224
0.16150000 0.16150500 8605.87044487 0 -29.70033992 0 2694.75048413 0 11.69522353 0 -344.78871217 0 28075
0.16250000 0.16249700 8599.69264817 0 111.59075074 0 2700.72863929 0 233.55842534 0 86.01811067 0 28590
0.16350000 0.16349900 8531.58160771 0 41.60152699 0 2664.37169569 0 -49.87234346 0 434.31685394 0 29163
0.16450000 0.16449100 8463.52602323 0 83.48066663 0 2836.06342445 0 -132.79933754 0 523.82281331 0 28996
0.16550000 0.16550500 8570.76680653 0 -32.95660444 0 2541.33704794 0 374.63179580 0 489.13620397 0 30777
0.16650000 0.16650700 8499.77205486 0 -3.63664820 0 2866.51985127 0 248.35408206 0 484.39582640 0 29211
0.16750000 0.16749900 8350.47345274 0 150.94786311 0 2488.26567055 0 -188.18101126 0 457.88675657 0 30922
0.16850000 0.16850800 8365.24692708 0 122.20502621 0 2883.98848646 0 23.82222737 0 669.72861828 0 30867
0.16950000 0.16949900 8202.94944213 0 71.28157002 0 2789.69113001 0 -10.89352964 0 604.92608187 0 30852
0.17050000 0.17049200 8184.10549852 0 33.59556829 0 2770.72518323 0 172.60897075 0 452.30455715 0 31257
0.17150000 0.17149500 8154.74710020 0 -20.77436644 0 2643.43151585 0 188.21650309 0 548.07482456 0 32608
0.17250000 0.17250900 8112.51182222 0 91.83699623 0 2528.99254574 0 23.67815272 0 661.94037979 0 32361
0.17350000 0.17350400 8078.88331307 0 108.39393504 0 2767.40891534 0 -153.19937609 0 434.05510169 0 32508
0.17450000 0.17449800 7839.76819806 0 131.65916249 0 2439.58640714 0 39.56107948 0 763.92837220 0 32791
0.17550000 0.17549800 7838.54816640 0 19.59027026 0 2804.48678674 0 172.65555377 0 441.62817096 0 33633
0.17650000 0.17650100 7792.30896632 0 12.70385698 0 2331.99070555 0 186.28330746 0 479.72865072 0 33984
0.17750000 0.17750300 7702.35935907 0 146.13982923 0 2375.15764407 0 166.06627367 0 735.16778940 0 34069
0.17850000 0.17849800 7496.89493561 0 131.63032538 0 2146.96735806 0 98.08788392 0 728.21360891 0 34536
