### header ###
fiducial parameters:
Omega_m = 0.31
Omega_nu = 0
Omega_de = 0.69
Omega_k = 0
H_0 = 100
w_de = -1
zeff = 0
beta = 0
fgrowth = 0
b_1 = 2
gamma = 0.55
Lx = 3500 Ly = 3500 Lz = 3500
nx = 700 ny = 700 nz = 700
xoffset = 1379.75464 yoffset = 22.6059522 zoffset = 368.141391
bins = 400 dk = 0.001
kx_ny = 0.628318531 ky_ny = 0.628318531 kz_ny = 0.628318531
############################
A(data) = 3.31822329 (not used)
A(ran) = 3.32232883 (used)
Ngal = 186486
weighted Ngal = 0
Nran = 9399747
weighted Nran = 0
SN(data) = 6669.68539
SN(ran) = 132.146901
SN(data+ran) = 6801.83229
############################
13 columns: k_central k_mean P_0(k) sigma^{lin}_{P_0(k)} P^img_1(k) sigma^{lin}_{P_1(k)} P_2(k) sigma^{lin}_{P_2(k)} P^img_3(k) sigma^{lin}_{P_3(k)} P_4(k) sigma^{lin}_{P_4(k)} N_modes
### header ###
0.00050000 0 0 0 0 0 0 0 0 0 0 0 0
0.00150000 0.00179520 4483.70509589 0 -11386.44461098 0 -9276.59948911 0 17731.27473718 0 -8886.11171816 0 3
0.00250000 0.00253879 19939.31022564 0 -14618.08666579 0 4535.19043213 0 -17816.56604172 0 22629.14730952 0 6
0.00350000 0.00331552 34026.68311745 0 -14185.86272072 0 -27695.49516350 0 13674.44762943 0 21437.17637349 0 7
0.00450000 0.00420575 47404.99578837 0 -5666.15978494 0 -2906.47034268 0 -3019.25672444 0 17928.03257105 0 24
0.00550000 0.00557378 72097.21664223 0 -15351.88025588 0 -30548.81649040 0 24252.67671880 0 18165.49509771 0 45
0.00650000 0.00659388 62241.35721010 0 -13686.64794608 0 27186.85287145 0 7043.80844907 0 -18339.18324192 0 40
0.00750000 0.00754703 110557.05117988 0 -5716.13671839 0 -34432.62092576 0 -12102.27046202 0 6208.65241007 0 57
0.00850000 0.00846663 96366.97380433 0 1595.66832255 0 1154.67124069 0 -38342.04602607 0 -18278.07074673 0 75
0.00950000 0.00948925 87202.65050192 0 17902.41190610 0 5953.51051547 0 -45546.44391575 0 -16883.90729034 0 112
0.01050000 0.01054430 87434.45651814 0 3180.97746714 0 68136.55021202 0 -17888.10426203 0 -32288.80346764 0 105
0.01150000 0.01145670 82778.81568715 0 -4007.38255176 0 41148.67341381 0 11512.88425619 0 -53611.96233650 0 144
0.01250000 0.01249090 92587.53753225 0 -3493.53848834 0 64831.59534538 0 676.69721732 0 -42293.06311493 0 169
0.01350000 0.01339930 93026.52710746 0 -265.00196868 0 25132.76319664 0 9966.28338895 0 -37515.86276539 0 180
0.01450000 0.01448870 94796.23849252 0 -849.98940580 0 29111.61918985 0 7950.80217071 0 -32865.54570894 0 267
0.01550000 0.01550050 95555.54183559 0 106.39707594 0 20721.90508230 0 -4518.95291980 0 -54647.32557162 0 238
0.01650000 0.01653350 94744.44260277 0 1244.76503350 0 15243.18652579 0 -3012.42454712 0 -30549.37105025 0 315
0.01750000 0.01747870 81887.30527645 0 7474.98982163 0 21304.52565799 0 -7071.86917735 0 -47817.69922681 0 297
0.01850000 0.01844180 83801.64586972 0 2985.25111460 0 15001.95299217 0 -4014.94674807 0 -30539.72170890 0 388
0.01950000 0.01947590 79097.09286019 0 -139.64149694 0 22297.74234471 0 6354.86765944 0 -45646.93016010 0 399
0.02050000 0.02045430 79717.75624141 0 1111.48211977 0 5069.18720040 0 -4697.59882904 0 -36397.87011301 0 462
0.02150000 0.02154770 71049.54217850 0 5584.58403138 0 26861.32624102 0 -6161.65900860 0 -30585.19561639 0 571
0.02250000 0.02255340 70739.87595970 0 4973.51453552 0 28280.22306661 0 -11623.01984189 0 -24259.99690879 0 510
0.02350000 0.02348930 66572.35870641 0 -638.76865112 0 35224.64329983 0 7640.75885122 0 -21318.27874221 0 555
0.02450000 0.02439640 68701.42487259 0 1823.31513991 0 36086.76203861 0 7204.42007208 0 -11627.89996855 0 592
0.02550000 0.02547300 64735.98922769 0 5816.68950992 0 41278.32950614 0 -1681.30345418 0 -1315.83742354 0 837
0.02650000 0.02652900 59645.79530027 0 2875.00461693 0 50746.21886902 0 6492.06576569 0 9818.38227764 0 723
0.02750000 0.02749970 58103.67527659 0 -1572.01079946 0 42389.00196853 0 18924.24388094 0 24812.22760484 0 826
0.02850000 0.02848090 60845.19733825 0 -3101.50904101 0 31873.99270177 0 14774.80527867 0 21107.87873610 0 831
0.02950000 0.02946900 60970.63877574 0 -1614.76736369 0 30683.46362135 0 11803.14088033 0 26772.81848938 0 996
0.03050000 0.03053250 62299.80781801 0 3387.17390961 0 23424.38613071 0 -1493.70694900 0 28220.88516294 0 1041
0.03150000 0.03150510 57510.07441592 0 2783.91261640 0 23198.56936084 0 -1128.57365427 0 24691.66629401 0 1036
0.03250000 0.03246190 53720.21241872 0 681.48528705 0 20181.98561486 0 4496.92580266 0 24809.89845348 0 1059
0.03350000 0.03345080 53127.83158971 0 266.82647058 0 20853.00303023 0 -31.70762475 0 10823.64400424 0 1302
0.03450000 0.03451200 55244.25379137 0 -786.97587946 0 14511.38935115 0 5493.80258436 0 9948.57074742 0 1339
0.03550000 0.03553350 51428.54930527 0 1162.06906905 0 16375.59773420 0 1909.59356097 0 5545.65393010 0 1365
0.03650000 0.03647120 54027.88222206 0 1601.62429531 0 10021.55082334 0 -1043.06274404 0 10840.08115812 0 1308
0.03750000 0.03744890 48289.51874499 0 501.88997134 0 11371.91514298 0 1051.63180280 0 487.09431461 0 1579
0.03850000 0.03847530 49059.35872516 0 1638.36943080 0 12297.03188043 0 1007.89366763 0 4331.12349948 0 1662
0.03950000 0.03950240 46817.60599799 0 474.11428683 0 8919.24112344 0 1488.32771848 0 7473.88070194 0 1683
0.04050000 0.04050350 46250.18036212 0 301.82363343 0 12286.71706727 0 3309.36916302 0 7707.84950156 0 1822
0.04150000 0.04152450 46517.25638463 0 -138.86844051 0 5208.89191716 0 4340.63974646 0 12607.36357104 0 1887
0.04250000 0.04250150 45784.79373817 0 126.12687346 0 6913.94162401 0 4360.88118089 0 10486.10560752 0 1920
0.04350000 0.04349210 45937.85225606 0 235.47387505 0 4542.42189254 0 1152.22008616 0 16506.80659410 0 2005
0.04450000 0.04448520 45752.29653111 0 1077.22695800 0 5751.43999827 0 13.75208601 0 12177.57968930 0 2151
0.04550000 0.04548030 41689.14744110 0 2014.49410171 0 7399.09276092 0 -3556.63630778 0 12756.87290591 0 2274
0.04650000 0.04648670 39607.32977392 0 3828.23753865 0 9401.89674104 0 -6915.35020602 0 7275.50355332 0 2311
0.04750000 0.04749250 36656.29500191 0 2413.30027037 0 17623.57921482 0 -2619.29707129 0 5924.64012982 0 2568
0.04850000 0.04851840 33281.90924238 0 1335.80157805 0 17024.98731552 0 -752.90926803 0 5783.80411097 0 2493
0.04950000 0.04949480 32368.10552581 0 423.22565699 0 16831.44592878 0 3686.20367053 0 4476.69545942 0 2644
0.05050000 0.05050630 32552.99577894 0 -15.14203481 0 15611.74700038 0 3710.71521579 0 6209.65061780 0 2829
0.05150000 0.05149060 32134.08127021 0 19.08495532 0 13500.42674932 0 3226.37373625 0 4818.55942296 0 2784
0.05250000 0.05249300 31367.01408927 0 -83.98509427 0 10198.86578895 0 1759.88458456 0 8040.49668043 0 3055
0.05350000 0.05348950 31584.40154945 0 -99.92203516 0 10509.30839153 0 71.23287966 0 4099.42839523 0 3009
0.05450000 0.05448610 31712.50487421 0 1079.99088428 0 12750.21818774 0 -3125.67675916 0 4650.89379869 0 3336
0.05550000 0.05550870 30350.83862487 0 1103.58518755 0 12092.62112068 0 -3057.00006766 0 -276.87731326 0 3349
0.05650000 0.05647670 29398.10480702 0 50.59670953 0 15319.49396079 0 -648.19062293 0 299.60095756 0 3324
0.05750000 0.05747970 29850.40381857 0 -16.33955134 0 13640.61947874 0 328.16078971 0 -1692.03973283 0 3639
0.05850000 0.05849280 31518.63075155 0 -766.43720095 0 14872.29689984 0 3924.01002430 0 -465.58404725 0 3846
0.05950000 0.05951020 31563.77192313 0 -653.78835003 0 12843.93880195 0 1987.66449629 0 1254.90238751 0 3787
0.06050000 0.06049470 32877.63511362 0 -450.81611852 0 10691.04874472 0 1238.42086884 0 1673.04051246 0 3930
0.06150000 0.06148310 33053.43058525 0 -488.57166205 0 11142.32736615 0 1319.09823545 0 3523.42926412 0 4083
0.06250000 0.06249100 32973.68487919 0 500.92947369 0 10396.47764498 0 161.28929514 0 581.91850292 0 4303
0.06350000 0.06350600 32805.54233345 0 711.99606073 0 10423.49580074 0 -761.77778911 0 2952.34353325 0 4470
0.06450000 0.06451750 31697.64267029 0 1067.88151545 0 11147.65114069 0 -329.06472226 0 1676.03513563 0 4479
0.06550000 0.06550280 29886.33929668 0 667.54143424 0 11106.17006410 0 -130.41916667 0 55.96251971 0 4636
0.06650000 0.06648880 29447.01698556 0 693.06782402 0 11561.57461080 0 -132.02628111 0 2556.69835572 0 4653
0.06750000 0.06749660 28272.79196465 0 151.84181358 0 10175.68518733 0 1878.09456164 0 -1691.66263213 0 5220
0.06850000 0.06852730 28849.75602990 0 -414.78747435 0 9832.17972665 0 2254.30796212 0 3503.64256876 0 5029
0.06950000 0.06949320 28168.31288940 0 215.18696671 0 7216.77566548 0 905.20360245 0 -1684.65299566 0 5040
0.07050000 0.07048030 28830.45734721 0 318.43380998 0 8427.18017084 0 411.96920121 0 3396.55706223 0 5475
0.07150000 0.07148790 27848.44276941 0 416.19051076 0 7630.82113876 0 -362.81412545 0 -476.99577979 0 5509
0.07250000 0.07249820 27811.28725964 0 -295.02694794 0 6570.34743375 0 749.03511294 0 3257.86164439 0 5916
0.07350000 0.07351270 28242.95664486 0 -198.47918763 0 8455.68454699 0 814.49646645 0 1094.93849040 0 5721
0.07450000 0.07449140 28416.42296513 0 230.29983167 0 5541.22854251 0 -257.66625102 0 55.06380002 0 6028
0.07550000 0.07549160 27795.53775997 0 663.61404140 0 9145.26862605 0 -289.24288873 0 2907.53509758 0 6183
0.07650000 0.07648840 26871.41923025 0 454.00040116 0 6495.58167512 0 -776.42704204 0 233.56840741 0 6330
0.07750000 0.07749960 26674.88322032 0 899.13560860 0 9752.33419981 0 -491.43097262 0 2554.67975787 0 6583
0.07850000 0.07848650 25405.71755354 0 1091.00666109 0 8858.99374162 0 -657.04361633 0 -882.22486061 0 6549
0.07950000 0.07947320 24138.88103811 0 624.21700072 0 10969.95907438 0 232.54136258 0 2981.34701327 0 6828
0.08050000 0.08048110 23664.51054464 0 -2.05149433 0 9184.01017699 0 1264.58500245 0 1505.50798255 0 7147
0.08150000 0.08149960 23923.04634550 0 -191.56382633 0 9900.51259104 0 1342.83339692 0 2438.78784096 0 7386
0.08250000 0.08250610 23660.51771373 0 78.65533049 0 8004.28392240 0 797.92399997 0 504.58402308 0 7227
0.08350000 0.08350160 23524.42872718 0 449.02821757 0 8741.33832439 0 -974.11764557 0 -259.53955419 0 7798
0.08450000 0.08449610 22767.56544743 0 896.24524268 0 8678.61760565 0 -1791.50558706 0 1300.03246789 0 7371
0.08550000 0.08548940 21745.06800078 0 572.69506354 0 9268.17017943 0 -76.05267021 0 -2538.18714801 0 8256
0.08650000 0.08650700 21643.69446067 0 35.88079851 0 9985.26042692 0 493.82778028 0 -733.76808034 0 8037
0.08750000 0.08749060 21082.25807115 0 280.94778254 0 9034.97776360 0 767.52857473 0 -2422.97179411 0 8155
0.08850000 0.08849210 21094.79112370 0 401.25621407 0 9358.30833703 0 741.50197197 0 -77.74585234 0 8718
0.08950000 0.08949900 20012.95577337 0 379.79252974 0 7904.00841079 0 239.76616827 0 -1427.64777998 0 8571
0.09050000 0.09049190 20182.31835077 0 265.60976628 0 8938.73944768 0 1167.29302282 0 1247.19400563 0 8932
0.09150000 0.09150830 19039.81415314 0 648.82393027 0 8063.23363418 0 -266.15212581 0 318.64897920 0 9285
0.09250000 0.09250820 18569.65831450 0 582.60615713 0 8487.70483258 0 255.34929998 0 797.34725773 0 9204
0.09350000 0.09350330 17669.60768215 0 101.56830153 0 7871.79957485 0 1128.22982716 0 1578.35496411 0 9349
0.09450000 0.09448040 17869.80378707 0 -3.91007948 0 7390.81872799 0 438.82875285 0 1478.95565706 0 9564
0.09550000 0.09549270 17618.92091210 0 263.81410149 0 7578.86997225 0 1104.32497038 0 1913.29802075 0 10155
0.09650000 0.09649430 17180.37498477 0 212.79126817 0 6208.02021184 0 330.30028160 0 1615.49938269 0 9913
0.09750000 0.09749140 16834.32963998 0 382.39008806 0 7224.31767941 0 -211.34386697 0 2822.28815784 0 10476
0.09850000 0.09850240 16531.31813936 0 228.42098291 0 7194.78182193 0 219.63675493 0 2332.17925589 0 10575
0.09950000 0.09950330 16275.33331379 0 -40.05863058 0 6413.32935855 0 235.64024300 0 2763.73772915 0 10882
0.10050000 0.10051200 16135.25149634 0 -103.89700924 0 6256.12273301 0 1032.76678591 0 2221.30056000 0 10875
0.10150000 0.10150300 16691.69684723 0 -57.87630574 0 6444.17397727 0 212.09917748 0 3093.65647357 0 11118
0.10250000 0.10250800 16645.89020383 0 -109.17486622 0 5232.72689940 0 723.62407161 0 2992.50475740 0 11575
0.10350000 0.10349800 16844.75536511 0 -3.28143044 0 5657.91902561 0 189.54855585 0 2728.19044293 0 11364
0.10450000 0.10450100 16561.92984293 0 193.96396135 0 5343.22849459 0 -192.67405515 0 2585.30255265 0 12093
0.10550000 0.10551000 16485.73331990 0 466.78300564 0 6097.87353495 0 -210.90132821 0 2690.92402118 0 12067
0.10650000 0.10649700 15623.61458111 0 466.05764136 0 6779.97105607 0 -826.48161387 0 2711.74219786 0 12054
0.10750000 0.10749900 15364.52422040 0 437.58210232 0 6784.84009153 0 378.05121182 0 2524.88880287 0 12807
0.10850000 0.10850100 14850.44724185 0 228.60509678 0 7089.13817100 0 491.36109808 0 3497.98605832 0 12736
0.10950000 0.10950300 14566.73442392 0 25.35613990 0 6568.12919436 0 439.35558471 0 3104.28184025 0 12933
0.11050000 0.11050200 14546.88118138 0 60.65043592 0 6707.30153367 0 434.42111119 0 3210.14731512 0 13428
0.11150000 0.11150900 14347.46146025 0 145.13607591 0 5665.87141382 0 130.71308339 0 3160.30347603 0 13453
0.11250000 0.11250000 14500.63089011 0 -19.97968218 0 5792.95434845 0 362.55126408 0 2808.42416165 0 13668
0.11350000 0.11349100 14230.00568457 0 -31.65538521 0 5663.50898887 0 344.49812281 0 2911.26173976 0 13791
0.11450000 0.11448600 14393.15719168 0 44.35425116 0 5273.78651050 0 207.59726064 0 2067.05528404 0 14205
0.11550000 0.11549300 14245.08971242 0 74.12246920 0 5280.10849276 0 -167.13435593 0 2263.01455172 0 14776
0.11650000 0.11649800 14103.67695133 0 180.37280861 0 5566.38337719 0 -127.38350607 0 1747.85063587 0 14553
0.11750000 0.11747300 14067.74147322 0 50.45529677 0 4652.41329267 0 148.66973125 0 1253.68235585 0 14568
0.11850000 0.11849100 14186.41728056 0 -78.94259249 0 5342.44101961 0 98.36361108 0 1629.33010528 0 16015
0.11950000 0.11950300 14140.16698929 0 -8.92358887 0 4752.74426027 0 358.76472944 0 746.26231370 0 15270
0.12050000 0.12050700 14284.79619749 0 55.84417663 0 4420.81800920 0 -228.39436404 0 399.47053136 0 15999
0.12150000 0.12150000 14207.26873083 0 125.73979068 0 4654.75353523 0 -146.66444284 0 -159.57570521 0 15670
0.12250000 0.12250700 13704.39386119 0 127.59978441 0 4513.49605090 0 271.81307273 0 73.66839560 0 16887
0.12350000 0.12352200 13912.68653988 0 -26.88861059 0 4083.80089873 0 374.27798662 0 134.59389321 0 16407
0.12450000 0.12449800 13798.77994722 0 120.79089860 0 3877.16080839 0 456.13878393 0 -83.02637120 0 16306
0.12550000 0.12549900 13329.62231631 0 457.60836753 0 3848.94480335 0 -234.93595200 0 -282.77893915 0 17523
0.12650000 0.12650100 13048.01682580 0 228.49196657 0 4110.30885944 0 128.11996155 0 724.18528618 0 17154
0.12750000 0.12750600 12630.21143676 0 -6.00633789 0 3712.00179463 0 518.83842940 0 612.95721758 0 18007
0.12850000 0.12850300 12856.02820662 0 72.96066632 0 3706.68911129 0 398.91708064 0 886.50384440 0 17496
0.12950000 0.12949900 12399.95818811 0 330.79716722 0 3410.58742637 0 34.36618466 0 578.84624137 0 18405
0.13050000 0.13049000 12112.58527518 0 232.13986125 0 3465.78831358 0 65.57137818 0 1674.22727053 0 18100
0.13150000 0.13148800 11917.93476874 0 94.69708319 0 4028.31164040 0 -390.55099078 0 1188.53266497 0 19059
0.13250000 0.13249300 11888.65400880 0 111.19701324 0 3551.95582267 0 -0.50830956 0 621.50520307 0 18957
0.13350000 0.13349100 11661.39538333 0 132.24699593 0 3842.82246264 0 190.16411728 0 638.44922465 0 19468
0.13450000 0.13450700 11572.22215987 0 111.37669063 0 3732.33195864 0 -136.20988060 0 435.15645755 0 19953
0.13550000 0.13551000 11350.28730893 0 108.30010351 0 3981.97261955 0 147.20458414 0 628.71559021 0 19956
0.13650000 0.13649900 11308.91714432 0 65.56549985 0 3602.64259272 0 360.87538422 0 933.41184365 0 19723
0.13750000 0.13749600 11101.62267335 0 -39.79499283 0 3368.00832128 0 363.07255034 0 -42.56346650 0 20946
0.13850000 0.13851100 11342.63438304 0 62.24035900 0 3307.78312185 0 258.81862639 0 1062.23720532 0 20955
0.13950000 0.13949800 11065.63173926 0 36.30858598 0 2869.72520719 0 180.06114598 0 745.94399635 0 20506
0.14050000 0.14048300 11269.43248318 0 -105.33697934 0 2657.81679829 0 431.82022550 0 1354.07987062 0 21447
0.14150000 0.14148400 11285.95836663 0 -58.49885462 0 2381.15798162 0 523.34145536 0 909.19421511 0 21771
0.14250000 0.14249400 11197.56152696 0 155.59063815 0 1909.70447294 0 -275.06501168 0 1080.20827174 0 22470
0.14350000 0.14350900 11080.23884564 0 171.08393117 0 2670.15020930 0 -37.34461468 0 1171.27476252 0 22519
0.14450000 0.14449900 10933.92377550 0 -19.66447037 0 2112.27409400 0 -0.71294325 0 1171.00857379 0 22218
0.14550000 0.14550500 11092.97153973 0 -2.05758340 0 2376.94332678 0 235.15001210 0 1330.51107711 0 23559
0.14650000 0.14650700 11021.22258668 0 73.75634879 0 2302.79867518 0 -80.07655646 0 852.25533734 0 23044
0.14750000 0.14750500 10849.49758433 0 217.31758564 0 2472.24998215 0 -20.01206848 0 1600.31553407 0 23649
0.14850000 0.14849900 10828.93450518 0 166.30917088 0 2131.04039924 0 172.02335555 0 1126.01158777 0 23640
0.14950000 0.14949500 10488.56785324 0 235.60918765 0 3005.64782579 0 -327.34225937 0 1194.87682963 0 24457
0.15050000 0.15050000 10144.01982004 0 261.51156900 0 2708.33720039 0 -92.90995863 0 1501.43751327 0 24591
0.15150000 0.15149900 10046.18437176 0 172.42818424 0 3358.03733523 0 -168.23903915 0 1498.99744995 0 25020
0.15250000 0.15250500 9646.33563058 0 80.34219063 0 3054.42690996 0 -95.23511716 0 922.47481434 0 25297
0.15350000 0.15350100 9732.83587558 0 181.90228467 0 3371.02512685 0 40.58989891 0 565.14306754 0 25452
0.15450000 0.15450400 9506.93037614 0 69.48124693 0 3321.86894198 0 -89.94772175 0 586.99716201 0 26061
0.15550000 0.15549900 9425.48771695 0 44.77638211 0 3084.31768574 0 108.61742266 0 292.38169747 0 26128
0.15650000 0.15649500 9330.50270628 0 55.85027679 0 2895.63424326 0 400.92347816 0 853.54746178 0 26331
0.15750000 0.15749700 9309.54034405 0 -94.02983678 0 2144.61602430 0 694.22241762 0 512.94678558 0 27345
0.15850000 0.15849900 9377.29646621 0 5.73502503 0 2258.87753526 0 417.16320874 0 855.59933322 0 26980
0.15950000 0.15949700 9156.71474130 0 66.54718169 0 1526.29288564 0 219.39940331 0 863.55172143 0 27777
0.16050000 0.16050000 9082.65881928 0 82.23767619 0 1457.51637336 0 242.57778669 0 1152.14244778 0 28224
0.16150000 0.16150500 9047.28899221 0 -49.77241178 0 1254.92456990 0 21.79586568 0 1080.58426331 0 28075
0.16250000 0.16249700 9134.79853613 0 3.41637703 0 1010.20174572 0 146.29510599 0 666.42898719 0 28590
0.16350000 0.16349900 9134.52125621 0 183.72789569 0 1035.08484607 0 -372.97144362 0 567.55429376 0 29163
0.16450000 0.16449100 8818.24468403 0 170.95749152 0 1382.27369326 0 -517.65388957 0 -309.19595204 0 28996
0.16550000 0.16550500 8706.53414837 0 173.52288537 0 1579.76354612 0 -204.19780877 0 -359.94926928 0 30777
0.16650000 0.16650700 8531.11577744 0 139.76460922 0 1789.91954590 0 -238.91214610 0 -503.40946533 0 29211
0.16750000 0.16749900 8413.83746091 0 89.86331774 0 1734.50792594 0 188.13220999 0 -392.47864081 0 30922
0.16850000 0.16850800 8279.77816339 0 131.43622943 0 1747.46244398 0 202.89570225 0 -173.72807252 0 30867
0.16950000 0.16949900 8227.16152507 0 41.58733025 0 1817.42571433 0 167.77875448 0 148.82611713 0 30852
0.17050000 0.17049200 8018.17010098 0 146.89070326 0 1986.05627273 0 88.76573289 0 326.05900788 0 31257
0.17150000 0.17149500 7957.11306178 0 126.39749866 0 1839.51937865 0 -75.78315412 0 523.10299463 0 32608
0.17250000 0.17250900 7825.24982126 0 112.13311027 0 2144.00600847 0 -138.69874520 0 950.31926428 0 32361
0.17350000 0.17350400 7809.51141279 0 66.37726455 0 2129.24362533 0 139.11466508 0 714.83873451 0 32508
0.17450000 0.17449800 7772.03425830 0 35.63945407 0 2516.85877628 0 6.28857558 0 1356.10955966 0 32791
0.17550000 0.17549800 7744.97173775 0 -39.50917268 0 2212.27232569 0 343.27254555 0 1114.90929963 0 33633
0.17650000 0.17650100 7879.89614862 0 -12.19665655 0 2330.50448515 0 172.79641197 0 1513.73765069 0 33984
0.17750000 0.17750300 7823.44195616 0 104.51578711 0 2110.47732010 0 2.85665978 0 1369.11953368 0 34069
0.17850000 0.17849800 7689.97049208 0 120.63340361 0 2363.10151299 0 -355.01257752 0 1486.22039106 0 34536
