### header ###
fiducial parameters:
Omega_m = 0.31
Omega_nu = 0
Omega_de = 0.69
Omega_k = 0
H_0 = 100
w_de = -1
zeff = 0
beta = 0
fgrowth = 0
b_1 = 2
gamma = 0.55
Lx = 3500 Ly = 3500 Lz = 3500
nx = 700 ny = 700 nz = 700
xoffset = 1379.75464 yoffset = 22.6059522 zoffset = 368.141391
bins = 400 dk = 0.001
kx_ny = 0.628318531 ky_ny = 0.628318531 kz_ny = 0.628318531
############################
A(data) = 3.33124066 (not used)
A(ran) = 3.33862032 (used)
Ngal = 187680
weighted Ngal = 0
Nran = 9399747
weighted Nran = 0
SN(data) = 6589.18288
SN(ran) = 132.794901
SN(data+ran) = 6721.97778
############################
13 columns: k_central k_mean P_0(k) sigma^{lin}_{P_0(k)} P^img_1(k) sigma^{lin}_{P_1(k)} P_2(k) sigma^{lin}_{P_2(k)} P^img_3(k) sigma^{lin}_{P_3(k)} P_4(k) sigma^{lin}_{P_4(k)} N_modes
### header ###
0.00050000 0 0 0 0 0 0 0 0 0 0 0 0
0.00150000 0.00179520 26529.03398045 0 -6857.08814845 0 39763.60473892 0 -48256.91062596 0 132707.28060518 0 3
0.00250000 0.00253879 22340.66527690 0 2634.91347660 0 -6606.49364460 0 26067.64018741 0 -46385.49296489 0 6
0.00350000 0.00331552 30762.65476756 0 1261.90093278 0 51867.31705655 0 -33587.36080633 0 48524.31938438 0 7
0.00450000 0.00420575 26153.70787573 0 976.44236045 0 12442.99203227 0 26007.30407601 0 -10269.46125753 0 24
0.00550000 0.00557378 40469.33760074 0 -2604.21304344 0 43396.74812325 0 22508.47508672 0 19433.10799692 0 45
0.00650000 0.00659388 31006.99383633 0 -3172.95853175 0 -28451.69297143 0 618.53054405 0 -17501.79787233 0 40
0.00750000 0.00754703 54517.11491945 0 -911.92375868 0 74001.13151036 0 17060.92279363 0 47498.93822652 0 57
0.00850000 0.00846663 47215.11449661 0 -3148.08097700 0 -1159.86192086 0 5547.45070400 0 305.48151019 0 75
0.00950000 0.00948925 54478.40664210 0 -415.71137106 0 26361.88964244 0 28151.01062216 0 26026.60275870 0 112
0.01050000 0.01054430 60365.17033434 0 -6717.98235633 0 30613.81090451 0 7509.25052901 0 36424.59989766 0 105
0.01150000 0.01145670 59676.40700385 0 -1994.52994720 0 -12692.21122770 0 13306.44171469 0 3319.39560506 0 144
0.01250000 0.01249090 67290.18097290 0 1110.52827683 0 20836.14441087 0 -3121.72829305 0 26745.53414488 0 169
0.01350000 0.01339930 55133.23090992 0 167.82422838 0 -5862.21887339 0 -9816.99587802 0 -4025.71630031 0 180
0.01450000 0.01448870 60950.56370926 0 1962.29892887 0 18183.57374873 0 2178.31108063 0 25902.82500076 0 267
0.01550000 0.01550050 59180.07594042 0 2125.11770007 0 -3035.94897585 0 -13698.18279090 0 -35243.16559873 0 238
0.01650000 0.01653350 61989.14339149 0 3314.80384952 0 28145.35411172 0 992.83293130 0 22037.87560021 0 315
0.01750000 0.01747870 51794.78062850 0 3307.67220988 0 25614.67570404 0 -12676.12899212 0 -21328.81537931 0 297
0.01850000 0.01844180 58845.34361652 0 1945.48467429 0 40261.48856993 0 5887.98372390 0 18132.11059489 0 388
0.01950000 0.01947590 54188.26092993 0 -1739.46569098 0 43212.74516588 0 8231.75328061 0 8337.47456992 0 399
0.02050000 0.02045430 57378.75464406 0 1012.83368676 0 34227.65560615 0 10810.22365593 0 12647.62461597 0 462
0.02150000 0.02154770 61604.05703345 0 -2351.92158646 0 42529.08378599 0 13690.08621713 0 30686.23642059 0 571
0.02250000 0.02255340 62480.92706418 0 -2503.93753183 0 20751.18584225 0 13409.36802237 0 20600.56738769 0 510
0.02350000 0.02348930 69447.75151523 0 -1057.24505758 0 31978.24995308 0 5850.70621096 0 42761.22253812 0 555
0.02450000 0.02439640 59421.86403389 0 5893.79551110 0 26888.94332142 0 -364.34249239 0 19355.69144222 0 592
0.02550000 0.02547300 59788.76082894 0 7111.33165609 0 40715.67308496 0 -4721.79982078 0 37344.17103663 0 837
0.02650000 0.02652900 51324.51387790 0 -635.22390458 0 37529.06128976 0 8935.38990620 0 29718.86222276 0 723
0.02750000 0.02749970 52147.03704358 0 -2103.54532200 0 30328.87805491 0 12804.01049294 0 28221.99428263 0 826
0.02850000 0.02848090 55837.96556401 0 -549.71743082 0 26228.12980725 0 4378.36090728 0 16912.07893059 0 831
0.02950000 0.02946900 52293.44084330 0 1537.45062977 0 21518.36393516 0 512.50535594 0 16466.65646115 0 996
0.03050000 0.03053250 51017.62045834 0 2289.87743073 0 25493.67074534 0 -2564.71729111 0 15507.26792513 0 1041
0.03150000 0.03150510 51062.87254189 0 115.73664015 0 20178.21460790 0 1438.19550828 0 221.16290363 0 1036
0.03250000 0.03246190 47790.52579429 0 409.85965555 0 18289.82741550 0 2042.68792435 0 1389.70479522 0 1059
0.03350000 0.03345080 46895.79893647 0 272.87339116 0 15806.39750682 0 916.07075722 0 -1491.04506173 0 1302
0.03450000 0.03451200 48612.49440012 0 -628.20872251 0 12402.95281129 0 3101.60886178 0 -5047.33754241 0 1339
0.03550000 0.03553350 48143.00403330 0 -187.27818783 0 9014.05976615 0 2200.14964742 0 -10738.80743878 0 1365
0.03650000 0.03647120 45981.88430794 0 878.60802129 0 6291.58128965 0 882.32911786 0 -1475.51738601 0 1308
0.03750000 0.03744890 46285.78310432 0 -11.38733191 0 1757.89926031 0 3273.22295216 0 -3753.02813214 0 1579
0.03850000 0.03847530 45926.42832320 0 -79.40287716 0 3726.22070912 0 2512.47775348 0 -3981.59551885 0 1662
0.03950000 0.03950240 45527.58888094 0 905.07938104 0 1392.57741523 0 -3511.35095064 0 -6668.71525948 0 1683
0.04050000 0.04050350 43562.89425353 0 2814.42449920 0 4593.19739217 0 -2092.15466274 0 -3573.78329826 0 1822
0.04150000 0.04152450 40433.40212262 0 1496.54629542 0 8626.43352401 0 -2423.82581628 0 -877.59095853 0 1887
0.04250000 0.04250150 40509.70955763 0 -124.32233571 0 9888.21245363 0 -1229.00444264 0 391.33957488 0 1920
0.04350000 0.04349210 38736.89263742 0 -122.29819227 0 10277.40255454 0 2324.50414761 0 -2379.26138694 0 2005
0.04450000 0.04448520 41224.53720094 0 776.74646852 0 12461.29250724 0 1219.48819565 0 586.50582198 0 2151
0.04550000 0.04548030 38519.39426527 0 1539.35831564 0 13401.71509648 0 -4092.30784679 0 -1461.23192434 0 2274
0.04650000 0.04648670 38554.99700747 0 2559.92589403 0 17568.34505402 0 -3749.85604982 0 -1597.22109012 0 2311
0.04750000 0.04749250 34759.70032376 0 1314.09610562 0 20500.41387925 0 -1325.83059199 0 649.20103097 0 2568
0.04850000 0.04851840 32305.21843912 0 502.34138306 0 16901.76411743 0 1603.99781146 0 -2690.01454303 0 2493
0.04950000 0.04949480 34143.47342132 0 -399.07124827 0 17961.63889780 0 2740.22439162 0 -5444.86822343 0 2644
0.05050000 0.05050630 33085.15140852 0 0.70093037 0 15012.15689336 0 890.37799949 0 -6251.25369755 0 2829
0.05150000 0.05149060 34237.19403553 0 332.45197380 0 13814.30762295 0 942.06519551 0 -4533.12746950 0 2784
0.05250000 0.05249300 33069.84555673 0 -653.88927992 0 11271.76163454 0 3252.95933534 0 -4209.18688023 0 3055
0.05350000 0.05348950 33458.92474567 0 -919.56004778 0 7494.04449799 0 2218.31702802 0 -10314.33624038 0 3009
0.05450000 0.05448610 35045.52046912 0 532.29316042 0 8808.45115713 0 -1649.94864041 0 -8349.84125452 0 3336
0.05550000 0.05550870 32546.78470865 0 1047.05446582 0 6692.97170721 0 -2448.42609111 0 -9547.87907527 0 3349
0.05650000 0.05647670 32921.44534156 0 827.05724699 0 11435.91134937 0 -1439.10498643 0 -7472.20593120 0 3324
0.05750000 0.05747970 32361.45080765 0 -265.67409522 0 10611.94632809 0 -230.08022597 0 -11796.04251428 0 3639
0.05850000 0.05849280 33067.51640537 0 33.03989932 0 11731.93539592 0 535.97100133 0 -10168.05444383 0 3846
0.05950000 0.05951020 32670.56246659 0 109.80750809 0 11606.16122253 0 80.07855288 0 -5938.30448446 0 3787
0.06050000 0.06049470 32603.79346096 0 -84.91431475 0 11743.47024075 0 1444.53967293 0 -6425.89568469 0 3930
0.06150000 0.06148310 32860.88740622 0 504.18030351 0 13543.90424135 0 845.64165660 0 -4110.15358268 0 4083
0.06250000 0.06249100 32665.23869206 0 700.64200242 0 13071.30833939 0 63.31321048 0 -2463.64321332 0 4303
0.06350000 0.06350600 31176.35641373 0 526.04438006 0 13386.52015666 0 1117.22735979 0 775.39445161 0 4470
0.06450000 0.06451750 31343.94439962 0 276.11423891 0 13439.53607807 0 1105.92321186 0 1930.25646088 0 4479
0.06550000 0.06550280 30851.49525511 0 -16.48551150 0 12458.74153194 0 2072.64524731 0 1345.91674967 0 4636
0.06650000 0.06648880 31102.93268993 0 -101.61166811 0 12499.33531277 0 1491.30015926 0 4446.20575901 0 4653
0.06750000 0.06749660 30312.46308343 0 494.18048034 0 10075.24330777 0 158.22812478 0 3168.49987058 0 5220
0.06850000 0.06852730 30078.43882782 0 468.98682648 0 11414.61625123 0 242.84841190 0 3410.60960876 0 5029
0.06950000 0.06949320 29126.48139376 0 970.38434868 0 12495.23156990 0 -718.42895496 0 1636.26210338 0 5040
0.07050000 0.07048030 28205.57931115 0 161.68303263 0 10359.07812887 0 265.42232505 0 2886.00708431 0 5475
0.07150000 0.07148790 28321.92596713 0 -193.66006255 0 11564.23649806 0 1288.48653187 0 22.76179803 0 5509
0.07250000 0.07249820 29081.67295809 0 -110.74770886 0 8848.45710452 0 64.48299903 0 1816.63823935 0 5916
0.07350000 0.07351270 28533.87874081 0 148.87602752 0 10060.92457251 0 898.04756218 0 -326.19432049 0 5721
0.07450000 0.07449140 28313.16392154 0 607.45487478 0 10835.92195926 0 -1251.23120132 0 -123.81879537 0 6028
0.07550000 0.07549160 27624.51150303 0 347.76115295 0 9973.41502858 0 -314.61843823 0 1577.92240743 0 6183
0.07650000 0.07648840 27941.05426393 0 -42.67005290 0 11258.67402214 0 1026.48251372 0 -1517.80811997 0 6330
0.07750000 0.07749960 27299.42852048 0 386.12671232 0 10219.79487759 0 -946.69466111 0 -1405.53193326 0 6583
0.07850000 0.07848650 26856.77885027 0 669.34153551 0 10699.21186568 0 680.22976355 0 -2321.06587655 0 6549
0.07950000 0.07947320 25924.00918693 0 435.33391670 0 10798.89954385 0 -526.08541749 0 -2300.41406783 0 6828
0.08050000 0.08048110 25305.67495706 0 304.22820493 0 9077.87851339 0 975.46966248 0 -3363.68275447 0 7147
0.08150000 0.08149960 25225.37469116 0 90.67230964 0 9570.08365156 0 1389.90443676 0 -2296.73179045 0 7386
0.08250000 0.08250610 24377.00903659 0 428.33204406 0 7666.06896266 0 -36.05359936 0 -3051.47665158 0 7227
0.08350000 0.08350160 23768.21323610 0 580.43560989 0 6870.78577668 0 1033.34685551 0 -1427.01558175 0 7798
0.08450000 0.08449610 23461.31981654 0 135.57546414 0 7234.26648307 0 1723.80492089 0 -1092.86221834 0 7371
0.08550000 0.08548940 22771.00371849 0 -75.63275749 0 4729.81875618 0 1391.41283955 0 -1223.10392586 0 8256
0.08650000 0.08650700 22496.27477008 0 420.42402064 0 4987.63362924 0 762.50648075 0 -205.74835811 0 8037
0.08750000 0.08749060 21593.89498637 0 739.61868673 0 4132.66871248 0 -754.52858279 0 -137.56189751 0 8155
0.08850000 0.08849210 20852.00482251 0 873.57816347 0 4993.29013968 0 -68.42969055 0 639.30879241 0 8718
0.08950000 0.08949900 20019.38866760 0 269.01365462 0 4130.06228120 0 565.27948926 0 942.51217074 0 8571
0.09050000 0.09049190 19556.66393092 0 34.03544516 0 4129.94027803 0 908.51543386 0 -2.77082500 0 8932
0.09150000 0.09150830 19691.86562172 0 275.05946608 0 4233.45441915 0 -546.47880131 0 -281.72638456 0 9285
0.09250000 0.09250820 18861.02405833 0 522.15691553 0 3698.63690231 0 -322.33347483 0 -1224.62341984 0 9204
0.09350000 0.09350330 17962.08254568 0 304.96798777 0 4071.87786201 0 2.58975012 0 271.48366418 0 9349
0.09450000 0.09448040 18264.87222236 0 -3.96584602 0 3504.13058143 0 -20.79455242 0 -1331.78656475 0 9564
0.09550000 0.09549270 18103.60621874 0 245.28736611 0 4645.75857451 0 113.59160266 0 -1374.86477370 0 10155
0.09650000 0.09649430 17393.65870208 0 614.63531568 0 4285.12830573 0 -606.54650575 0 -820.90385093 0 9913
0.09750000 0.09749140 16867.71414280 0 288.83251445 0 4403.34937400 0 373.91863184 0 34.74361809 0 10476
0.09850000 0.09850240 16925.38836693 0 -289.89283288 0 4066.18807798 0 1336.79978578 0 -911.82504703 0 10575
0.09950000 0.09950330 17100.29654280 0 81.12866741 0 4518.84200783 0 92.15353900 0 362.15087187 0 10882
0.10050000 0.10051200 16837.43517513 0 251.25553919 0 4132.05869665 0 -321.64027502 0 32.40282097 0 10875
0.10150000 0.10150300 16532.09452314 0 154.01679730 0 4731.57116529 0 -256.54493101 0 1085.99787654 0 11118
0.10250000 0.10250800 16407.20764551 0 449.10141947 0 4463.69657660 0 -375.51465508 0 69.14351998 0 11575
0.10350000 0.10349800 16167.85961536 0 161.93147544 0 5038.70859118 0 -461.47919526 0 -695.63987259 0 11364
0.10450000 0.10450100 15759.14900782 0 187.56434071 0 5645.44142904 0 -283.44441097 0 -690.50243017 0 12093
0.10550000 0.10551000 15676.96323843 0 136.64354640 0 5375.92534320 0 -1.41353978 0 -1323.09106635 0 12067
0.10650000 0.10649700 15698.48016051 0 -20.34680080 0 5251.14937753 0 616.92342961 0 -1630.32831301 0 12054
0.10750000 0.10749900 15491.62933743 0 -30.75566731 0 4825.40269148 0 -78.68804952 0 -2451.17670795 0 12807
0.10850000 0.10850100 15528.11937539 0 239.09625997 0 5458.37730131 0 -416.70514230 0 -2235.78566322 0 12736
0.10950000 0.10950300 15140.92568993 0 309.50539644 0 4606.22954858 0 -432.52451651 0 -3344.31752460 0 12933
0.11050000 0.11050200 14969.01213723 0 163.36113073 0 5137.69752395 0 296.08172077 0 -3012.34690874 0 13428
0.11150000 0.11150900 14673.87538644 0 142.91894564 0 5124.75409711 0 -389.78791643 0 -2877.28940350 0 13453
0.11250000 0.11250000 14628.95603880 0 211.15642574 0 5758.36090517 0 181.34994306 0 -2856.07194374 0 13668
0.11350000 0.11349100 14341.25038996 0 157.51939730 0 5148.15652267 0 632.87146170 0 -1843.74512469 0 13791
0.11450000 0.11448600 14104.89698299 0 5.20758316 0 5040.06171721 0 319.76364450 0 -2065.35833091 0 14205
0.11550000 0.11549300 14432.75276478 0 -89.86032311 0 5118.92012751 0 89.71525026 0 -1264.93992075 0 14776
0.11650000 0.11649800 14575.94011738 0 -3.29426295 0 5132.34047582 0 250.01332513 0 -1179.84825776 0 14553
0.11750000 0.11747300 14542.33379063 0 -66.37149713 0 4772.30913168 0 -68.91371038 0 -343.77941325 0 14568
0.11850000 0.11849100 14576.27285329 0 79.59408940 0 5451.95549828 0 156.80068774 0 -1023.06087946 0 16015
0.11950000 0.11950300 14845.67802717 0 96.66188873 0 5192.39930730 0 97.71621791 0 -513.91948355 0 15270
0.12050000 0.12050700 14353.67253054 0 292.16652825 0 5784.26994124 0 -398.33812016 0 104.71897784 0 15999
0.12150000 0.12150000 14252.18807847 0 382.73280605 0 6327.36149101 0 -319.63165925 0 -539.27174154 0 15670
0.12250000 0.12250700 13885.73493130 0 91.48984177 0 6119.95610808 0 505.69979750 0 741.31342163 0 16887
0.12350000 0.12352200 13750.86597641 0 76.61266474 0 6002.28959965 0 298.97763230 0 -233.06264883 0 16407
0.12450000 0.12449800 13487.89369676 0 137.37889276 0 6036.55030702 0 662.51490379 0 553.90103031 0 16306
0.12550000 0.12549900 13456.83834531 0 125.76419132 0 5085.87945180 0 308.14783393 0 264.99531397 0 17523
0.12650000 0.12650100 13086.05963133 0 115.88637131 0 5052.30639864 0 517.73707354 0 827.90794180 0 17154
0.12750000 0.12750600 12729.36673748 0 221.71524523 0 4251.69943813 0 560.42265412 0 423.33656896 0 18007
0.12850000 0.12850300 12722.37928340 0 69.45751177 0 3917.90986597 0 712.74582565 0 1199.82350346 0 17496
0.12950000 0.12949900 12325.53625659 0 -16.95001082 0 2734.19078048 0 535.84345256 0 559.07285545 0 18405
0.13050000 0.13049000 12208.96777666 0 134.86784577 0 2895.03531862 0 284.15757493 0 829.34203356 0 18100
0.13150000 0.13148800 12030.95406565 0 389.44630756 0 3004.50543250 0 -875.41486569 0 279.47819894 0 19059
0.13250000 0.13249300 11560.68731504 0 300.25977466 0 3342.92003379 0 -287.90639950 0 -38.27793891 0 18957
0.13350000 0.13349100 11278.41635271 0 -12.60392530 0 3075.14526586 0 276.70207234 0 -77.55430736 0 19468
0.13450000 0.13450700 11391.43564961 0 -65.13571597 0 3022.29571241 0 388.22960326 0 88.54845634 0 19953
0.13550000 0.13551000 11634.99833459 0 -154.45600870 0 2455.46900117 0 918.26903246 0 624.01403182 0 19956
0.13650000 0.13649900 11688.23607995 0 -96.04643821 0 2086.77543222 0 598.64402792 0 1214.09787394 0 19723
0.13750000 0.13749600 11771.42005706 0 -6.50191475 0 1773.80403673 0 228.70048107 0 708.02208487 0 20946
0.13850000 0.13851100 11667.49554165 0 287.72450387 0 2258.57807295 0 -580.90254928 0 1081.67452797 0 20955
0.13950000 0.13949800 11231.83332553 0 418.57179075 0 2651.40608646 0 -845.09707883 0 1002.28706758 0 20506
0.14050000 0.14048300 10938.98136131 0 264.33206039 0 3287.13131314 0 -382.99123094 0 1500.80531505 0 21447
0.14150000 0.14148400 10873.21056340 0 -75.05468431 0 3075.66655212 0 546.93797687 0 918.21357647 0 21771
0.14250000 0.14249400 10896.70171854 0 -14.41167949 0 3329.73260061 0 259.21236388 0 1031.51237154 0 22470
0.14350000 0.14350900 11005.37326624 0 -9.02653736 0 3063.44405308 0 310.29841702 0 1391.64575468 0 22519
0.14450000 0.14449900 10709.26049011 0 188.09339081 0 3139.56293774 0 77.94704665 0 1574.49522757 0 22218
0.14550000 0.14550500 10654.86926028 0 368.97195800 0 3288.65080712 0 -495.86634228 0 1920.90658186 0 23559
0.14650000 0.14650700 10252.54718218 0 107.76462052 0 3366.31136815 0 -139.11355596 0 1066.76685016 0 23044
0.14750000 0.14750500 10154.71173390 0 21.23332017 0 3618.96883463 0 272.91775595 0 1707.45649659 0 23649
0.14850000 0.14849900 10218.08683326 0 -71.05131677 0 3013.57803160 0 473.01958569 0 1101.60429977 0 23640
0.14950000 0.14949500 10366.81978434 0 -179.81603052 0 2590.48214162 0 476.05080981 0 1446.52499718 0 24457
0.15050000 0.15050000 10414.37883685 0 80.78140203 0 2310.08559157 0 161.00757874 0 331.55580509 0 24591
0.15150000 0.15149900 10191.23504545 0 234.98475326 0 2301.64519070 0 -627.25709781 0 717.24552425 0 25020
0.15250000 0.15250500 9739.21331383 0 318.27964234 0 2225.34884689 0 -449.08256443 0 -285.89445638 0 25297
0.15350000 0.15350100 9655.15313215 0 177.88838049 0 2808.41307046 0 -43.30358207 0 -460.43107715 0 25452
0.15450000 0.15450400 9367.45857451 0 -63.07774437 0 2065.66888442 0 15.74595048 0 -1099.32394968 0 26061
0.15550000 0.15549900 9465.20529322 0 119.32575149 0 2267.35120973 0 425.64575616 0 -713.12625370 0 26128
0.15650000 0.15649500 9302.78580511 0 -59.36862629 0 1704.12913750 0 178.97309955 0 -1147.32886831 0 26331
0.15750000 0.15749700 9357.37667649 0 142.33111220 0 1935.13658754 0 -56.55989157 0 -1308.61705433 0 27345
0.15850000 0.15849900 9108.12420747 0 261.64355425 0 2112.51810033 0 -523.93372528 0 -1008.18869347 0 26980
0.15950000 0.15949700 8706.65615154 0 283.96902459 0 2720.50424344 0 -481.66961019 0 -1139.93103994 0 27777
0.16050000 0.16050000 8762.84415528 0 19.04380698 0 2638.49593321 0 323.84964145 0 -995.39499779 0 28224
0.16150000 0.16150500 8759.43915781 0 -104.68858796 0 2815.48925411 0 450.46563669 0 -715.58628118 0 28075
0.16250000 0.16249700 8781.13353904 0 22.52932654 0 2171.12398501 0 346.91600374 0 -667.38172101 0 28590
0.16350000 0.16349900 8911.64365353 0 -20.66090350 0 2552.31733292 0 -54.36649646 0 2.90612652 0 29163
0.16450000 0.16449100 8803.07192661 0 81.27629124 0 2191.57615218 0 16.77000070 0 -442.96687844 0 28996
0.16550000 0.16550500 8796.68339717 0 150.66725582 0 2307.62334585 0 107.52050328 0 138.31498978 0 30777
0.16650000 0.16650700 8559.49815043 0 87.98957093 0 2182.03772281 0 105.99890197 0 -198.37049390 0 29211
0.16750000 0.16749900 8400.56129816 0 18.98613276 0 2156.99380010 0 425.94521848 0 394.63587861 0 30922
0.16850000 0.16850800 8351.24983653 0 149.63022891 0 2018.38711183 0 120.37941520 0 323.00227400 0 30867
0.16950000 0.16949900 8210.05889938 0 197.58080068 0 1952.31685161 0 -145.41668319 0 777.25333622 0 30852
0.17050000 0.17049200 8113.98695141 0 4.46595918 0 1947.05962426 0 263.08984633 0 479.54120949 0 31257
0.17150000 0.17149500 7969.52411116 0 -10.42814301 0 2130.25292425 0 70.00830061 0 852.55258142 0 32608
0.17250000 0.17250900 8131.02302992 0 -16.24727259 0 1731.32475242 0 98.42605452 0 716.29168131 0 32361
0.17350000 0.17350400 8286.21105762 0 -44.47203967 0 1954.98983008 0 93.43967419 0 602.49932798 0 32508
0.17450000 0.17449800 8192.75663214 0 34.30141207 0 1649.33862458 0 39.21902697 0 781.93603957 0 32791
0.17550000 0.17549800 8187.32194563 0 74.69555135 0 1955.02310367 0 46.10721483 0 650.92349386 0 33633
0.17650000 0.17650100 8122.85990897 0 93.26410055 0 1868.58940585 0 -135.49560752 0 814.65507057 0 33984
0.17750000 0.17750300 7982.64499715 0 151.01995589 0 2010.36817644 0 29.19236310 0 630.59887545 0 34069
0.17850000 0.17849800 7931.66985598 0 68.93079083 0 1877.42908982 0 51.73766096 0 1001.22453091 0 34536
