### header ###
fiducial parameters:
Omega_m = 0.31
Omega_nu = 0
Omega_de = 0.69
Omega_k = 0
H_0 = 100
w_de = -1
zeff = 0
beta = 0
fgrowth = 0
b_1 = 2
gamma = 0.55
Lx = 3500 Ly = 3500 Lz = 3500
nx = 700 ny = 700 nz = 700
xoffset = 1379.75464 yoffset = 22.6059522 zoffset = 368.141391
bins = 400 dk = 0.001
kx_ny = 0.628318531 ky_ny = 0.628318531 kz_ny = 0.628318531
############################
A(data) = 3.32456243 (not used)
A(ran) = 3.32686619 (used)
Ngal = 187387
weighted Ngal = 0
Nran = 9399747
weighted Nran = 0
SN(data) = 6611.50797
SN(ran) = 132.327377
SN(data+ran) = 6743.83535
############################
13 columns: k_central k_mean P_0(k) sigma^{lin}_{P_0(k)} P^img_1(k) sigma^{lin}_{P_1(k)} P_2(k) sigma^{lin}_{P_2(k)} P^img_3(k) sigma^{lin}_{P_3(k)} P_4(k) sigma^{lin}_{P_4(k)} N_modes
### header ###
0.00050000 0 0 0 0 0 0 0 0 0 0 0 0
0.00150000 0.00179520 12854.25361511 0 -18833.85062581 0 -18647.51851708 0 12407.50020204 0 -2322.24154343 0 3
0.00250000 0.00253879 13363.67229094 0 -14547.43574123 0 -7816.90924115 0 -23795.49758059 0 -4438.48628594 0 6
0.00350000 0.00331552 32011.52354393 0 -13446.19079624 0 -41033.32496555 0 9526.77252748 0 -29810.80824546 0 7
0.00450000 0.00420575 48312.14478676 0 -16573.24286382 0 -38997.75758965 0 -9771.39996737 0 -648.67863559 0 24
0.00550000 0.00557378 68115.14420191 0 -11167.06073535 0 -56561.11160503 0 -12468.27996131 0 3977.10358409 0 45
0.00650000 0.00659388 62210.96733046 0 -6884.74959364 0 -12161.05380585 0 -27462.69093955 0 -15095.22995850 0 40
0.00750000 0.00754703 86267.44077524 0 -8740.11829273 0 -65307.85134234 0 -6880.06910853 0 -5520.29945387 0 57
0.00850000 0.00846663 78824.02759132 0 -1946.62706758 0 -27203.82240278 0 -28221.43972278 0 -26045.34688154 0 75
0.00950000 0.00948925 82465.82210927 0 11897.08331848 0 -25814.31724911 0 -50210.73588036 0 -9213.93422636 0 112
0.01050000 0.01054430 63396.72719619 0 11103.50817684 0 18035.39535750 0 -26831.26909729 0 -34358.75355408 0 105
0.01150000 0.01145670 57830.27727182 0 7927.89884901 0 25880.19895898 0 -14331.93378452 0 -20049.66763527 0 144
0.01250000 0.01249090 55946.43747016 0 -1891.08235326 0 31752.65500716 0 12797.68851068 0 -20140.39362631 0 169
0.01350000 0.01339930 68922.36151580 0 -11803.91726412 0 35379.25458529 0 25425.01623623 0 6189.18735943 0 180
0.01450000 0.01448870 79032.43118198 0 -9539.95996065 0 7327.22180469 0 18962.39759844 0 11872.68268519 0 267
0.01550000 0.01550050 84462.57029586 0 -3661.02665346 0 11367.81140011 0 14086.48559606 0 -3965.65746884 0 238
0.01650000 0.01653350 90270.47557780 0 2894.88004186 0 6556.40579918 0 -14425.98713464 0 19452.62850355 0 315
0.01750000 0.01747870 89096.02873295 0 10100.00995055 0 23863.48661789 0 -1741.55083601 0 10575.72247886 0 297
0.01850000 0.01844180 79162.86365809 0 10483.34389948 0 49677.80386700 0 -15988.29313677 0 30741.02693351 0 388
0.01950000 0.01947590 66379.59370345 0 1432.99373691 0 44036.48836322 0 8013.65598382 0 15428.96407467 0 399
0.02050000 0.02045430 74324.55081337 0 -2171.78945683 0 55491.25474741 0 11588.52621938 0 24184.24403363 0 462
0.02150000 0.02154770 72032.66587599 0 456.02676284 0 36038.84806780 0 12902.72214578 0 16284.31718332 0 571
0.02250000 0.02255340 73658.19170072 0 4785.57420323 0 56584.84676650 0 2737.38504520 0 25811.87718578 0 510
0.02350000 0.02348930 65127.73030390 0 4448.39072481 0 44008.64945888 0 -1919.25399351 0 28549.29550457 0 555
0.02450000 0.02439640 66659.75733836 0 1459.49060642 0 52505.28270501 0 11853.16217857 0 27632.05351695 0 592
0.02550000 0.02547300 61803.25493064 0 -2927.79871441 0 39301.87820997 0 14626.84871138 0 33063.63448644 0 837
0.02650000 0.02652900 67058.70769259 0 1666.36361189 0 29034.09172318 0 14087.59471575 0 22484.40718935 0 723
0.02750000 0.02749970 63114.01258598 0 3049.75751605 0 39688.29551164 0 3262.06520803 0 39615.98090754 0 826
0.02850000 0.02848090 57228.46892541 0 1709.94092470 0 22114.62668309 0 7889.68967553 0 31276.50992217 0 831
0.02950000 0.02946900 59001.61858152 0 -1423.59949309 0 23781.96632032 0 10960.99738725 0 43506.66188501 0 996
0.03050000 0.03053250 61236.93841447 0 -3986.50891910 0 10885.41088005 0 11415.05989911 0 33742.41573967 0 1041
0.03150000 0.03150510 64129.18984265 0 -2420.80901071 0 2531.95389532 0 7381.51321375 0 30016.32812491 0 1036
0.03250000 0.03246190 64336.26248968 0 1325.56440327 0 7258.91112269 0 -2881.42641997 0 31359.69389928 0 1059
0.03350000 0.03345080 62012.43490509 0 1837.46750722 0 -3766.41520686 0 -9396.21804820 0 13195.30792127 0 1302
0.03450000 0.03451200 59550.30009455 0 1870.36399736 0 7008.11697729 0 -4334.46194976 0 10054.32531032 0 1339
0.03550000 0.03553350 60331.00944773 0 529.04898531 0 6656.39293967 0 -6111.20515368 0 -9954.49344659 0 1365
0.03650000 0.03647120 56865.67587323 0 2234.95382345 0 10739.46181940 0 -7227.26793779 0 -10952.24643286 0 1308
0.03750000 0.03744890 54982.39063142 0 3278.02544044 0 14815.17723556 0 -6035.80719683 0 -19368.66814265 0 1579
0.03850000 0.03847530 53083.79953783 0 1801.84258262 0 19080.18611003 0 -2248.04143584 0 -16504.36653077 0 1662
0.03950000 0.03950240 48742.37231638 0 1174.62430400 0 17198.34272382 0 2419.94389734 0 -21478.32471417 0 1683
0.04050000 0.04050350 48684.69809225 0 375.58563874 0 16074.58264903 0 4105.20690884 0 -16007.36999552 0 1822
0.04150000 0.04152450 48516.99919440 0 661.26492589 0 17631.56487662 0 2365.37520836 0 -13806.98743296 0 1887
0.04250000 0.04250150 46397.47145759 0 1380.94274963 0 10798.63335512 0 2595.24026511 0 -9921.55259165 0 1920
0.04350000 0.04349210 44738.22839414 0 1691.88445607 0 15075.15489202 0 437.72185140 0 -1265.05083272 0 2005
0.04450000 0.04448520 41709.22250758 0 1569.73710408 0 11071.32152329 0 162.34739533 0 -6087.85818411 0 2151
0.04550000 0.04548030 41349.31316661 0 1686.29449281 0 16143.12624617 0 2520.50778007 0 5117.18990079 0 2274
0.04650000 0.04648670 38694.19152917 0 94.82740476 0 14854.32916079 0 3385.26622373 0 1748.58265487 0 2311
0.04750000 0.04749250 38285.70274557 0 7.98407576 0 15536.21594916 0 864.54882004 0 6052.31089789 0 2568
0.04850000 0.04851840 39598.90046424 0 68.70896689 0 12179.46519278 0 1454.43302061 0 6851.97510666 0 2493
0.04950000 0.04949480 39470.90805146 0 -1375.00895926 0 12085.85549054 0 2940.74214125 0 5267.00978917 0 2644
0.05050000 0.05050630 40885.70113417 0 -928.39973175 0 10080.42289674 0 3450.09426990 0 6816.05071974 0 2829
0.05150000 0.05149060 41422.73689040 0 -467.89767094 0 6562.71669025 0 -906.69425932 0 2622.06987053 0 2784
0.05250000 0.05249300 40988.62744185 0 1685.51810902 0 9195.17901232 0 -2139.79135363 0 2867.04113752 0 3055
0.05350000 0.05348950 38965.48220653 0 1640.19947829 0 8861.82199684 0 -2053.76803010 0 -3003.44067759 0 3009
0.05450000 0.05448610 37286.16407660 0 735.87651688 0 9431.83188160 0 -1073.00343020 0 740.71893347 0 3336
0.05550000 0.05550870 35589.98732730 0 857.22419357 0 10224.45318031 0 852.99290194 0 -2851.12526990 0 3349
0.05650000 0.05647670 35360.95411032 0 418.24349132 0 8843.63243385 0 1016.25199366 0 -2689.73726311 0 3324
0.05750000 0.05747970 34517.13584650 0 909.56355197 0 7566.22600773 0 534.96613888 0 -3913.30701924 0 3639
0.05850000 0.05849280 32629.30321395 0 957.68603729 0 9438.15386386 0 -1425.50717897 0 -3534.78664979 0 3846
0.05950000 0.05951020 32405.15012362 0 817.29255720 0 10052.65053958 0 -434.74164678 0 -1807.59891383 0 3787
0.06050000 0.06049470 31715.83223329 0 477.39062640 0 12457.85423618 0 -581.81202743 0 -1852.17443437 0 3930
0.06150000 0.06148310 31225.26859227 0 61.39986810 0 11144.87834145 0 1500.98277420 0 712.03266168 0 4083
0.06250000 0.06249100 31524.39817396 0 -414.94829671 0 11160.18419324 0 2820.08100965 0 1710.40675498 0 4303
0.06350000 0.06350600 32194.63920554 0 -500.60339250 0 10451.26815790 0 1707.23467265 0 3690.54032854 0 4470
0.06450000 0.06451750 32764.28308081 0 71.47300408 0 9460.44716973 0 2315.14317738 0 2678.15805350 0 4479
0.06550000 0.06550280 31966.71510826 0 867.00662928 0 10854.43316697 0 -1484.46798194 0 5265.84521349 0 4636
0.06650000 0.06648880 30927.69177815 0 1221.16296639 0 10422.23140429 0 -1746.17586513 0 3548.48427802 0 4653
0.06750000 0.06749660 29200.79241331 0 993.63926132 0 10900.57254627 0 -1142.48201524 0 2881.90334144 0 5220
0.06850000 0.06852730 27885.59827919 0 833.53894249 0 12655.72118974 0 1162.77890566 0 664.52795603 0 5029
0.06950000 0.06949320 27275.91518295 0 103.70901345 0 9690.56732401 0 1475.16246770 0 607.34285369 0 5040
0.07050000 0.07048030 26848.12771665 0 254.51191461 0 9556.91840078 0 2059.06962224 0 3110.44854575 0 5475
0.07150000 0.07148790 26005.75130844 0 68.39674969 0 6888.38750624 0 1722.99526351 0 -703.46471204 0 5509
0.07250000 0.07249820 26446.51547516 0 -76.41801424 0 6291.80311359 0 1252.02976750 0 2860.26441619 0 5916
0.07350000 0.07351270 25964.15931988 0 -154.56913891 0 4569.22931556 0 623.42619838 0 35.57723245 0 5721
0.07450000 0.07449140 25805.22246761 0 369.44444299 0 4893.05899286 0 -1071.70908752 0 2908.89931481 0 6028
0.07550000 0.07549160 25859.68024463 0 588.56434813 0 6606.97056607 0 -1354.24623857 0 1130.91389683 0 6183
0.07650000 0.07648840 25208.18333589 0 548.03378713 0 6904.39210343 0 -625.89177146 0 61.28607242 0 6330
0.07750000 0.07749960 24861.91616717 0 367.69425211 0 8706.91124907 0 -743.02479331 0 927.62223884 0 6583
0.07850000 0.07848650 24715.29054351 0 394.24435936 0 9693.90577429 0 14.87351693 0 1346.06093523 0 6549
0.07950000 0.07947320 24976.59914361 0 -158.31463612 0 9839.03408636 0 990.45497867 0 2141.65467472 0 6828
0.08050000 0.08048110 24567.22306425 0 501.98535564 0 10733.58348502 0 -577.98889184 0 1581.39395207 0 7147
0.08150000 0.08149960 24040.72394512 0 491.64281448 0 10995.81265447 0 -271.34169686 0 3935.77778426 0 7386
0.08250000 0.08250610 23458.21428140 0 418.62391937 0 11161.84787278 0 476.66526212 0 1278.23826589 0 7227
0.08350000 0.08350160 23155.20278077 0 552.88840403 0 11547.37787870 0 458.33927741 0 2569.89688008 0 7798
0.08450000 0.08449610 21977.31766487 0 784.44930480 0 11228.39505447 0 7.69094652 0 2434.17390303 0 7371
0.08550000 0.08548940 21102.55496157 0 728.88240809 0 11291.50396511 0 851.20721923 0 2718.30818645 0 8256
0.08650000 0.08650700 20447.39795783 0 90.97765030 0 9489.06245785 0 1381.04257040 0 2904.29646807 0 8037
0.08750000 0.08749060 19609.90167627 0 95.25863049 0 8971.74684980 0 1252.63978333 0 1913.14274399 0 8155
0.08850000 0.08849210 19723.14279712 0 303.22334249 0 7612.05483352 0 751.32433599 0 3473.03086518 0 8718
0.08950000 0.08949900 19001.88225957 0 186.84674027 0 7534.50518446 0 721.34593976 0 2448.06008161 0 8571
0.09050000 0.09049190 18856.36575561 0 146.05220877 0 6547.96539831 0 406.83508614 0 3216.56911815 0 8932
0.09150000 0.09150830 18286.94370429 0 255.33488142 0 6769.06840947 0 60.27455526 0 1997.39147601 0 9285
0.09250000 0.09250820 19032.82669906 0 -153.85930231 0 6407.63957452 0 834.52162254 0 3049.99043119 0 9204
0.09350000 0.09350330 18783.82932757 0 -450.39021655 0 5730.07835295 0 863.68703403 0 2851.86838010 0 9349
0.09450000 0.09448040 19232.91189200 0 -9.34200428 0 5270.12641551 0 676.14376660 0 3438.88106978 0 9564
0.09550000 0.09549270 18786.38030287 0 555.07447895 0 6030.96034376 0 -900.88025388 0 2935.61800826 0 10155
0.09650000 0.09649430 18485.58704163 0 652.87443540 0 6346.50489694 0 -929.12953251 0 3179.12523725 0 9913
0.09750000 0.09749140 17651.75085507 0 477.14662007 0 7467.75836122 0 304.15611215 0 3713.01109355 0 10476
0.09850000 0.09850240 17108.72585248 0 282.47725860 0 8056.16854172 0 -351.15062274 0 3139.64057612 0 10575
0.09950000 0.09950330 17343.63740384 0 -160.33323396 0 6590.67759775 0 1544.69318137 0 3823.55705354 0 10882
0.10050000 0.10051200 17344.63561157 0 -136.91638985 0 7181.33929123 0 1364.35031899 0 4275.03531651 0 10875
0.10150000 0.10150300 16703.56442796 0 431.71707737 0 6090.00987631 0 -722.82883279 0 2946.24337493 0 11118
0.10250000 0.10250800 16439.81576453 0 542.97398308 0 6870.28667282 0 -278.61530382 0 3771.51715746 0 11575
0.10350000 0.10349800 15981.97115451 0 181.13144648 0 6227.30780334 0 229.25725916 0 3345.20482036 0 11364
0.10450000 0.10450100 15709.57135746 0 -135.41464178 0 5697.83624342 0 1519.01706044 0 3759.71612390 0 12093
0.10550000 0.10551000 16067.92793086 0 -180.72994515 0 4309.01874396 0 1479.88731760 0 3087.80032158 0 12067
0.10650000 0.10649700 15941.15554974 0 111.35339912 0 4423.62408203 0 542.04675901 0 4711.76228754 0 12054
0.10750000 0.10749900 15508.37704482 0 115.63681938 0 3085.70408536 0 658.16715458 0 4163.71297274 0 12807
0.10850000 0.10850100 15620.50904597 0 232.32952071 0 3575.54679858 0 5.98508715 0 5607.25443795 0 12736
0.10950000 0.10950300 15275.35099694 0 132.36234438 0 2922.07565678 0 -450.86159242 0 3882.71749806 0 12933
0.11050000 0.11050200 15113.08678559 0 304.83156604 0 4131.65941356 0 -351.66192692 0 4292.49286051 0 13428
0.11150000 0.11150900 14729.44228315 0 209.88426545 0 4111.60652948 0 -790.01708566 0 3994.93822878 0 13453
0.11250000 0.11250000 14879.50617786 0 -71.32837487 0 4166.58559275 0 -230.19890178 0 2621.98114095 0 13668
0.11350000 0.11349100 14778.02172578 0 24.95829867 0 4327.39685730 0 78.91919006 0 2042.05572612 0 13791
0.11450000 0.11448600 14908.78693780 0 82.18033470 0 4487.02136378 0 -336.51357013 0 1178.55058772 0 14205
0.11550000 0.11549300 14841.68519626 0 126.70250658 0 4529.70028964 0 -297.40379145 0 928.22781820 0 14776
0.11650000 0.11649800 14491.53610861 0 141.99283069 0 4622.40051373 0 104.23373798 0 1036.97589515 0 14553
0.11750000 0.11747300 14642.15456317 0 85.42783717 0 4526.87203442 0 445.88940883 0 786.77623792 0 14568
0.11850000 0.11849100 14184.19904117 0 334.31751313 0 4531.41942517 0 -102.67575754 0 747.56885670 0 16015
0.11950000 0.11950300 13931.31975075 0 332.34660743 0 4801.29042931 0 86.59618385 0 744.90807856 0 15270
0.12050000 0.12050700 13435.32142323 0 141.17873683 0 4434.43799905 0 23.39033616 0 1066.11468778 0 15999
0.12150000 0.12150000 13377.09263925 0 65.91487255 0 5197.53453148 0 261.43725798 0 585.06729374 0 15670
0.12250000 0.12250700 13325.40766147 0 109.68805590 0 4338.44368946 0 -131.16005863 0 598.06174008 0 16887
0.12350000 0.12352200 13435.21051126 0 -109.48031778 0 4449.34456775 0 229.87836619 0 636.33856987 0 16407
0.12450000 0.12449800 13324.29854178 0 -68.54304258 0 4085.07638638 0 369.44222475 0 399.08566683 0 16306
0.12550000 0.12549900 13590.59818050 0 102.70681289 0 3980.94113823 0 -141.18206419 0 193.84417642 0 17523
0.12650000 0.12650100 13365.11414655 0 127.54765578 0 4164.27862379 0 -2.09841010 0 -186.00048194 0 17154
0.12750000 0.12750600 13290.47039109 0 152.48953948 0 3896.40403509 0 -323.44814012 0 163.23469109 0 18007
0.12850000 0.12850300 13042.47122732 0 71.63415917 0 4446.47194774 0 364.59758992 0 -578.94495302 0 17496
0.12950000 0.12949900 12915.47702227 0 95.77193109 0 3688.23335957 0 30.03529407 0 -223.77155315 0 18405
0.13050000 0.13049000 13007.64486891 0 4.52660585 0 3979.32182348 0 631.78563352 0 -313.29304020 0 18100
0.13150000 0.13148800 12855.91729465 0 167.74659000 0 3768.73326702 0 -367.76856313 0 -276.68099907 0 19059
0.13250000 0.13249300 12518.85581940 0 326.05346229 0 3438.63706345 0 82.23257424 0 -688.02354765 0 18957
0.13350000 0.13349100 12090.62470523 0 66.99448966 0 3834.93662161 0 -30.35172592 0 22.74360846 0 19468
0.13450000 0.13450700 12207.85865697 0 43.69898324 0 3560.71786826 0 288.99222768 0 -637.64067639 0 19953
0.13550000 0.13551000 12047.25812516 0 79.69513020 0 3439.40235604 0 330.45444923 0 -528.50440754 0 19956
0.13650000 0.13649900 11770.64367327 0 175.67235934 0 3261.10027390 0 -304.46333831 0 -755.20736404 0 19723
0.13750000 0.13749600 11746.68668786 0 160.45856449 0 2999.23711395 0 -4.81675156 0 -823.70992375 0 20946
0.13850000 0.13851100 11608.15763798 0 -31.28926480 0 2946.22119254 0 392.49195024 0 -874.58302592 0 20955
0.13950000 0.13949800 11653.18789759 0 -84.18318304 0 2743.49629472 0 507.85038058 0 -753.89749368 0 20506
0.14050000 0.14048300 11809.68468653 0 107.69995885 0 2353.67399558 0 108.01239786 0 -545.37744546 0 21447
0.14150000 0.14148400 11424.26559258 0 145.31575330 0 2554.52448111 0 6.21843485 0 -558.66248116 0 21771
0.14250000 0.14249400 11241.70449081 0 188.61800442 0 2457.46541662 0 66.05107245 0 -311.94656889 0 22470
0.14350000 0.14350900 11275.31081756 0 145.26251555 0 2979.98279605 0 -317.10619371 0 -439.06055887 0 22519
0.14450000 0.14449900 10807.11812079 0 230.18670146 0 2679.30044678 0 -61.98404144 0 -478.52192849 0 22218
0.14550000 0.14550500 10886.00980468 0 -14.07617078 0 3277.19360067 0 43.65328751 0 -345.56065948 0 23559
0.14650000 0.14650700 10704.58000500 0 -56.65915779 0 2545.88443869 0 226.86266974 0 -705.28699570 0 23044
0.14750000 0.14750500 10987.82699267 0 20.87640546 0 2624.66521062 0 566.03479977 0 0.04857656 0 23649
0.14850000 0.14849900 10812.36425694 0 63.51595756 0 2129.39890209 0 189.62175774 0 -265.27370301 0 23640
0.14950000 0.14949500 10572.53930533 0 213.10514904 0 1904.02578010 0 216.74417076 0 396.25519337 0 24457
0.15050000 0.15050000 10390.12238913 0 244.52761912 0 2047.16876792 0 185.17640601 0 376.15350802 0 24591
0.15150000 0.15149900 9832.25736502 0 246.72922171 0 2017.88800797 0 -0.55133453 0 836.38938010 0 25020
0.15250000 0.15250500 9720.80192689 0 216.54896570 0 2093.03086730 0 51.52726096 0 475.60494370 0 25297
0.15350000 0.15350100 9442.63470743 0 53.92229403 0 1827.30797081 0 197.86029884 0 766.93630482 0 25452
0.15450000 0.15450400 9294.82232570 0 111.91239545 0 1894.18788841 0 -23.43214997 0 302.32384641 0 26061
0.15550000 0.15549900 9258.06609901 0 237.00667847 0 1838.25498220 0 -453.70648444 0 56.17314154 0 26128
0.15650000 0.15649500 8979.59941724 0 178.62816333 0 2359.71869792 0 -295.13675079 0 165.19006911 0 26331
0.15750000 0.15749700 8761.67957960 0 54.79683491 0 2119.72737835 0 -66.05639622 0 -406.10084890 0 27345
0.15850000 0.15849900 8961.22130389 0 -56.84914999 0 2125.32843281 0 587.18571235 0 77.01460972 0 26980
0.15950000 0.15949700 8800.39894814 0 -88.19553445 0 1904.08123609 0 295.10569544 0 -191.56271721 0 27777
0.16050000 0.16050000 9081.97116507 0 6.33184233 0 1604.30836497 0 217.42627937 0 559.41668255 0 28224
0.16150000 0.16150500 8730.91259926 0 153.93804980 0 1747.36262321 0 25.02650953 0 550.65020049 0 28075
0.16250000 0.16249700 8900.17535589 0 -48.31602671 0 1440.28065330 0 154.08889008 0 585.93462534 0 28590
0.16350000 0.16349900 8788.14317552 0 54.33289014 0 1898.85728232 0 -65.44893137 0 535.54953584 0 29163
0.16450000 0.16449100 8828.81459472 0 121.72255915 0 1515.30150946 0 -181.95219506 0 328.70980395 0 28996
0.16550000 0.16550500 8651.73254425 0 147.11363632 0 1906.43256984 0 -255.87835007 0 297.64003394 0 30777
0.16650000 0.16650700 8576.61186732 0 95.66811748 0 1937.83174840 0 -123.19990658 0 -94.59615330 0 29211
0.16750000 0.16749900 8479.24224931 0 28.78021423 0 1882.65304358 0 196.37851493 0 92.91849885 0 30922
0.16850000 0.16850800 8343.91855534 0 59.88957981 0 1735.60595444 0 186.98981671 0 -45.11843463 0 30867
0.16950000 0.16949900 8433.85707140 0 64.43575053 0 1738.34548009 0 96.17809072 0 -83.09036741 0 30852
0.17050000 0.17049200 8302.64821150 0 83.29156172 0 1679.83941619 0 -138.82074836 0 83.60577533 0 31257
0.17150000 0.17149500 8227.03952190 0 83.73487686 0 1847.10575736 0 0.95465592 0 -279.20868285 0 32608
0.17250000 0.17250900 8156.82115403 0 10.95134805 0 1843.41238878 0 -203.34489573 0 17.93191449 0 32361
0.17350000 0.17350400 8096.22994510 0 59.70224949 0 1814.63073270 0 -74.19434016 0 -464.85202825 0 32508
0.17450000 0.17449800 8107.01058853 0 144.20663360 0 2055.69789837 0 -148.69856837 0 -408.29690590 0 32791
0.17550000 0.17549800 7952.87622454 0 61.12824468 0 1947.11508025 0 -52.52580142 0 -678.23334810 0 33633
0.17650000 0.17650100 8010.20662157 0 107.37021756 0 2230.68371262 0 -35.12726259 0 -355.17118163 0 33984
0.17750000 0.17750300 7780.06428489 0 98.59231156 0 2131.70587105 0 17.08842896 0 -816.35535106 0 34069
0.17850000 0.17849800 7688.62845725 0 128.27302007 0 2246.28902673 0 133.93285787 0 -904.34070733 0 34536
