### header ###
fiducial parameters:
Omega_m = 0.31
Omega_nu = 0
Omega_de = 0.69
Omega_k = 0
H_0 = 100
w_de = -1
zeff = 0
beta = 0
fgrowth = 0
b_1 = 2
gamma = 0.55
Lx = 3500 Ly = 3500 Lz = 3500
nx = 700 ny = 700 nz = 700
xoffset = 1379.75464 yoffset = 22.6059522 zoffset = 368.141391
bins = 400 dk = 0.001
kx_ny = 0.628318531 ky_ny = 0.628318531 kz_ny = 0.628318531
############################
A(data) = 3.30055989 (not used)
A(ran) = 3.30060033 (used)
Ngal = 185500
weighted Ngal = 0
Nran = 9399747
weighted Nran = 0
SN(data) = 6708.74903
SN(ran) = 131.282642
SN(data+ran) = 6840.03167
############################
13 columns: k_central k_mean P_0(k) sigma^{lin}_{P_0(k)} P^img_1(k) sigma^{lin}_{P_1(k)} P_2(k) sigma^{lin}_{P_2(k)} P^img_3(k) sigma^{lin}_{P_3(k)} P_4(k) sigma^{lin}_{P_4(k)} N_modes
### header ###
0.00050000 0 0 0 0 0 0 0 0 0 0 0 0
0.00150000 0.00179520 40286.33285109 0 -44495.33118097 0 -82171.01809439 0 80735.70629732 0 21251.62064855 0 3
0.00250000 0.00253879 61861.26189068 0 -38017.29577942 0 -21166.10752008 0 -67609.82926894 0 -39412.79017945 0 6
0.00350000 0.00331552 114749.52362631 0 -49643.97571631 0 -139899.92182610 0 66104.64293110 0 52241.75586552 0 7
0.00450000 0.00420575 139344.25285899 0 -36254.35002450 0 -72622.38481772 0 -58715.24387632 0 -28151.12153413 0 24
0.00550000 0.00557378 205654.08293364 0 -14801.86779922 0 -119617.44996689 0 -78631.15167639 0 -37227.49164474 0 45
0.00650000 0.00659388 158738.31984266 0 -2838.86949728 0 38253.09462654 0 -63918.12436473 0 -69162.26410579 0 40
0.00750000 0.00754703 198138.68788152 0 23559.14417363 0 -22754.36692307 0 -118559.34977803 0 -27567.61366269 0 57
0.00850000 0.00846663 154687.81471717 0 21251.84247249 0 49026.41787023 0 -22729.96628978 0 -84811.38843988 0 75
0.00950000 0.00948925 128311.83925460 0 22772.66739803 0 64956.81495893 0 -14944.83332788 0 -32574.06905314 0 112
0.01050000 0.01054430 114090.70652759 0 12569.87532536 0 107876.64161341 0 23455.33057019 0 -31461.62199924 0 105
0.01150000 0.01145670 101484.56298821 0 12179.24336884 0 85252.81807842 0 23715.30822666 0 -28042.09506813 0 144
0.01250000 0.01249090 88979.68207696 0 4171.56554018 0 84107.98472943 0 13490.88831994 0 1113.52290001 0 169
0.01350000 0.01339930 79229.96539963 0 6637.48244888 0 49450.76706547 0 18637.86917573 0 -404.55806340 0 180
0.01450000 0.01448870 79045.40788241 0 -475.38311976 0 53653.33250112 0 17212.42854395 0 -5130.38842516 0 267
0.01550000 0.01550050 73684.03418961 0 -3524.58274860 0 26952.82861585 0 17307.14736588 0 -17729.05649779 0 238
0.01650000 0.01653350 77721.00805482 0 -3623.60495495 0 17640.21601024 0 9717.43020302 0 -10767.22308537 0 315
0.01750000 0.01747870 84378.83175890 0 -2547.92521893 0 -1661.47239404 0 -2658.09407822 0 -22659.31536522 0 297
0.01850000 0.01844180 85231.30115634 0 499.83366343 0 10320.38094272 0 -7385.53931825 0 -29096.20242609 0 388
0.01950000 0.01947590 83500.07622469 0 4843.71425764 0 19307.00108762 0 -19499.10061876 0 -39309.64204783 0 399
0.02050000 0.02045430 78025.23958711 0 3590.77501199 0 20563.85552579 0 -14774.91619064 0 -24759.43350736 0 462
0.02150000 0.02154770 74851.38266841 0 2184.02304706 0 31299.57961182 0 1456.20761212 0 -31533.16021955 0 571
0.02250000 0.02255340 82190.64951299 0 -2954.42867828 0 37942.20837608 0 6585.55346476 0 -22629.14730952 0 510
0.02350000 0.02348930 77431.30599053 0 -693.94513770 0 27361.42831142 0 8807.13130469 0 -16972.30413002 0 555
0.02450000 0.02439640 84271.02532456 0 2800.98196850 0 43066.56319010 0 -3206.97523279 0 -14013.72734408 0 592
0.02550000 0.02547300 82329.40038681 0 183.87873597 0 33075.39115520 0 2347.28546614 0 -5628.82681601 0 837
0.02650000 0.02652900 80604.27561348 0 2115.47944992 0 39556.64300387 0 -1628.68681586 0 -15299.19707038 0 723
0.02750000 0.02749970 75647.95243323 0 5688.65273235 0 44520.95184592 0 -82.27560808 0 -1190.89508992 0 826
0.02850000 0.02848090 72557.72313952 0 3883.69352339 0 42649.20144894 0 1100.16577153 0 -14230.89298033 0 831
0.02950000 0.02946900 66223.54056239 0 2878.81998868 0 48593.97210122 0 3983.86921423 0 3489.92275814 0 996
0.03050000 0.03053250 62992.89671531 0 4102.67811594 0 46809.95307210 0 7027.75948709 0 2311.87127428 0 1041
0.03150000 0.03150510 57447.52006514 0 2584.09361218 0 44800.33909705 0 6451.64944401 0 12320.10157009 0 1036
0.03250000 0.03246190 51846.79834219 0 2328.71880245 0 34586.89947531 0 8597.11949048 0 5964.74589798 0 1059
0.03350000 0.03345080 54600.07707262 0 1077.30237814 0 42299.16327325 0 8013.70034861 0 16863.38857599 0 1302
0.03450000 0.03451200 48521.54658515 0 1496.89012253 0 36877.56438102 0 3140.51678068 0 17967.07358430 0 1339
0.03550000 0.03553350 48467.97610389 0 1936.54516955 0 36230.72577500 0 3181.09947031 0 18149.85651001 0 1365
0.03650000 0.03647120 48316.80308948 0 460.67397436 0 31154.28493180 0 2404.39403922 0 15310.17735536 0 1308
0.03750000 0.03744890 44921.67679166 0 122.04864034 0 28719.10172985 0 4779.52950090 0 15160.55710853 0 1579
0.03850000 0.03847530 47816.70101909 0 -1848.71398092 0 29056.38502905 0 6893.57818641 0 18491.02172814 0 1662
0.03950000 0.03950240 46952.47495288 0 -369.85259903 0 19289.69882038 0 4781.50373395 0 11164.50976005 0 1683
0.04050000 0.04050350 49380.78161272 0 458.06199748 0 18765.63976458 0 4428.39329671 0 10655.17981379 0 1822
0.04150000 0.04152450 46209.58658129 0 478.50085522 0 14748.63005387 0 -951.01135497 0 14113.76994055 0 1887
0.04250000 0.04250150 44761.85264364 0 1324.88784025 0 11513.43881604 0 2251.12478860 0 4600.56194694 0 1920
0.04350000 0.04349210 43200.87758514 0 737.56348794 0 12983.24423562 0 1710.10729266 0 10050.82049209 0 2005
0.04450000 0.04448520 42348.85183558 0 67.46642009 0 8261.10058773 0 1819.30012661 0 677.57453100 0 2151
0.04550000 0.04548030 42828.87883950 0 148.37470541 0 8999.87412526 0 322.00739364 0 7163.00554268 0 2274
0.04650000 0.04648670 42665.39459648 0 486.23696509 0 5358.48998159 0 -989.38467817 0 745.72660889 0 2311
0.04750000 0.04749250 42282.85921374 0 791.35246578 0 9158.98843668 0 -2652.65939171 0 -101.74897712 0 2568
0.04850000 0.04851840 39655.24374474 0 2018.32056465 0 10019.37694874 0 -2112.37391477 0 -3570.62230713 0 2493
0.04950000 0.04949480 39043.67514501 0 605.20336180 0 13007.42304497 0 756.74016746 0 -2141.55485394 0 2644
0.05050000 0.05050630 37483.92011818 0 65.09368033 0 11748.90492725 0 1749.69177457 0 384.71036647 0 2829
0.05150000 0.05149060 38414.91519002 0 19.58527922 0 13320.30571088 0 2140.16845433 0 351.18722369 0 2784
0.05250000 0.05249300 37086.52253153 0 893.52457206 0 11578.43323016 0 395.70617912 0 2316.47412101 0 3055
0.05350000 0.05348950 37087.74256319 0 1236.49100058 0 12024.29934748 0 -1680.10560491 0 1028.32697977 0 3009
0.05450000 0.05448610 35444.80355925 0 611.69503937 0 13636.73755981 0 324.31990820 0 977.75555817 0 3336
0.05550000 0.05550870 35216.32490212 0 -188.30966915 0 12692.10031573 0 -87.15917301 0 15.37428447 0 3349
0.05650000 0.05647670 34179.07616352 0 839.11115984 0 12261.87278611 0 -1395.36130566 0 -3888.15218456 0 3324
0.05750000 0.05747970 33491.31104076 0 1029.90082062 0 11533.07023464 0 -686.38094138 0 -5001.60853739 0 3639
0.05850000 0.05849280 32814.19346707 0 1052.75866841 0 14942.72600046 0 -953.25621323 0 -6204.81485593 0 3846
0.05950000 0.05951020 31375.77613486 0 1084.30203253 0 12267.08564867 0 -1304.01420760 0 -6283.12979758 0 3787
0.06050000 0.06049470 30672.15060046 0 272.70591408 0 14505.62192873 0 881.84997816 0 -7394.74501171 0 3930
0.06150000 0.06148310 29791.95321065 0 -60.12182947 0 12001.22965782 0 2032.51729675 0 -6497.44499621 0 4083
0.06250000 0.06249100 30560.24042325 0 -682.04871985 0 13387.40745241 0 2045.60490915 0 -5704.01404012 0 4303
0.06350000 0.06350600 30907.50579970 0 -208.47457432 0 9886.61532127 0 582.95996632 0 -4496.88143787 0 4470
0.06450000 0.06451750 31267.19331673 0 -178.72465674 0 9196.74287109 0 714.26864699 0 -3899.67593819 0 4479
0.06550000 0.06550280 31177.35462145 0 -162.25644751 0 9304.23875191 0 -95.24521014 0 -5016.68147404 0 4636
0.06650000 0.06648880 31400.73132799 0 588.06302603 0 9642.78644756 0 838.05416877 0 -2160.72044227 0 4653
0.06750000 0.06749660 31735.90729977 0 1.15701148 0 11290.06210950 0 1017.84468954 0 -2615.99189460 0 5220
0.06850000 0.06852730 30477.94374190 0 210.72608730 0 8464.81260208 0 420.59815243 0 412.63356390 0 5029
0.06950000 0.06949320 31177.68735736 0 411.06748689 0 11216.97112162 0 412.33299247 0 -1346.61549507 0 5040
0.07050000 0.07048030 30254.56703536 0 346.33371591 0 9109.79897821 0 -327.20361941 0 974.17199243 0 5475
0.07150000 0.07148790 29437.81129209 0 811.95436411 0 12372.23019574 0 352.89526802 0 1800.28981504 0 5509
0.07250000 0.07249820 28878.48223000 0 730.76014773 0 10585.24981704 0 210.61850269 0 3410.64288235 0 5916
0.07350000 0.07351270 28083.68705669 0 192.85373254 0 11911.16913860 0 1485.97638473 0 1180.99065105 0 5721
0.07450000 0.07449140 27625.50971075 0 959.66248859 0 11125.13601088 0 -6.20641199 0 2711.86420102 0 6028
0.07550000 0.07549160 25875.87339217 0 800.42617400 0 11528.19010798 0 -146.48587457 0 4228.40792454 0 6183
0.07650000 0.07648840 26069.30386695 0 -297.28400652 0 10909.84478692 0 2339.83218179 0 4332.58753748 0 6330
0.07750000 0.07749960 25884.08087791 0 -449.69036203 0 8547.97439680 0 2574.67718597 0 4289.16550142 0 6583
0.07850000 0.07848650 26780.69323921 0 -138.46028446 0 6903.57135486 0 611.91686331 0 2222.96423954 0 6549
0.07950000 0.07947320 26156.59158693 0 116.68161013 0 6395.79417618 0 196.11454444 0 3614.54344705 0 6828
0.08050000 0.08048110 25187.88644547 0 909.16648712 0 6389.20600519 0 -1001.33877024 0 1843.13510886 0 7147
0.08150000 0.08149960 24945.98744003 0 562.04973271 0 6500.65035213 0 -937.16954117 0 1825.50010571 0 7386
0.08250000 0.08250610 23741.03980358 0 107.37487586 0 6505.13119569 0 544.77630258 0 -337.44301243 0 7227
0.08350000 0.08350160 23909.73690916 0 476.61202438 0 7881.51546338 0 -543.61616338 0 -121.97322020 0 7798
0.08450000 0.08449610 23181.93256542 0 384.04378553 0 5975.36017346 0 301.36334876 0 -346.33149767 0 7371
0.08550000 0.08548940 23039.18886070 0 286.43570679 0 7840.82186177 0 -140.93805786 0 -155.96995708 0 8256
0.08650000 0.08650700 22470.54319316 0 488.30769156 0 7728.12420958 0 -376.85779903 0 -36.03674074 0 8037
0.08750000 0.08749060 22142.24376349 0 498.55595754 0 8472.28806882 0 931.06272814 0 -5.94944005 0 8155
0.08850000 0.08849210 21126.62285894 0 429.52767509 0 8592.79392367 0 -659.10436073 0 817.19162731 0 8718
0.08950000 0.08949900 20875.73998398 0 492.93937541 0 8945.06142994 0 27.74840017 0 989.30260331 0 8571
0.09050000 0.09049190 20231.78508916 0 693.76989679 0 9636.34246213 0 28.10520398 0 1432.49463304 0 8932
0.09150000 0.09150830 19517.62291767 0 297.08880146 0 8708.14237193 0 -43.57387454 0 598.60520873 0 9285
0.09250000 0.09250820 19423.56956754 0 20.07883748 0 8541.78550890 0 2206.88200397 0 1871.70603219 0 9204
0.09350000 0.09350330 18972.37967569 0 -304.76834622 0 7127.84644835 0 1557.58115223 0 1869.78725512 0 9349
0.09450000 0.09448040 19420.68585634 0 -213.62088970 0 5205.79747321 0 1078.19078301 0 1971.70426388 0 9564
0.09550000 0.09549270 19266.40730679 0 199.56834317 0 5659.62706994 0 728.57185457 0 1743.58052505 0 10155
0.09650000 0.09649430 18894.40856114 0 646.84193338 0 3863.06389707 0 -718.72619904 0 1856.87710187 0 9913
0.09750000 0.09749140 17969.95729551 0 588.48670976 0 5694.22051322 0 -462.74802819 0 1710.47330216 0 10476
0.09850000 0.09850240 17660.62381262 0 114.71070444 0 5180.24335544 0 -401.13975651 0 1129.02839334 0 10575
0.09950000 0.09950330 17179.70951295 0 53.00882305 0 5622.34955699 0 709.66358201 0 726.65196838 0 10882
0.10050000 0.10051200 17445.56550380 0 -90.49074675 0 4708.45711085 0 607.03562753 0 -351.80167600 0 10875
0.10150000 0.10150300 17386.11668816 0 -98.53208636 0 3814.08517134 0 399.56258830 0 -346.22169482 0 11118
0.10250000 0.10250800 17382.67841710 0 57.02128537 0 3703.01792510 0 428.92320486 0 238.42413344 0 11575
0.10350000 0.10349800 17064.58288863 0 251.75020657 0 3356.41802047 0 -57.52715486 0 79.00780872 0 11364
0.10450000 0.10450100 16657.09231275 0 127.62640328 0 2826.12571198 0 477.22093109 0 73.77720024 0 12093
0.10550000 0.10551000 16834.99511180 0 110.51057906 0 2707.03953035 0 536.11075041 0 -81.50088797 0 12067
0.10650000 0.10649700 16401.10748718 0 119.23813103 0 2089.07130999 0 144.85879598 0 336.83077836 0 12054
0.10750000 0.10749900 16309.71602433 0 128.68783083 0 2748.38751257 0 -260.72963962 0 551.82364912 0 12807
0.10850000 0.10850100 16065.26604359 0 166.71399957 0 2230.99426613 0 -217.51168159 0 363.07809594 0 12736
0.10950000 0.10950300 15837.45285828 0 335.60963758 0 3394.82683550 0 -443.01789794 0 -475.81789468 0 12933
0.11050000 0.11050200 15852.09323825 0 252.64193880 0 4027.70162457 0 -863.01823486 0 -8.53650610 0 13428
0.11150000 0.11150900 15383.26834325 0 412.52597929 0 5032.76370962 0 -602.04347979 0 -102.74907035 0 13453
0.11250000 0.11250000 15083.36237777 0 261.28530859 0 5055.66703132 0 -399.98849026 0 -357.20530715 0 13668
0.11350000 0.11349100 14882.72262497 0 158.33681851 0 5922.02260734 0 85.65576126 0 -141.13437205 0 13791
0.11450000 0.11448600 15001.84208020 0 120.24742995 0 5987.20557180 0 226.75175777 0 11.00062623 0 14205
0.11550000 0.11549300 14710.91998424 0 -79.36061970 0 5814.10526103 0 625.94500921 0 468.03963826 0 14776
0.11650000 0.11649800 14854.32916079 0 -2.56048045 0 4908.45357422 0 367.94269492 0 376.41082379 0 14553
0.11750000 0.11747300 14763.71408172 0 -47.43106010 0 4682.60353077 0 980.63261466 0 470.18689399 0 14568
0.11850000 0.11849100 14710.80907228 0 43.14364701 0 3668.40229943 0 259.83125267 0 149.39842289 0 16015
0.11950000 0.11950300 14540.22646321 0 248.40621069 0 3824.88799717 0 106.16493719 0 1092.22447451 0 15270
0.12050000 0.12050700 13995.75960502 0 203.88060054 0 3430.52939848 0 402.59048507 0 819.62725416 0 15999
0.12150000 0.12150000 13916.01389897 0 236.65397840 0 3314.67075516 0 134.46523532 0 709.85213236 0 15670
0.12250000 0.12250700 13548.34072013 0 231.12723496 0 3257.39581412 0 362.89841855 0 1415.85783762 0 16887
0.12350000 0.12352200 13301.67250000 0 78.00671729 0 3086.45828675 0 233.30443693 0 1365.70344502 0 16407
0.12450000 0.12449800 12996.44275999 0 -24.82564795 0 2858.42327750 0 795.47839104 0 2141.32193881 0 16306
0.12550000 0.12549900 13403.82242390 0 -58.45981361 0 2485.58160088 0 134.56838345 0 1602.45613508 0 17523
0.12650000 0.12650100 13348.81008703 0 21.75205545 0 2283.51108368 0 136.64798288 0 1923.10263885 0 17154
0.12750000 0.12750600 13038.92204430 0 233.76139424 0 2363.22351615 0 -199.76576647 0 1600.93664110 0 18007
0.12850000 0.12850300 13014.96505889 0 296.93685206 0 2687.59666210 0 -1098.29357748 0 1272.37102270 0 17496
0.12950000 0.12949900 12893.84918822 0 85.89599659 0 3226.98375209 0 -355.54606409 0 231.20820070 0 18405
0.13050000 0.13049000 12742.89799775 0 119.42668138 0 3630.93623614 0 -429.01415268 0 124.35782754 0 18100
0.13150000 0.13148800 12530.16884028 0 173.80349266 0 3758.56263942 0 -391.42830446 0 -637.59742072 0 19059
0.13250000 0.13249300 12726.15029036 0 74.88521082 0 3802.71669447 0 112.98824155 0 -810.31730344 0 18957
0.13350000 0.13349100 12419.47869474 0 -93.72061421 0 3749.60095229 0 489.37022823 0 -675.12559472 0 19468
0.13450000 0.13450700 12438.66646546 0 123.75224819 0 3618.56955154 0 375.61447585 0 -196.63583070 0 19953
0.13550000 0.13551000 12422.36240595 0 -49.38688177 0 3134.05061286 0 833.11525877 0 620.50699535 0 19956
0.13650000 0.13649900 12208.63504076 0 -46.11032037 0 2795.38091404 0 557.36259288 0 658.33352254 0 19723
0.13750000 0.13749600 12479.26024629 0 122.64312849 0 2236.83932693 0 379.82802157 0 760.36033414 0 20946
0.13850000 0.13851100 12102.71410990 0 132.78602810 0 2390.33040149 0 60.40443317 0 1117.04990064 0 20955
0.13950000 0.13949800 11729.60624456 0 373.93305039 0 2271.14439909 0 -504.96556026 0 881.86217847 0 20506
0.14050000 0.14048300 11532.29385085 0 261.63246305 0 2858.31236553 0 -452.16702630 0 727.10448921 0 21447
0.14150000 0.14148400 11137.89088737 0 263.01331707 0 2945.83300064 0 -234.71080070 0 227.62907145 0 21771
0.14250000 0.14249400 10926.57031192 0 56.95573639 0 2831.03911223 0 157.56819856 0 246.63605566 0 22470
0.14350000 0.14350900 10832.69442095 0 119.69397923 0 3088.70979973 0 138.23291492 0 -32.09215655 0 22519
0.14450000 0.14449900 10874.90751654 0 -20.68674599 0 2735.86555122 0 266.01015849 0 179.72064623 0 22218
0.14550000 0.14550500 10762.45387068 0 -36.96673760 0 2665.55845376 0 244.65294964 0 507.90140009 0 23559
0.14650000 0.14650700 10826.18388834 0 31.64551404 0 2738.63835046 0 -27.39326005 0 -0.29913624 0 23044
0.14750000 0.14750500 10922.05619476 0 49.97482612 0 2352.89761179 0 18.91858737 0 614.10959295 0 23649
0.14850000 0.14849900 10816.72309734 0 134.61385736 0 2845.67949220 0 -172.73541039 0 305.42272684 0 23640
0.14950000 0.14949500 10608.76315457 0 152.33204449 0 2795.91329150 0 161.46564517 0 1017.78368795 0 24457
0.15050000 0.15050000 10578.36218373 0 53.63713935 0 3021.43059904 0 44.06920739 0 789.88066394 0 24591
0.15150000 0.15149900 10530.73658404 0 61.89131903 0 2637.60863745 0 344.65229045 0 1149.95748199 0 25020
0.15250000 0.15250500 10380.36213581 0 213.43899407 0 2981.49119883 0 34.14957358 0 1184.70620202 0 25297
0.15350000 0.15350100 10159.18148627 0 207.80133866 0 3054.48236595 0 -366.57625946 0 1129.81586833 0 25452
0.15450000 0.15450400 9821.93146066 0 190.97377465 0 3218.36589206 0 -46.90567010 0 706.26302103 0 26061
0.15550000 0.15549900 9676.63678064 0 166.26813345 0 3131.41090798 0 -238.60491995 0 1026.47696812 0 26128
0.15650000 0.15649500 9487.78697021 0 8.12671965 0 2979.23968585 0 68.44466366 0 215.87018444 0 26331
0.15750000 0.15749700 9597.96692069 0 25.57519104 0 3001.34444137 0 274.51821567 0 -19.68465634 0 27345
0.15850000 0.15849900 9436.29054278 0 -47.50415109 0 2505.32393145 0 195.19841157 0 -3.05433818 0 26980
0.15950000 0.15949700 9404.41444275 0 101.91046495 0 2439.47549517 0 30.65407195 0 -274.97406386 0 27777
0.16050000 0.16050000 9490.09393917 0 43.53072978 0 2420.83119310 0 53.53975864 0 -105.28717986 0 28224
0.16150000 0.16150500 9370.96339275 0 113.51285517 0 2432.42149391 0 -131.07909289 0 -682.38256488 0 28075
0.16250000 0.16249700 9115.46657985 0 148.05195158 0 2471.67323991 0 -193.47373045 0 -654.72444705 0 28590
0.16350000 0.16349900 9143.41639616 0 73.27199622 0 2686.21026248 0 -230.71686068 0 -918.99328762 0 29163
0.16450000 0.16449100 9069.79303082 0 117.86393173 0 2833.55681394 0 -88.89128524 0 -1116.15151369 0 28996
0.16550000 0.16550500 8904.20146038 0 146.35278021 0 2849.70559669 0 -334.07350680 0 -1488.66045439 0 30777
0.16650000 0.16650700 8895.63905634 0 69.28992378 0 2974.69229510 0 167.58687677 0 -1154.88197343 0 29211
0.16750000 0.16749900 8792.60183669 0 -106.03871937 0 2873.95095322 0 512.73050724 0 -856.20823993 0 30922
0.16850000 0.16850800 8851.59591326 0 -53.25593491 0 2162.76122251 0 478.71602444 0 -613.52841423 0 30867
0.16950000 0.16949900 8993.21940709 0 85.16686130 0 2325.11416344 0 340.39659818 0 -151.51240503 0 30852
0.17050000 0.17049200 8707.69872405 0 188.26641348 0 2073.57690785 0 -20.58969801 0 -240.65346402 0 31257
0.17150000 0.17149500 8535.36370587 0 182.62764895 0 2570.05215684 0 -57.49221759 0 251.61711221 0 32608
0.17250000 0.17250900 8276.22898037 0 200.82164842 0 2541.91379018 0 -45.15348281 0 316.12684102 0 32361
0.17350000 0.17350400 8184.72660555 0 160.97985075 0 2434.26263261 0 4.88129123 0 37.68067795 0 32508
0.17450000 0.17449800 7829.77502961 0 95.54533793 0 2461.14769401 0 81.38420858 0 626.90550686 0 32791
0.17550000 0.17549800 7843.59466101 0 -13.93675444 0 2238.76919520 0 473.97231951 0 538.20365927 0 33633
0.17650000 0.17650100 7902.18945449 0 -162.56700103 0 1969.16437978 0 608.43977307 0 842.60599599 0 33984
0.17750000 0.17750300 8063.22254298 0 -76.94717524 0 1227.15221275 0 424.49448992 0 569.16695379 0 34069
0.17850000 0.17849800 8107.70933394 0 27.40601492 0 1005.94716257 0 117.40142882 0 854.02216501 0 34536
