### header ###
fiducial parameters:
Omega_m = 0.31
Omega_nu = 0
Omega_de = 0.69
Omega_k = 0
H_0 = 100
w_de = -1
zeff = 0
beta = 0
fgrowth = 0
b_1 = 2
gamma = 0.55
Lx = 3500 Ly = 3500 Lz = 3500
nx = 700 ny = 700 nz = 700
xoffset = 1379.75464 yoffset = 22.6059522 zoffset = 368.141391
bins = 400 dk = 0.001
kx_ny = 0.628318531 ky_ny = 0.628318531 kz_ny = 0.628318531
############################
A(data) = 3.25529498 (not used)
A(ran) = 3.25585253 (used)
Ngal = 182548
weighted Ngal = 0
Nran = 9399747
weighted Nran = 0
SN(data) = 6736.32458
SN(ran) = 129.502781
SN(data+ran) = 6865.82736
############################
13 columns: k_central k_mean P_0(k) sigma^{lin}_{P_0(k)} P^img_1(k) sigma^{lin}_{P_1(k)} P_2(k) sigma^{lin}_{P_2(k)} P^img_3(k) sigma^{lin}_{P_3(k)} P_4(k) sigma^{lin}_{P_4(k)} N_modes
### header ###
0.00050000 0 0 0 0 0 0 0 0 0 0 0 0
0.00150000 0.00179520 -492.65211341 0 608.88563918 0 -6558.46876182 0 7727.27018742 0 -47563.82172867 0 3
0.00250000 0.00253879 2920.13469732 0 -9289.37654800 0 -851.13290821 0 17299.93808787 0 6857.78689386 0 6
0.00350000 0.00331552 25376.43679359 0 -32795.00569635 0 -25517.18408287 0 18798.91335542 0 -5517.91484653 0 7
0.00450000 0.00420575 49899.18415808 0 -30395.31432463 0 -29506.57671317 0 1604.90728960 0 -7727.72492649 0 24
0.00550000 0.00557378 101914.01413404 0 -21002.17962918 0 -57692.85734163 0 -28440.04721463 0 11895.19781500 0 45
0.00650000 0.00659388 99210.31305397 0 -449.47630193 0 -17180.92954461 0 -24739.80208877 0 -41050.84905673 0 40
0.00750000 0.00754703 108452.49655896 0 16102.19972943 0 -21858.75276950 0 -42415.73175318 0 19590.38116965 0 57
0.00850000 0.00846663 86366.37425202 0 16457.67259162 0 17329.32975978 0 -22981.07098869 0 -27165.44686134 0 75
0.00950000 0.00948925 64701.71742912 0 13212.61018851 0 47884.02458456 0 -6827.90720928 0 12734.80142398 0 112
0.01050000 0.01054430 59797.85561043 0 5118.13265253 0 32909.91049674 0 12890.07818125 0 -3735.60386174 0 105
0.01150000 0.01145670 51413.68710136 0 606.46221265 0 34824.80564985 0 21230.43646238 0 6286.69007180 0 144
0.01250000 0.01249090 55915.71485462 0 -3521.85431415 0 23798.71402771 0 19406.15638834 0 7320.82218405 0 169
0.01350000 0.01339930 60753.58405146 0 -2633.81544810 0 12690.54754816 0 16423.62261699 0 22663.41910809 0 180
0.01450000 0.01448870 56318.65803975 0 86.70443394 0 8124.55686210 0 7115.93450283 0 30901.40564138 0 267
0.01550000 0.01550050 60655.31604650 0 -1833.14194041 0 4535.43443846 0 9811.05099646 0 26112.55953505 0 238
0.01650000 0.01653350 61745.58070651 0 -1855.93435013 0 7467.94691157 0 839.47384198 0 34639.47174884 0 315
0.01750000 0.01747870 64447.83993098 0 -426.73158434 0 4215.64195685 0 -3522.56415076 0 20342.58614667 0 297
0.01850000 0.01844180 66631.80752205 0 2435.01683400 0 22397.23038133 0 -12120.90367290 0 22164.20433345 0 388
0.01950000 0.01947590 64492.64836665 0 4724.26206650 0 35891.77879627 0 -15756.93076843 0 5916.26627612 0 399
0.02050000 0.02045430 61664.83679273 0 1920.72912271 0 41982.73142432 0 648.69970887 0 19159.37725624 0 462
0.02150000 0.02154770 64319.40387032 0 -1815.18529255 0 49726.16148569 0 6000.93647362 0 8675.66734726 0 571
0.02250000 0.02255340 70571.17885412 0 -2340.55310959 0 37828.41269539 0 7050.99554470 0 7428.04078495 0 510
0.02350000 0.02348930 69581.28952649 0 -1351.70635447 0 42851.72670521 0 10609.58390314 0 13111.45847234 0 555
0.02450000 0.02439640 73222.97313247 0 673.01272170 0 41363.39898673 0 -3494.13741298 0 -2747.51130801 0 592
0.02550000 0.02547300 71891.36402687 0 2013.56244116 0 35927.04880256 0 1236.19153826 0 2880.65003618 0 837
0.02650000 0.02652900 67220.19552015 0 3053.70598216 0 42543.83507793 0 -992.32828184 0 -11091.97333201 0 723
0.02750000 0.02749970 66265.24346291 0 -126.75352608 0 30227.39360284 0 814.96673320 0 -588.10960906 0 826
0.02850000 0.02848090 66943.80289220 0 26.51738822 0 32617.99019306 0 8268.80896961 0 -17892.76256475 0 831
0.02950000 0.02946900 64901.02623828 0 1069.19027669 0 26938.29914784 0 6281.79885394 0 -5833.73667963 0 996
0.03050000 0.03053250 59111.31051934 0 2403.38474030 0 16396.33827250 0 3138.01017017 0 -11831.64525649 0 1041
0.03150000 0.03150510 58936.18051953 0 2174.02987861 0 21040.55517063 0 325.65085184 0 -8388.50516708 0 1036
0.03250000 0.03246190 53496.83571218 0 3597.37427417 0 19792.13004213 0 -2474.35730957 0 -12578.30463504 0 1059
0.03350000 0.03345080 49588.85246747 0 3694.49988585 0 17274.65015883 0 -4090.78835281 0 -14026.81495648 0 1302
0.03450000 0.03451200 45083.16461923 0 2029.47830878 0 19371.77367780 0 -164.68320141 0 -11113.15751818 0 1339
0.03550000 0.03553350 44187.99411354 0 155.62058438 0 21527.79145256 0 2447.46115697 0 -15277.34741239 0 1365
0.03650000 0.03647120 43011.66176521 0 -117.40253794 0 11454.87729615 0 6350.10953595 0 -15519.35732980 0 1308
0.03750000 0.03744890 44125.88341063 0 193.96617959 0 11302.48425009 0 5170.92675000 0 -9608.65883455 0 1579
0.03850000 0.03847530 40896.57050718 0 -217.86992725 0 7208.30199101 0 2529.13673130 0 -5478.37472941 0 1662
0.03950000 0.03950240 44178.23386022 0 -716.34602818 0 3694.46661226 0 2810.32075633 0 -2079.17796231 0 1683
0.04050000 0.04050350 41778.65340047 0 -365.06785667 0 4638.76002923 0 1715.47543198 0 -9931.81194883 0 1822
0.04150000 0.04152450 44470.59781178 0 304.26480588 0 705.82602787 0 -1991.50205043 0 -2574.12262612 0 1887
0.04250000 0.04250150 41778.87522441 0 -403.08515245 0 4503.74688878 0 -2046.86930560 0 -8889.45016844 0 1920
0.04350000 0.04349210 43901.39758439 0 1070.71420715 0 3801.16392690 0 -3729.15987631 0 -9365.82816856 0 2005
0.04450000 0.04448520 42861.04331065 0 1177.04218493 0 9201.00189072 0 -3486.59539905 0 -11864.47519945 0 2151
0.04550000 0.04548030 39706.92872251 0 2196.53391722 0 10667.10285051 0 -4368.09045891 0 -8697.79428517 0 2274
0.04650000 0.04648670 38943.85437248 0 1364.47232216 0 14324.61359454 0 151.41702074 0 -10024.71181447 0 2311
0.04750000 0.04749250 38141.73900918 0 492.13859099 0 15058.62900857 0 2741.41114969 0 -5417.27332542 0 2568
0.04850000 0.04851840 36673.04270930 0 -159.65001623 0 12332.19097476 0 3168.15604347 0 -4640.67880630 0 2493
0.04950000 0.04949480 37936.44095367 0 277.01040762 0 13250.65299404 0 4122.27626094 0 1859.67208351 0 2644
0.05050000 0.05050630 37198.65453267 0 -277.32317937 0 11834.41805572 0 2209.83226236 0 2793.61741373 0 2829
0.05150000 0.05149060 34919.74629572 0 1633.55585132 0 10357.86918840 0 -1311.66713349 0 1923.94556982 0 2784
0.05250000 0.05249300 34351.10062819 0 1651.81196150 0 12881.87069551 0 -1600.37099005 0 2763.17207810 0 3055
0.05350000 0.05348950 32880.51882482 0 1194.42209055 0 15260.59970500 0 -1106.70735949 0 3757.40915494 0 3009
0.05450000 0.05448610 31214.62104320 0 -223.41996221 0 13469.92595771 0 4547.30201920 0 5320.36953768 0 3336
0.05550000 0.05550870 33274.03449255 0 -1494.06186730 0 10483.57681461 0 4497.20308258 0 8603.18637521 0 3349
0.05650000 0.05647670 34169.42682218 0 -1174.05865295 0 5410.19714177 0 3425.28326232 0 6511.14262444 0 3324
0.05750000 0.05747970 33770.92011583 0 706.02234206 0 9117.98428156 0 -1164.40931161 0 7596.07241872 0 3639
0.05850000 0.05849280 34085.79919719 0 766.25530532 0 7527.95028706 0 -3059.96141724 0 5816.00185571 0 3846
0.05950000 0.05951020 33827.70704420 0 766.99286992 0 12666.03600290 0 -1855.87889415 0 5214.39315084 0 3787
0.06050000 0.06049470 32347.80863540 0 717.08026541 0 11841.29459783 0 -1814.15381123 0 1969.13110619 0 3930
0.06150000 0.06148310 32425.44701404 0 -79.39189688 0 15742.62312437 0 311.37648136 0 2617.72212133 0 4083
0.06250000 0.06249100 32576.95276435 0 165.19894206 0 13076.63211392 0 303.95314325 0 -637.15931844 0 4303
0.06350000 0.06350600 33489.31462531 0 -17.80092745 0 15512.81352360 0 2321.15460613 0 2691.99986729 0 4470
0.06450000 0.06451750 31681.67134669 0 468.47995878 0 13679.54958003 0 -314.90570023 0 1499.90692810 0 4479
0.06550000 0.06550280 32011.63445590 0 916.63529914 0 13484.12268980 0 406.62435340 0 6339.77254039 0 4636
0.06650000 0.06648880 30399.08533160 0 555.50814475 0 12853.47723133 0 2570.90617901 0 2012.55314224 0 4653
0.06750000 0.06749660 30195.45095563 0 200.47560308 0 12442.65929636 0 106.82697073 0 5185.24548526 0 5220
0.06850000 0.06852730 29418.06896153 0 534.94617473 0 11696.33265372 0 1139.67594241 0 2911.80520841 0 5029
0.06950000 0.06949320 28892.67896209 0 581.39721667 0 11956.19939821 0 -227.37841040 0 2711.89747461 0 5040
0.07050000 0.07048030 27437.84665839 0 335.51647152 0 10101.51835334 0 -116.44314940 0 939.95343161 0 5475
0.07150000 0.07148790 27803.07977390 0 99.77929146 0 9534.94673963 0 1059.26032806 0 746.53515715 0 5509
0.07250000 0.07249820 27498.62641767 0 -231.49435358 0 9350.32267523 0 964.83653196 0 -852.00467629 0 5916
0.07350000 0.07351270 27443.28134490 0 523.12739526 0 7427.16458039 0 146.96612340 0 -2931.08170870 0 5721
0.07450000 0.07449140 26819.06878065 0 408.63407828 0 8541.76332651 0 -2014.31664255 0 -3820.77316310 0 6028
0.07550000 0.07549160 25915.02531740 0 995.89521078 0 9168.51577485 0 -1551.80263862 0 -4166.81850789 0 6183
0.07650000 0.07648840 25474.37206265 0 805.98397279 0 11048.82857588 0 -1245.14213420 0 -4431.35464630 0 6330
0.07750000 0.07749960 24223.39595886 0 337.98759020 0 11162.62425657 0 -253.89635318 0 -4851.77755782 0 6583
0.07850000 0.07848650 23870.80680787 0 491.60621353 0 11370.69511132 0 882.43781159 0 -4110.02048832 0 6549
0.07950000 0.07947320 23906.18772614 0 -188.61356794 0 10852.30365715 0 1243.45627226 0 -3446.16798618 0 6828
0.08050000 0.08048110 22974.30535855 0 390.08516051 0 10245.62627528 0 1132.75503552 0 -3530.99346044 0 7147
0.08150000 0.08149960 22920.95670123 0 1037.77002485 0 10742.46753378 0 -703.99043477 0 -2321.29879169 0 7386
0.08250000 0.08250610 21849.43616406 0 278.81383624 0 10662.67746293 0 450.51443796 0 -2382.22273652 0 7227
0.08350000 0.08350160 21187.40261822 0 73.65020604 0 9985.69298361 0 456.14654777 0 -2750.73884633 0 7798
0.08450000 0.08449610 21253.94979991 0 98.16873875 0 9282.66637385 0 677.76308135 0 -3551.36798923 0 7371
0.08550000 0.08548940 21149.24890072 0 233.86897885 0 8049.69128270 0 93.46873313 0 -4185.14116525 0 8256
0.08650000 0.08650700 20469.91308764 0 322.94349066 0 7958.15563429 0 274.44834112 0 -3665.37440266 0 8037
0.08750000 0.08749060 20145.60648887 0 187.88487630 0 7405.63656712 0 637.28908545 0 -4843.95826397 0 8155
0.08850000 0.08849210 19843.81501991 0 -36.51255309 0 7397.15180145 0 1219.90966114 0 -3209.26001936 0 8718
0.08950000 0.08949900 19932.21185959 0 90.47910099 0 5491.12960590 0 1467.43190343 0 -3240.54828595 0 8571
0.09050000 0.09049190 19344.15659740 0 579.99307113 0 5019.69827961 0 163.32674802 0 -2562.58778130 0 8932
0.09150000 0.09150830 18579.41856782 0 510.56883296 0 5628.25007377 0 40.59821731 0 -1407.32870717 0 9285
0.09250000 0.09250820 17910.73030381 0 369.03406870 0 5544.82209032 0 -148.48561738 0 -1340.97007583 0 9204
0.09350000 0.09350330 17681.58617486 0 163.62731946 0 5602.98432712 0 830.97798511 0 -333.50009192 0 9349
0.09450000 0.09448040 17425.60134929 0 -34.75404381 0 4829.17369844 0 913.61405710 0 -399.84985030 0 9564
0.09550000 0.09549270 17762.10826470 0 -78.14225171 0 4299.96832725 0 529.36064794 0 153.65966076 0 10155
0.09650000 0.09649430 17405.74810675 0 143.23282651 0 4097.03269669 0 387.19035810 0 3.94075773 0 9913
0.09750000 0.09749140 17190.24615005 0 410.98319380 0 5297.57712796 0 -948.71214984 0 825.42351368 0 10476
0.09850000 0.09850240 16811.25995033 0 528.42676916 0 5167.75466768 0 -788.52531967 0 176.66391235 0 10575
0.09950000 0.09950330 16374.48861451 0 603.85134489 0 7511.54640677 0 -619.66739174 0 765.98578924 0 10882
0.10050000 0.10051200 15473.55068640 0 259.68263063 0 6879.54782227 0 103.61440554 0 23.88267439 0 10875
0.10150000 0.10150300 15578.02976166 0 273.51002586 0 7856.50481426 0 348.12383509 0 1622.22064804 0 11118
0.10250000 0.10250800 15115.19411301 0 -33.62673456 0 7215.92164332 0 508.02007590 0 1298.43533553 0 11575
0.10350000 0.10349800 15336.35258015 0 196.48166306 0 7491.54897868 0 663.84917478 0 2140.85610854 0 11364
0.10450000 0.10450100 14737.64976889 0 39.44329097 0 6916.35950494 0 326.56809382 0 2221.85511985 0 12093
0.10550000 0.10551000 15249.39759608 0 -86.16717635 0 6228.12855191 0 913.02178718 0 2337.27011529 0 12067
0.10650000 0.10649700 14926.64376489 0 50.19232449 0 5903.62231160 0 375.29948586 0 1775.22370994 0 12054
0.10750000 0.10749900 14744.63722297 0 210.62848476 0 5211.55380442 0 -312.04417142 0 1638.67998431 0 12807
0.10850000 0.10850100 14598.23342325 0 -28.73141296 0 5859.71226288 0 65.15235276 0 1676.44550992 0 12736
0.10950000 0.10950300 14287.79082067 0 189.51639137 0 4660.95351432 0 338.96472465 0 101.83715214 0 12933
0.11050000 0.11050200 14714.91281515 0 -204.22997325 0 4694.59311467 0 524.54263199 0 445.27717476 0 13428
0.11150000 0.11150900 14569.83995906 0 -130.50900537 0 4366.28259380 0 193.54249587 0 -55.98259477 0 13453
0.11250000 0.11250000 14806.08245406 0 32.95516258 0 3988.56079054 0 434.40336527 0 496.58061536 0 13668
0.11350000 0.11349100 14671.65714705 0 77.87484296 0 3607.84436409 0 -268.29272682 0 68.74889520 0 13791
0.11450000 0.11448600 14684.74475945 0 203.85730903 0 4307.74325631 0 -30.75888376 0 -361.26246700 0 14205
0.11550000 0.11549300 14435.85829993 0 232.99277429 0 4432.11993889 0 -276.07541972 0 185.11429531 0 14776
0.11650000 0.11649800 13933.31616620 0 244.76386161 0 4801.82280676 0 -213.01641947 0 131.08796585 0 14553
0.11750000 0.11747300 14100.23868028 0 12.16282840 0 4774.81574219 0 318.51144836 0 935.89294441 0 14568
0.11850000 0.11849100 13624.09359529 0 93.68345870 0 4973.11525243 0 250.15196509 0 149.44278768 0 16015
0.11950000 0.11950300 14065.30140989 0 313.17880087 0 4732.97974731 0 23.81823453 0 920.54494607 0 15270
0.12050000 0.12050700 13457.72564106 0 15.00683312 0 4406.95401301 0 207.53625906 0 462.20455954 0 15999
0.12150000 0.12150000 13593.14915580 0 -99.52907405 0 4253.52948563 0 775.97452121 0 735.50496178 0 15670
0.12250000 0.12250700 13611.11689486 0 -51.60822670 0 3931.25257590 0 -16.77709906 0 637.07724359 0 16887
0.12350000 0.12352200 13670.78753444 0 144.93532524 0 3225.51971409 0 311.98871544 0 391.51259755 0 16407
0.12450000 0.12449800 13161.92341846 0 323.49805051 0 3765.96046778 0 -367.35818884 0 196.15114539 0 16306
0.12550000 0.12549900 12943.98139842 0 239.19608074 0 3627.50905628 0 -167.19424840 0 288.34782914 0 17523
0.12650000 0.12650100 12966.49652823 0 4.93143453 0 3879.25704461 0 614.00200834 0 907.33200314 0 17154
0.12750000 0.12750600 12568.65529370 0 96.82947672 0 3141.88099790 0 329.98418248 0 68.99789257 0 18007
0.12850000 0.12850300 12828.52203819 0 89.52736538 0 3699.22473575 0 -203.47688097 0 771.88963337 0 17496
0.12950000 0.12949900 12302.79930285 0 247.73962975 0 3557.06886446 0 -371.50629650 0 -258.02227844 0 18405
0.13050000 0.13049000 12391.75070237 0 172.92728810 0 3986.23163918 0 -116.38769342 0 778.52660563 0 18100
0.13150000 0.13148800 12015.64821386 0 148.59985671 0 4228.82939002 0 -182.42800740 0 -624.23474664 0 19059
0.13250000 0.13249300 12145.74795406 0 1.11031754 0 3703.61684974 0 442.43450098 0 -160.64822396 0 18957
0.13350000 0.13349100 12096.17030370 0 -42.79083603 0 3789.69562925 0 60.13025878 0 -721.10747903 0 19468
0.13450000 0.13450700 11961.52317275 0 142.77808743 0 3576.85555982 0 -227.52259596 0 -400.44766582 0 19953
0.13550000 0.13551000 11919.37662435 0 149.96185570 0 3638.15660535 0 -23.12614384 0 -1548.71928587 0 19956
0.13650000 0.13649900 11676.03576330 0 179.69735472 0 3463.93608369 0 -322.51647958 0 -824.23675561 0 19723
0.13750000 0.13749600 11432.80581423 0 139.04146318 0 3703.36175221 0 164.55121616 0 -1331.69783518 0 20946
0.13850000 0.13851100 11339.75067183 0 11.66217177 0 3236.53327266 0 681.28786374 0 -1215.61736792 0 20955
0.13950000 0.13949800 11408.40518094 0 -30.22861363 0 2915.02165552 0 591.70204775 0 -413.12379481 0 20506
0.14050000 0.14048300 11051.42391597 0 59.75692909 0 2459.02927539 0 395.39784385 0 -598.90023457 0 21447
0.14150000 0.14148400 10990.45560634 0 229.38702616 0 2476.83064649 0 17.06868663 0 113.15239127 0 21771
0.14250000 0.14249400 10732.44109174 0 236.60074066 0 2477.40738873 0 -182.43133476 0 -691.08804536 0 22470
0.14350000 0.14350900 10391.27587361 0 331.65895322 0 2807.39268034 0 -242.28054262 0 -70.66811592 0 22519
0.14450000 0.14449900 9916.19554353 0 235.48829360 0 2746.24691156 0 -368.97195800 0 -485.59145743 0 22218
0.14550000 0.14550500 9942.03803242 0 -114.32140342 0 2956.68019126 0 586.36052730 0 165.63260787 0 23559
0.14650000 0.14650700 10043.58903168 0 -164.49465106 0 2175.50500780 0 864.04417058 0 -366.59511449 0 23044
0.14750000 0.14750500 10421.14446699 0 -85.33367290 0 1723.16163147 0 435.77645545 0 83.93840033 0 23649
0.14850000 0.14849900 10264.07093581 0 48.42849144 0 1705.26043959 0 -14.91067244 0 -83.45748603 0 23640
0.14950000 0.14949500 9935.27240228 0 435.61008750 0 1706.08118817 0 -672.74431473 0 213.96804417 0 24457
0.15050000 0.15050000 9638.31669519 0 304.98573368 0 2196.56719081 0 -376.63708421 0 -331.49480351 0 24591
0.15150000 0.15149900 9301.76541499 0 174.70520697 0 2924.11643702 0 -400.10716607 0 57.01707071 0 25020
0.15250000 0.15250500 9393.26778981 0 -7.24470330 0 2894.81349468 0 161.16396462 0 -157.60369039 0 25297
0.15350000 0.15350100 9307.52174621 0 -28.75492630 0 2940.45377012 0 306.99989505 0 -46.62273367 0 25452
0.15450000 0.15450400 9398.63592914 0 -83.97123027 0 2688.18449554 0 279.20868285 0 456.14543865 0 26061
0.15550000 0.15549900 9668.22965336 0 -139.47734722 0 2614.78295413 0 118.22439563 0 627.27040724 0 26128
0.15650000 0.15649500 9848.29523581 0 19.50231707 0 2614.31712386 0 352.87752210 0 767.99773236 0 26331
0.15750000 0.15749700 9707.11538986 0 103.13537674 0 2680.75339358 0 -205.86037920 0 792.77213899 0 27345
0.15850000 0.15849900 9609.09139123 0 236.49648341 0 3102.87325823 0 -140.62084963 0 1286.42356924 0 26980
0.15950000 0.15949700 9414.70707351 0 136.09564127 0 3317.13300088 0 -78.28865551 0 826.00358328 0 27777
0.16050000 0.16050000 9155.05106176 0 177.64104680 0 3271.32635748 0 -45.97012764 0 1025.59965444 0 28224
0.16150000 0.16150500 8962.45242675 0 202.29123202 0 3373.44300779 0 -156.69310313 0 860.57262593 0 28075
0.16250000 0.16249700 8771.95002797 0 27.87628167 0 3254.58974129 0 170.23767284 0 744.41008381 0 28590
0.16350000 0.16349900 8754.65885193 0 52.56373331 0 3350.08494701 0 199.44966736 0 836.79864527 0 29163
0.16450000 0.16449100 8653.74005090 0 40.70580192 0 2725.24018454 0 135.31925749 0 293.83353515 0 28996
0.16550000 0.16550500 8554.78439172 0 67.72063033 0 3027.80803729 0 -89.53457466 0 273.14068900 0 30777
0.16650000 0.16650700 8552.16686924 0 132.35236230 0 2636.95425683 0 -81.16049914 0 -31.73734916 0 29211
0.16750000 0.16749900 8401.16022279 0 2.01423900 0 2749.75172980 0 149.67792106 0 -113.68365960 0 30922
0.16850000 0.16850800 8405.67433995 0 60.61017487 0 2391.07351169 0 112.79303648 0 -497.80841087 0 30867
0.16950000 0.16949900 8240.95897407 0 58.05864502 0 2417.08236853 0 104.00270834 0 -378.64126350 0 30852
0.17050000 0.17049200 8291.49046737 0 57.63939777 0 2447.25042423 0 94.41015393 0 -532.37745351 0 31257
0.17150000 0.17149500 8219.41986960 0 61.24780779 0 2123.86439481 0 76.57118367 0 -619.31247343 0 32608
0.17250000 0.17250900 8072.45041884 0 70.22724084 0 1888.28737163 0 237.99601323 0 -71.86529971 0 32361
0.17350000 0.17350400 8091.16126809 0 -37.97681291 0 1736.19378788 0 226.52216999 0 -159.50139419 0 32508
0.17450000 0.17449800 7982.00170773 0 85.10075777 0 1742.80414126 0 151.98489002 0 -453.40369476 0 32791
0.17550000 0.17549800 8074.80175259 0 124.53750493 0 1657.67920468 0 -16.77942822 0 -287.28972895 0 33633
0.17650000 0.17650100 7695.54936415 0 134.58612937 0 1729.76089365 0 -183.81329790 0 -410.39203300 0 33984
0.17750000 0.17750300 7728.46803669 0 7.85162469 0 1679.87268978 0 -32.31442413 0 -132.84370233 0 34069
0.17850000 0.17849800 7792.27569273 0 -39.24753134 0 1609.41031557 0 109.76624884 0 -518.06759121 0 34536
