### header ###
fiducial parameters:
Omega_m = 0.31
Omega_nu = 0
Omega_de = 0.69
Omega_k = 0
H_0 = 100
w_de = -1
zeff = 0
beta = 0
fgrowth = 0
b_1 = 2
gamma = 0.55
Lx = 3500 Ly = 3500 Lz = 3500
nx = 700 ny = 700 nz = 700
xoffset = 1379.75464 yoffset = 22.6059522 zoffset = 368.141391
bins = 400 dk = 0.001
kx_ny = 0.628318531 ky_ny = 0.628318531 kz_ny = 0.628318531
############################
A(data) = 3.36343112 (not used)
A(ran) = 3.37540817 (used)
Ngal = 189848
weighted Ngal = 0
Nran = 9399747
weighted Nran = 0
SN(data) = 6558.95366
SN(ran) = 134.258152
SN(data+ran) = 6693.21181
############################
13 columns: k_central k_mean P_0(k) sigma^{lin}_{P_0(k)} P^img_1(k) sigma^{lin}_{P_1(k)} P_2(k) sigma^{lin}_{P_2(k)} P^img_3(k) sigma^{lin}_{P_3(k)} P_4(k) sigma^{lin}_{P_4(k)} N_modes
### header ###
0.00050000 0 0 0 0 0 0 0 0 0 0 0 0
0.00150000 0.00179520 58344.90881022 0 -19107.02680664 0 30649.52455869 0 -15482.86729184 0 263496.89325801 0 3
0.00250000 0.00253879 53258.37497779 0 -8443.70605429 0 2411.29276373 0 -4397.89250511 0 -118912.04984098 0 6
0.00350000 0.00331552 67038.18897823 0 707.07156929 0 41322.36155802 0 -5063.02049489 0 78574.36474802 0 7
0.00450000 0.00420575 62439.44598759 0 10532.18953084 0 40080.92388361 0 -3949.10940299 0 -11086.32791276 0 24
0.00550000 0.00557378 65258.82825183 0 8136.15825411 0 89494.97908718 0 19146.95511566 0 45960.25647389 0 45
0.00650000 0.00659388 45670.66532157 0 4571.08154545 0 11133.23258466 0 48161.08268433 0 -13654.15073902 0 40
0.00750000 0.00754703 67963.86027553 0 -4640.34607039 0 108346.13198022 0 36518.09868793 0 89654.24867535 0 57
0.00850000 0.00846663 63195.20014764 0 2247.71979113 0 38334.28218820 0 37517.85918084 0 11121.91956377 0 75
0.00950000 0.00948925 76285.80716972 0 1419.01882875 0 63341.38212342 0 46307.63276231 0 76116.66641626 0 112
0.01050000 0.01054430 72394.68254438 0 -2284.48710902 0 63393.06710120 0 7106.55135021 0 58490.42531418 0 105
0.01150000 0.01145670 73844.63472142 0 -800.38846393 0 37716.61343016 0 24396.30771928 0 58621.85599801 0 144
0.01250000 0.01249090 79018.78900973 0 1260.79181309 0 76436.75836019 0 4649.80686139 0 43055.80472906 0 169
0.01350000 0.01339930 67661.40333475 0 9259.14194512 0 35316.14567465 0 -8409.45643811 0 34641.35725232 0 180
0.01450000 0.01448870 86683.47157277 0 -11537.50671342 0 62423.69648793 0 36503.68013190 0 57336.82991959 0 267
0.01550000 0.01550050 82042.13838585 0 -8592.56100853 0 36173.38428678 0 2310.45160107 0 -5088.70770703 0 238
0.01650000 0.01653350 103236.52845815 0 6228.11746071 0 48544.28353889 0 6346.85981524 0 37027.07371589 0 315
0.01750000 0.01747870 96765.36959871 0 3120.87427088 0 45197.62577173 0 -5556.53439430 0 5855.76379677 0 297
0.01850000 0.01844180 89574.50296930 0 8735.20489248 0 68189.45522146 0 -5182.12885892 0 61832.20295468 0 388
0.01950000 0.01947590 78884.03096681 0 1162.62362890 0 52477.11106476 0 27916.76454262 0 15529.67214296 0 399
0.02050000 0.02045430 89520.82157607 0 -6379.75630539 0 56897.28578453 0 20746.08389165 0 38244.33258095 0 462
0.02150000 0.02154770 89940.62338056 0 -2584.31543612 0 32936.41845744 0 9309.89526235 0 24696.65733264 0 571
0.02250000 0.02255340 93212.30465634 0 4936.09283702 0 37008.44050501 0 2398.95935272 0 35879.68939159 0 510
0.02350000 0.02348930 84451.25727497 0 6275.18850056 0 36161.18397014 0 -8805.58962831 0 27155.90843197 0 555
0.02450000 0.02439640 78965.77308832 0 5661.23529349 0 37798.91011151 0 -1292.95628424 0 8299.16557566 0 592
0.02550000 0.02547300 73178.27560877 0 837.53953723 0 35488.72469917 0 14048.88643841 0 16871.59606173 0 837
0.02650000 0.02652900 73741.04294192 0 -1524.08573744 0 30360.70979016 0 6396.71474552 0 775.33455914 0 723
0.02750000 0.02749970 71304.63970831 0 -464.35625175 0 19652.93552043 0 2952.79827233 0 1306.25462938 0 826
0.02850000 0.02848090 73280.31462069 0 2888.02568215 0 20129.63516527 0 -2987.31407723 0 -11091.52968413 0 831
0.02950000 0.02946900 66691.69998557 0 3051.25482764 0 15726.76271273 0 -8314.79307216 0 -11693.44894251 0 996
0.03050000 0.03053250 60947.45817412 0 4422.72569507 0 19102.92306377 0 -6248.71381345 0 -18274.85429962 0 1041
0.03150000 0.03150510 59463.56693441 0 2777.63499893 0 18717.50396982 0 -2076.77117257 0 -31640.74482995 0 1036
0.03250000 0.03246190 54472.30648378 0 1491.55525679 0 20528.91825540 0 -1655.05059101 0 -22809.49017190 0 1059
0.03350000 0.03345080 53052.18962652 0 2175.49391661 0 20779.13565856 0 2655.68728848 0 -33053.31967328 0 1302
0.03450000 0.03451200 51496.76016651 0 688.65241852 0 18024.41507253 0 2130.11982989 0 -18295.70574988 0 1339
0.03550000 0.03553350 47529.43901813 0 -184.83812450 0 15084.91514534 0 9251.81066394 0 -17094.64003236 0 1365
0.03650000 0.03647120 49753.44583018 0 -1573.77429977 0 8804.54705580 0 6863.11066839 0 -7051.51683095 0 1308
0.03750000 0.03744890 50237.68748894 0 -2134.81140620 0 2636.81007127 0 9935.21694629 0 -3203.70332969 0 1579
0.03850000 0.03847530 52039.45243318 0 -224.66106714 0 204.84997115 0 1644.92432819 0 -532.31201545 0 1662
0.03950000 0.03950240 51299.55868477 0 2579.89004854 0 -731.93914196 0 -5331.99311209 0 1970.76151214 0 1683
0.04050000 0.04050350 48866.70463417 0 2544.10984718 0 6170.59851334 0 -4715.67748007 0 -1435.40052665 0 1822
0.04150000 0.04152450 42952.43477350 0 2725.86129157 0 9906.70147894 0 -4974.75674958 0 4639.71387217 0 1887
0.04250000 0.04250150 43843.50153632 0 745.37945443 0 13115.67312718 0 -533.64295909 0 1374.85368250 0 1920
0.04350000 0.04349210 44313.54646299 0 -1393.66435253 0 12584.95935321 0 5566.61629233 0 1356.55320754 0 2005
0.04450000 0.04448520 45256.63093950 0 -588.20388423 0 14923.20549383 0 3791.57004154 0 589.20098284 0 2151
0.04550000 0.04548030 44575.63144688 0 869.24372370 0 9369.16661884 0 -1478.37891482 0 4862.99075793 0 2274
0.04650000 0.04648670 44057.56163742 0 1224.26850154 0 16390.01629024 0 -819.11705910 0 11609.26675767 0 2311
0.04750000 0.04749250 42245.48188002 0 1323.47925824 0 15657.33181984 0 -1806.99998920 0 2627.59328661 0 2568
0.04850000 0.04851840 42218.97391932 0 1955.37802197 0 20045.00933255 0 -279.86195436 0 5900.15076696 0 2493
0.04950000 0.04949480 40486.97260388 0 1453.40153929 0 21490.85776672 0 -2147.41100593 0 2031.03107636 0 2644
0.05050000 0.05050630 38689.75505039 0 450.61425873 0 20534.57476585 0 915.19344354 0 6422.50177843 0 2829
0.05150000 0.05149060 38143.06995282 0 -412.09120437 0 21600.66061651 0 2935.89528818 0 4201.41195117 0 2784
0.05250000 0.05249300 37407.27994727 0 1248.08130139 0 20676.76391072 0 -285.29220438 0 3356.61766202 0 3055
0.05350000 0.05348950 37269.74910511 0 1221.56224948 0 21551.85934994 0 2425.10130393 0 4065.48933257 0 3009
0.05450000 0.05448610 36538.06284244 0 -276.97713403 0 20940.40166218 0 1982.18544500 0 5287.25122360 0 3336
0.05550000 0.05550870 34654.88851260 0 1468.00864567 0 20571.95209956 0 -970.57511726 0 4901.92085922 0 3349
0.05650000 0.05647670 33380.06633537 0 1221.27387836 0 18371.45862504 0 592.30319063 0 4357.14344752 0 3324
0.05750000 0.05747970 32518.61306840 0 279.81648045 0 18059.35234291 0 3039.09887578 0 4184.29823428 0 3639
0.05850000 0.05849280 31535.60028288 0 468.69512800 0 16850.63369950 0 1847.21666933 0 4863.42331461 0 3846
0.05950000 0.05951020 32541.23911018 0 -517.43761123 0 14866.75130137 0 3358.08170001 0 2201.75787098 0 3787
0.06050000 0.06049470 31632.09369633 0 -367.62215933 0 12759.64570514 0 1396.39278698 0 3677.40835135 0 3930
0.06150000 0.06148310 31181.90201220 0 518.30494283 0 8696.28588239 0 -693.58356468 0 580.57979545 0 4083
0.06250000 0.06249100 31397.62579285 0 475.32544553 0 12291.70810590 0 141.42052493 0 2190.21193496 0 4303
0.06350000 0.06350600 30003.46233645 0 494.01743975 0 9096.83336898 0 -72.50404175 0 1101.09188647 0 4470
0.06450000 0.06451750 29987.26918891 0 257.44331796 0 11112.27022242 0 1989.13962548 0 -657.95087624 0 4479
0.06550000 0.06550280 30051.26539530 0 -544.22174274 0 7921.23303965 0 481.37791171 0 130.49236857 0 4636
0.06650000 0.06648880 29100.08434502 0 412.51821545 0 9415.78291962 0 1030.44761663 0 104.27277899 0 4653
0.06750000 0.06749660 30230.72096192 0 448.05551960 0 8600.59103512 0 -329.66586513 0 609.90935666 0 5220
0.06850000 0.06852730 28793.63457334 0 157.05356703 0 8200.30973726 0 -435.48142962 0 980.54166684 0 5029
0.06950000 0.06949320 29170.73526958 0 292.57135694 0 9728.66558553 0 123.18881538 0 -1022.22571233 0 5040
0.07050000 0.07048030 27934.28863379 0 731.71842715 0 10162.27593022 0 -802.34716931 0 771.59460753 0 5475
0.07150000 0.07148790 28286.21231296 0 184.70059366 0 9815.46529284 0 88.68665265 0 -1026.84963234 0 5509
0.07250000 0.07249820 27532.01092048 0 310.64889884 0 11032.72415791 0 554.81827230 0 1532.16012882 0 5916
0.07350000 0.07351270 27500.84465706 0 511.88535803 0 10668.95508040 0 1214.73007216 0 868.45181224 0 5721
0.07450000 0.07449140 26559.31294812 0 271.80641801 0 9246.27615666 0 1401.02890730 0 1358.84908531 0 6028
0.07550000 0.07549160 25950.07349976 0 223.55194745 0 10918.16318463 0 115.61907347 0 3097.83785482 0 6183
0.07650000 0.07648840 25920.34909194 0 635.76737323 0 9336.60286460 0 -314.30899384 0 1970.02949314 0 6330
0.07750000 0.07749960 25847.70175192 0 373.31748896 0 11617.58515539 0 -506.53052815 0 2221.44474556 0 6583
0.07850000 0.07848650 24250.90212729 0 467.10243212 0 9375.22241238 0 -845.48416160 0 -653.79944123 0 6549
0.07950000 0.07947320 25052.35201877 0 199.06591195 0 13092.82526147 0 -127.23044755 0 1793.63509688 0 6828
0.08050000 0.08048110 24185.46406529 0 201.21316768 0 10136.17834380 0 162.44388874 0 -1774.00367828 0 7147
0.08150000 0.08149960 24301.03433749 0 37.11081225 0 11703.65284370 0 675.64244449 0 770.91249892 0 7386
0.08250000 0.08250610 24094.07260244 0 276.21627792 0 9341.93773034 0 1727.53156306 0 -1437.89604596 0 7227
0.08350000 0.08350160 23307.26309093 0 354.27279468 0 8692.98070570 0 617.59999263 0 -600.74026414 0 7798
0.08450000 0.08449610 23201.12033614 0 383.50918984 0 10105.42245466 0 642.96223269 0 1747.97263904 0 7371
0.08550000 0.08548940 21843.77965362 0 564.24578971 0 8185.52517173 0 214.35734518 0 -797.66113860 0 8256
0.08650000 0.08650700 21944.70954584 0 574.12360971 0 9142.48473562 0 655.33668112 0 2199.75036433 0 8037
0.08750000 0.08749060 20619.20059856 0 253.22755400 0 7253.06606190 0 688.83542326 0 1066.32431140 0 8155
0.08850000 0.08849210 20735.99090243 0 172.94725225 0 7818.12927282 0 897.06155477 0 3369.49454167 0 8718
0.08950000 0.08949900 20239.65983899 0 -138.83516692 0 7420.47658863 0 1381.91877496 0 2512.92140136 0 8571
0.09050000 0.09049190 20700.72089613 0 83.55131755 0 6212.63414977 0 500.00668610 0 2745.78108129 0 8932
0.09150000 0.09150830 20411.12974381 0 71.29288304 0 5729.96744098 0 65.23609130 0 1898.03653375 0 9285
0.09250000 0.09250820 19689.09282248 0 389.13131757 0 5823.00040098 0 -893.47577080 0 1151.68770871 0 9204
0.09350000 0.09350330 19477.36187274 0 640.38796588 0 6630.68354515 0 -654.57915237 0 750.84297804 0 9349
0.09450000 0.09448040 18862.02226606 0 261.95188952 0 6279.29224343 0 -824.16577195 0 -1231.35577639 0 9564
0.09550000 0.09549270 18792.03681331 0 -179.71066415 0 6349.65479687 0 1058.58709241 0 -210.64844892 0 10155
0.09650000 0.09649430 19075.19507140 0 -69.97968532 0 5856.58454534 0 494.68402069 0 -3130.73434497 0 9913
0.09750000 0.09749140 18419.37259585 0 486.20701886 0 5332.03747687 0 -229.71088911 0 -1120.97618436 0 10476
0.09850000 0.09850240 17863.03815693 0 582.14698158 0 6059.94164139 0 -243.48726484 0 -759.81131990 0 10575
0.09950000 0.09950330 17417.83751143 0 216.83290034 0 5995.20232480 0 22.96532149 0 -484.92931297 0 10882
0.10050000 0.10051200 17236.49644132 0 172.89512363 0 6183.29793385 0 1324.23345963 0 -859.12189737 0 10875
0.10150000 0.10150300 17129.57730274 0 -77.69183821 0 5389.14604996 0 761.44061673 0 541.66854920 0 11118
0.10250000 0.10250800 16773.54988071 0 187.59095958 0 4989.09766723 0 739.09518224 0 1421.49216567 0 11575
0.10350000 0.10349800 16889.78562472 0 222.94747722 0 4439.95032393 0 -100.73978911 0 1152.66373404 0 11364
0.10450000 0.10450100 16148.56093267 0 243.26765914 0 4469.66364056 0 76.15836932 0 737.53575994 0 12093
0.10550000 0.10551000 16299.95577102 0 282.94752535 0 4319.46665149 0 -33.38871747 0 1139.79794558 0 12067
0.10650000 0.10649700 15827.13804511 0 74.07954627 0 4233.62078711 0 -33.04799590 0 889.74691038 0 12054
0.10750000 0.10749900 15587.56819103 0 55.02198620 0 4035.54310081 0 410.05375149 0 78.31161429 0 12807
0.10850000 0.10850100 15478.98537291 0 77.31329566 0 3648.02777063 0 187.36359005 0 -832.18470734 0 12736
0.10950000 0.10950300 15531.77947038 0 127.77613444 0 3932.20641884 0 8.18162107 0 -154.51701028 0 12933
0.11050000 0.11050200 15229.76617748 0 129.36217561 0 2965.28696009 0 250.52795667 0 -403.63083934 0 13428
0.11150000 0.11150900 14978.77239054 0 199.59274380 0 3514.83358648 0 -278.67630540 0 -468.02189234 0 13453
0.11250000 0.11250000 14797.43132044 0 226.16725169 0 3455.41804443 0 163.46095150 0 -1078.94054793 0 13668
0.11350000 0.11349100 14712.91639970 0 150.95451782 0 3792.45733729 0 -103.61263095 0 -421.84480297 0 13791
0.11450000 0.11448600 14236.21675486 0 203.14636330 0 4370.68579899 0 6.62337445 0 -982.78208862 0 14205
0.11550000 0.11549300 14432.75276478 0 49.67980028 0 3626.86576686 0 -125.91281335 0 -335.26691959 0 14776
0.11650000 0.11649800 14218.02719187 0 95.50818242 0 4411.52358616 0 296.65957213 0 -391.41832238 0 14553
0.11750000 0.11747300 14208.26693855 0 121.70370411 0 3430.27430095 0 753.57141249 0 1058.49281723 0 14568
0.11850000 0.11849100 13958.04953540 0 -74.32044707 0 4158.99921404 0 647.79133984 0 1720.62174737 0 16015
0.11950000 0.11950300 14222.57458261 0 -90.19294811 0 2878.60925594 0 474.57124414 0 1394.29655075 0 15270
0.12050000 0.12050700 14013.39460817 0 164.39039381 0 3734.93838992 0 69.05223943 0 1577.67840110 0 15999
0.12150000 0.12150000 14253.51902210 0 174.43901824 0 3578.63015133 0 -1029.68786964 0 1503.03464564 0 15670
0.12250000 0.12250700 13640.84130268 0 165.60377075 0 4184.77515575 0 -537.01135560 0 1516.24426120 0 16887
0.12350000 0.12352200 14006.29624212 0 -12.00156239 0 4365.16238291 0 -196.12674476 0 249.03729980 0 16407
0.12450000 0.12449800 13739.33113158 0 -51.12842152 0 4091.65346617 0 365.06342019 0 74.00135333 0 16306
0.12550000 0.12549900 14071.51248018 0 173.80127442 0 4613.61628575 0 68.09296181 0 -90.66554401 0 17523
0.12650000 0.12650100 13733.89644508 0 83.17388412 0 3820.65115994 0 -76.24576795 0 249.46652912 0 17154
0.12750000 0.12750600 13628.75189801 0 140.12618224 0 4475.68616050 0 217.08134315 0 736.65179155 0 18007
0.12850000 0.12850300 13244.66374769 0 175.88974680 0 3774.15686233 0 66.66131011 0 -550.33188313 0 17496
0.12950000 0.12949900 13384.63465318 0 251.54391031 0 4251.77707651 0 153.03300813 0 233.68375586 0 18405
0.13050000 0.13049000 12980.69326032 0 190.96490170 0 3765.93828539 0 -25.56964544 0 37.45951948 0 18100
0.13150000 0.13148800 12582.74111382 0 273.77621459 0 4324.54641969 0 -140.60754019 0 320.80843525 0 19059
0.13250000 0.13249300 12477.48565478 0 192.54872462 0 4334.77250327 0 8.41607788 0 387.49536602 0 18957
0.13350000 0.13349100 12084.74637084 0 0.26478014 0 3882.41803574 0 616.66500472 0 353.98664180 0 19468
0.13450000 0.13450700 12110.36703579 0 90.04598975 0 3907.92778872 0 406.56446093 0 512.88800224 0 19953
0.13550000 0.13551000 12194.66013260 0 -83.86741667 0 3600.77927163 0 258.18310080 0 780.63393305 0 19956
0.13650000 0.13649900 11842.29280556 0 252.69961303 0 3107.24318983 0 23.51999225 0 240.10444977 0 19723
0.13750000 0.13749600 11664.16818257 0 336.05328545 0 3186.30124168 0 -426.53748840 0 -130.68646452 0 20946
0.13850000 0.13851100 11318.89922157 0 75.04026575 0 3640.80740142 0 -420.55378764 0 -258.84080878 0 20955
0.13950000 0.13949800 11221.85124827 0 166.19714979 0 3652.44206702 0 164.10091357 0 -469.14432147 0 20506
0.14050000 0.14048300 11008.45661899 0 2.89614444 0 3314.23819848 0 176.91013692 0 -793.52190390 0 21447
0.14150000 0.14148400 11047.32017310 0 -98.50014371 0 2996.16485240 0 339.83871097 0 -1059.53871710 0 21771
0.14250000 0.14249400 11102.50996911 0 59.65489008 0 3010.67213800 0 90.23487284 0 -1334.24881048 0 22470
0.14350000 0.14350900 11064.68898752 0 270.88695778 0 2974.34846800 0 -344.38721084 0 -1344.54144125 0 22519
0.14450000 0.14449900 10675.04414753 0 224.56679197 0 3312.45251577 0 -283.68952642 0 -1432.58336262 0 22218
0.14550000 0.14550500 10493.90271897 0 62.96372687 0 3304.65540431 0 129.53187092 0 -1234.96041540 0 23559
0.14650000 0.14650700 10453.24239096 0 106.61623799 0 3555.76010322 0 32.34592313 0 -1609.97596661 0 23044
0.14750000 0.14750500 10482.14605020 0 127.20161044 0 3401.19318255 0 1.71872515 0 -900.40333241 0 23649
0.14850000 0.14849900 10159.00402712 0 181.58840380 0 3694.57752423 0 140.12507312 0 -491.41433583 0 23640
0.14950000 0.14949500 10032.22055480 0 67.76089137 0 3326.21669118 0 59.11197599 0 -656.95377764 0 24457
0.15050000 0.15050000 10041.52606904 0 82.11656032 0 3537.34871629 0 228.71157227 0 -335.97121060 0 24591
0.15150000 0.15149900 9898.81563791 0 141.93515647 0 3385.54350366 0 105.63699621 0 -475.76243869 0 25020
0.15250000 0.15250500 9835.04125546 0 -22.27567086 0 3270.56106489 0 177.95825503 0 136.40175831 0 25297
0.15350000 0.15350100 9898.81563791 0 -171.71612939 0 2867.42932942 0 796.39896039 0 -121.68706732 0 25452
0.15450000 0.15450400 10060.73602216 0 -45.20638782 0 2732.00581468 0 134.65822215 0 91.43760223 0 26061
0.15550000 0.15549900 10082.11984987 0 83.45138587 0 2208.43477154 0 -11.07707785 0 -260.53665279 0 26128
0.15650000 0.15649500 9849.95891535 0 230.81446321 0 2818.73897482 0 -417.75104217 0 113.55611083 0 26331
0.15750000 0.15749700 9691.54334934 0 231.74279640 0 2597.44741330 0 -488.21563463 0 -947.14274547 0 27345
0.15850000 0.15849900 9459.52660038 0 138.45917534 0 3221.62670396 0 -268.83064987 0 -733.19799282 0 26980
0.15950000 0.15949700 9227.44330424 0 239.22602698 0 3496.34456117 0 -261.58698914 0 -1376.00716699 0 27777
0.16050000 0.16050000 8996.20293907 0 120.52249164 0 3706.74456728 0 -101.09049276 0 -1459.84552472 0 28224
0.16150000 0.16150500 8887.86412728 0 88.86067353 0 3524.10582713 0 249.64842475 0 -1792.50379479 0 28075
0.16250000 0.16249700 8911.17782326 0 23.15575734 0 3346.46921681 0 269.53826824 0 -1431.58515489 0 28590
0.16350000 0.16349900 8941.02423425 0 -161.14954606 0 2782.68149354 0 463.57764973 0 -1043.98220427 0 29163
0.16450000 0.16449100 8975.63985992 0 2.58367215 0 2516.93641466 0 350.52397011 0 -1225.51071560 0 28996
0.16550000 0.16550500 9051.50364705 0 83.31385503 0 2540.67157613 0 51.38462817 0 -859.79846038 0 30777
0.16650000 0.16650700 8735.09398051 0 181.26675908 0 2305.94857511 0 -26.83947658 0 -1311.04602646 0 29211
0.16750000 0.16749900 8656.73467407 0 218.86480762 0 2785.85357586 0 -341.81738051 0 -542.66453868 0 30922
0.16850000 0.16850800 8477.47874900 0 86.17427472 0 2771.81212053 0 -58.63438905 0 -905.89680226 0 30867
0.16950000 0.16949900 8306.09757375 0 48.38823040 0 2907.79019511 0 365.53701430 0 -337.07589381 0 30852
0.17050000 0.17049200 8353.66771746 0 71.05020765 0 2749.25262593 0 53.32492216 0 -659.15538023 0 31257
0.17150000 0.17149500 8383.82468196 0 39.67110416 0 2696.85781155 0 64.32805500 0 -405.87569760 0 32608
0.17250000 0.17250900 8140.19544980 0 123.67128245 0 3142.99011760 0 76.80908984 0 -169.38586891 0 32361
0.17350000 0.17350400 8091.83783111 0 84.79142429 0 2669.28509594 0 78.52645078 0 -1.06263427 0 32508
0.17450000 0.17449800 7986.63782805 0 -68.22317246 0 2502.97259770 0 439.19143500 0 -87.30180580 0 32791
0.17550000 0.17549800 8183.38457072 0 5.25657297 0 2521.60580857 0 258.63118516 0 24.22128863 0 33633
0.17650000 0.17650100 7960.83970395 0 99.48360015 0 1995.51706373 0 168.48415460 0 432.83396090 0 33984
0.17750000 0.17750300 7930.93783698 0 34.79197571 0 1895.37464648 0 316.85664178 0 488.70586553 0 34069
0.17850000 0.17849800 7838.65907837 0 11.05811191 0 1687.05978540 0 234.38693775 0 498.35853424 0 34536
