### header ###
fiducial parameters:
Omega_m = 0.31
Omega_nu = 0
Omega_de = 0.69
Omega_k = 0
H_0 = 100
w_de = -1
zeff = 0
beta = 0
fgrowth = 0
b_1 = 2
gamma = 0.55
Lx = 3500 Ly = 3500 Lz = 3500
nx = 700 ny = 700 nz = 700
xoffset = 1379.75464 yoffset = 22.6059522 zoffset = 368.141391
bins = 400 dk = 0.001
kx_ny = 0.628318531 ky_ny = 0.628318531 kz_ny = 0.628318531
############################
A(data) = 3.32816463 (not used)
A(ran) = 3.31785014 (used)
Ngal = 186037
weighted Ngal = 0
Nran = 9399747
weighted Nran = 0
SN(data) = 6741.13669
SN(ran) = 131.96876
SN(data+ran) = 6873.10545
############################
13 columns: k_central k_mean P_0(k) sigma^{lin}_{P_0(k)} P^img_1(k) sigma^{lin}_{P_1(k)} P_2(k) sigma^{lin}_{P_2(k)} P^img_3(k) sigma^{lin}_{P_3(k)} P_4(k) sigma^{lin}_{P_4(k)} N_modes
### header ###
0.00050000 0 0 0 0 0 0 0 0 0 0 0 0
0.00150000 0.00179520 15954.90863396 0 7821.14607839 0 3571.42087331 0 7140.16876816 0 -96617.74576733 0 3
0.00250000 0.00253879 16823.12753106 0 -487.09764197 0 18224.05661759 0 12562.99878325 0 21160.67283357 0 6
0.00350000 0.00331552 35260.91151385 0 -30032.52127246 0 -19198.41826950 0 60390.12552747 0 -2247.94161507 0 7
0.00450000 0.00420575 44101.37186537 0 -23518.77221674 0 966.54346717 0 20241.43443051 0 6201.80914155 0 24
0.00550000 0.00557378 105015.77827258 0 -23854.28092442 0 -47860.84398294 0 5688.69709714 0 6645.94503215 0 45
0.00650000 0.00659388 103475.76557632 0 -9683.01421889 0 8779.40331232 0 8131.89923448 0 21986.41244637 0 40
0.00750000 0.00754703 103995.72088925 0 22397.89585315 0 -48567.02049263 0 -38804.65985078 0 24813.66946044 0 57
0.00850000 0.00846663 103658.99214991 0 6500.01815390 0 8157.04297796 0 -777.23891766 0 15000.40022459 0 75
0.00950000 0.00948925 81560.89135027 0 8246.07201587 0 35897.87895459 0 -15357.98041420 0 2102.45838470 0 112
0.01050000 0.01054430 75362.24319984 0 1789.54244520 0 332.90005816 0 12641.85719355 0 9003.83368257 0 105
0.01150000 0.01145670 77133.72917641 0 -1496.24683310 0 30615.47458406 0 10238.80518916 0 20897.81146590 0 144
0.01250000 0.01249090 76004.75623905 0 -661.44793064 0 -1675.76894691 0 10935.56527265 0 -553.97201397 0 169
0.01350000 0.01339930 84319.16111932 0 2938.67917861 0 19779.37516564 0 8760.00480886 0 -1850.56621081 0 180
0.01450000 0.01448870 68044.82601325 0 6338.29741120 0 9815.38765447 0 -19461.16872520 0 1967.93325692 0 267
0.01550000 0.01550050 68921.58513201 0 2457.02176874 0 16602.07997589 0 -11312.35541537 0 -20939.73619037 0 238
0.01650000 0.01653350 66513.79718652 0 -1143.24730783 0 23223.41364201 0 -10084.87046672 0 -40025.02425099 0 315
0.01750000 0.01747870 73753.68690644 0 33.49785485 0 26210.38389213 0 -16035.31981183 0 -53533.54757408 0 297
0.01850000 0.01844180 65284.44891678 0 4297.56153751 0 37403.28711637 0 -16058.05676558 0 -42499.80302605 0 388
0.01950000 0.01947590 68948.75856453 0 4250.52377126 0 49686.12226471 0 -16933.48494070 0 -61407.74284747 0 399
0.02050000 0.02045430 67042.73636898 0 -672.55576438 0 45726.45404222 0 7532.26476267 0 -55629.00741351 0 462
0.02150000 0.02154770 70469.47257810 0 -1696.58712358 0 62114.58482898 0 3413.73732630 0 -39918.65967226 0 571
0.02250000 0.02255340 71906.55896669 0 -189.68054109 0 34148.35354797 0 4657.88125277 0 -49721.94683085 0 510
0.02350000 0.02348930 79902.97923045 0 -5047.59263994 0 58180.64818341 0 10412.51551576 0 -22258.59041948 0 555
0.02450000 0.02439640 75466.38953919 0 3124.29035954 0 39752.29171803 0 -961.37496939 0 -39236.55105994 0 592
0.02550000 0.02547300 80556.91620251 0 2214.23546755 0 53049.30591532 0 3999.25270439 0 -11488.59453488 0 837
0.02650000 0.02652900 74842.62062282 0 -569.11371605 0 42229.17782051 0 9237.43647269 0 -22897.44336370 0 723
0.02750000 0.02749970 74619.46574022 0 2963.50127738 0 43338.96298715 0 9114.20218340 0 6064.65540009 0 826
0.02850000 0.02848090 71852.43392558 0 1749.70286576 0 36816.45188584 0 2423.53744516 0 -8092.10401983 0 831
0.02950000 0.02946900 70273.04748015 0 1195.19847434 0 33206.93275101 0 11417.61087441 0 7827.35714868 0 996
0.03050000 0.03053250 63558.76958361 0 3252.07203958 0 30523.41764939 0 3500.88086072 0 8826.96236483 0 1041
0.03150000 0.03150510 61024.87472882 0 3471.95501908 0 25304.67674934 0 792.25196185 0 -655.98107966 0 1036
0.03250000 0.03246190 56821.20017347 0 5353.64312853 0 32535.36077579 0 -1565.45590206 0 5980.01847618 0 1059
0.03350000 0.03345080 48092.98273507 0 2918.17155546 0 26885.83778628 0 -3338.38373423 0 -6306.37694638 0 1302
0.03450000 0.03451200 47592.43701679 0 709.24433477 0 28015.58710742 0 4890.72984150 0 976.76400516 0 1339
0.03550000 0.03553350 45752.07470717 0 179.86261355 0 22282.88014080 0 2775.64967467 0 -13778.48305681 0 1365
0.03650000 0.03647120 47096.32777730 0 -51.81119560 0 22607.96312335 0 3945.21639286 0 -4759.35461365 0 1308
0.03750000 0.03744890 46261.71520694 0 -1176.94236416 0 16177.84169262 0 1275.83147615 0 -7634.81396966 0 1579
0.03850000 0.03847530 47145.01813190 0 -928.79014188 0 15754.26888116 0 4943.98976925 0 -5504.29485668 0 1662
0.03950000 0.03950240 48141.78400164 0 722.00697510 0 12659.15946079 0 494.99568332 0 -4758.35640592 0 1683
0.04050000 0.04050350 47013.36562413 0 999.29577176 0 13272.83538794 0 -10.11580382 0 -5023.31400982 0 1822
0.04150000 0.04152450 46682.62613113 0 1435.26743228 0 18516.42056915 0 -312.84939232 0 1958.37264515 0 1887
0.04250000 0.04250150 43506.21823713 0 1900.93133615 0 16768.78066602 0 910.98766166 0 1657.11355364 0 1920
0.04350000 0.04349210 42417.72816863 0 1595.90123768 0 21541.10088890 0 665.50065401 0 5291.08877774 0 2005
0.04450000 0.04448520 40098.89162266 0 1666.24160873 0 22059.05978638 0 263.29836083 0 3496.28910519 0 2151
0.04550000 0.04548030 39064.74841921 0 921.73503150 0 22537.42311076 0 2310.12995636 0 9995.29796016 0 2274
0.04650000 0.04648670 38837.71161768 0 10.13376046 0 22267.90702492 0 2940.63122928 0 10672.61517540 0 2311
0.04750000 0.04749250 38259.19478486 0 -1415.59164890 0 15120.85062345 0 5980.93904553 0 11051.10227125 0 2568
0.04850000 0.04851840 39323.72786795 0 -533.73945250 0 17797.82191887 0 3760.57014607 0 10960.25427705 0 2493
0.04950000 0.04949480 39944.50216115 0 415.83891982 0 11120.92135604 0 247.66642785 0 12613.57464134 0 2644
0.05050000 0.05050630 38997.97941358 0 719.12991861 0 13506.30508370 0 2913.94580942 0 13355.02115732 0 2829
0.05150000 0.05149060 38584.94323923 0 155.44977995 0 13847.91394970 0 -1272.88121776 0 11768.75816979 0 2784
0.05250000 0.05249300 37718.38802167 0 686.55285493 0 12164.60298887 0 426.14486002 0 8627.08790463 0 3055
0.05350000 0.05348950 36955.64640754 0 1156.52347058 0 10231.93973825 0 -989.45455271 0 7483.34149294 0 3009
0.05450000 0.05448610 35914.29392607 0 -530.48085884 0 12406.72381825 0 1576.87983492 0 8780.30169927 0 3336
0.05550000 0.05550870 36209.87432474 0 -170.13008823 0 9820.53396985 0 1567.75177983 0 1922.94736210 0 3349
0.05650000 0.05647670 36857.15657864 0 745.23083239 0 10132.81771112 0 -1478.67837714 0 735.31530232 0 3324
0.05750000 0.05747970 34572.48091927 0 881.16010571 0 8847.44780560 0 -615.82429199 0 -1582.17033586 0 3639
0.05850000 0.05849280 33916.21479585 0 810.91622807 0 9548.01216963 0 -2734.07986851 0 -2561.26792886 0 3846
0.05950000 0.05951020 33010.17491715 0 1092.55388306 0 11596.51188118 0 298.38203502 0 -3391.15564931 0 3787
0.06050000 0.06049470 32077.62707774 0 699.12029019 0 9871.36492546 0 525.38889032 0 -2905.93796522 0 3930
0.06150000 0.06148310 31343.61166371 0 245.18089062 0 10338.58159691 0 826.68347366 0 -1928.68151092 0 4083
0.06250000 0.06249100 31237.35799694 0 314.81031594 0 12301.13562330 0 725.13358352 0 -240.64126371 0 4303
0.06350000 0.06350600 30684.24000514 0 50.63120316 0 9568.08723611 0 1844.56587326 0 1679.83941619 0 4470
0.06450000 0.06451750 30728.38296899 0 -44.02218072 0 11086.80483423 0 1825.31155536 0 2922.66349022 0 4479
0.06550000 0.06550280 31385.20365226 0 -95.39871231 0 11362.82036148 0 -945.45799265 0 3116.71507203 0 4636
0.06650000 0.06648880 30711.08070175 0 584.24876340 0 12422.91696580 0 232.48257923 0 4558.24903058 0 4653
0.06750000 0.06749660 30358.38063880 0 771.60348049 0 13160.37065088 0 -1120.82090760 0 4863.34567624 0 5220
0.06850000 0.06852730 29804.37535123 0 838.88268118 0 13669.78932671 0 -548.73807813 0 4792.48401893 0 5029
0.06950000 0.06949320 29322.24101989 0 556.25901878 0 16138.46794345 0 617.56782815 0 4800.27003919 0 5040
0.07050000 0.07048030 28300.51995702 0 854.43364842 0 16445.58318695 0 -776.49469835 0 5388.69131088 0 5475
0.07150000 0.07148790 27959.35473890 0 11.22495678 0 15616.84895098 0 184.74495845 0 1720.56629138 0 5509
0.07250000 0.07249820 27692.27871638 0 22.85052760 0 16165.19772810 0 2091.32282297 0 5075.24299393 0 5916
0.07350000 0.07351270 27406.45857103 0 -20.55487166 0 13010.86131602 0 422.71213457 0 2133.80210728 0 5721
0.07450000 0.07449140 28189.94072345 0 -410.80573465 0 12949.08334902 0 1974.11105362 0 3282.32882486 0 6028
0.07550000 0.07549160 27886.48557495 0 -141.63125767 0 10638.16591768 0 2486.16943432 0 733.66715045 0 6183
0.07650000 0.07648840 27947.93080604 0 -121.23787384 0 9047.73264009 0 931.91564118 0 3167.20220053 0 6330
0.07750000 0.07749960 27320.27997074 0 462.68813573 0 7734.60146860 0 1500.18420802 0 2671.60315610 0 6583
0.07850000 0.07848650 26665.12296701 0 815.80633681 0 6985.16929081 0 -532.90317625 0 3467.98437057 0 6549
0.07950000 0.07947320 25495.33442488 0 1127.84163527 0 7917.37330311 0 -921.63964721 0 1554.91926496 0 6828
0.08050000 0.08048110 24098.17634531 0 780.45092830 0 8411.99632221 0 73.24271546 0 545.72570904 0 7147
0.08150000 0.08149960 23478.95481969 0 279.34510458 0 8572.72994839 0 -433.37964779 0 1678.41974298 0 7386
0.08250000 0.08250610 23168.51221711 0 172.48696758 0 7856.88191495 0 226.20828912 0 -1935.61350901 0 7227
0.08350000 0.08350160 23257.35270467 0 83.32461349 0 8517.01886612 0 492.40145235 0 -346.24165897 0 7798
0.08450000 0.08449610 22451.68815835 0 -8.21984134 0 6556.21724884 0 121.28556599 0 -1346.31603276 0 7371
0.08550000 0.08548940 22840.43461138 0 301.31343837 0 7117.02144013 0 234.48897676 0 -703.83293978 0 8256
0.08650000 0.08650700 22347.65273097 0 102.64647678 0 6331.12140677 0 655.08380183 0 -1560.63123139 0 8037
0.08750000 0.08749060 22289.20212306 0 228.75371882 0 7355.07180023 0 835.07950975 0 -1131.96756054 0 8155
0.08850000 0.08849210 21285.78153515 0 623.67242295 0 6376.00748082 0 -523.93816176 0 -266.06117799 0 8718
0.08950000 0.08949900 20790.78141535 0 724.48253026 0 7097.42329512 0 -468.59197987 0 -370.97613728 0 8571
0.09050000 0.09049190 20181.09831911 0 379.59288819 0 7809.61123356 0 458.05867012 0 1194.88792082 0 8932
0.09150000 0.09150830 19520.83936478 0 390.47446152 0 8275.72987651 0 285.72476106 0 484.87496611 0 9285
0.09250000 0.09250820 19057.33824431 0 458.81176240 0 8612.89117254 0 -59.13260562 0 908.58309016 0 9204
0.09350000 0.09350330 18715.72937831 0 216.15300996 0 8463.63693520 0 181.96217713 0 1698.32844150 0 9349
0.09450000 0.09448040 18370.01676943 0 -12.19854205 0 7858.63432407 0 607.00457218 0 974.26737673 0 9564
0.09550000 0.09549270 18914.03997974 0 -76.83670692 0 7823.19794982 0 188.96404977 0 1933.49509039 0 10155
0.09650000 0.09649430 18241.58070877 0 134.69925958 0 7269.31466543 0 817.00085872 0 968.00972341 0 9913
0.09750000 0.09749140 18787.60033453 0 113.25886676 0 6889.87372663 0 397.88670844 0 1822.21711141 0 10476
0.09850000 0.09850240 18312.56436924 0 -93.39131658 0 6738.58980026 0 655.54852298 0 2541.28159196 0 10575
0.09950000 0.09950330 18025.52419222 0 473.37006751 0 6390.90295832 0 144.00255558 0 1887.53317024 0 10882
0.10050000 0.10051200 17759.66820137 0 392.82690439 0 6760.43945824 0 299.80059911 0 2794.54907427 0 10875
0.10150000 0.10150300 17160.96539011 0 201.35291676 0 6325.24307239 0 132.68620733 0 1832.66501894 0 11118
0.10250000 0.10250800 16812.70180593 0 272.85675436 0 6914.15235675 0 62.15684229 0 2579.62385981 0 11575
0.10350000 0.10349800 16736.72710684 0 162.10338900 0 5531.05791491 0 431.56845533 0 1360.75677118 0 11364
0.10450000 0.10450100 16402.99299067 0 -109.60631378 0 5891.72145727 0 541.27370259 0 2139.62498568 0 12093
0.10550000 0.10551000 16331.01112247 0 182.04536111 0 4647.15606532 0 177.87174370 0 945.49792096 0 12067
0.10650000 0.10649700 16109.07627154 0 188.07675401 0 5877.46926920 0 -208.96369610 0 1061.59724326 0 12054
0.10750000 0.10749900 15966.11074287 0 66.06116544 0 4355.61286234 0 228.27457911 0 -137.25688959 0 12807
0.10850000 0.10850100 15822.14700649 0 302.21515268 0 5585.30495919 0 -918.63947843 0 255.29384400 0 12736
0.10950000 0.10950300 15497.28584787 0 256.59927788 0 5549.62457860 0 -481.79826807 0 -223.49094587 0 12933
0.11050000 0.11050200 15345.22553771 0 35.49027747 0 5302.41288982 0 501.54836248 0 -547.93285723 0 13428
0.11150000 0.11150900 15346.11283347 0 -38.67112184 0 6006.82589920 0 491.61286825 0 85.73073775 0 13453
0.11250000 0.11250000 15714.22966018 0 -93.02153607 0 4852.28775288 0 339.36178950 0 -737.68105462 0 13668
0.11350000 0.11349100 15516.14088269 0 175.02019696 0 5693.69922696 0 134.22011987 0 467.56382591 0 13791
0.11450000 0.11448600 15088.46432836 0 310.80528472 0 5177.12672910 0 3.79373282 0 -701.85981584 0 14205
0.11550000 0.11549300 14838.69057309 0 320.19509206 0 5378.13249139 0 -333.81730015 0 482.15762285 0 14776
0.11650000 0.11649800 14473.01380971 0 60.29207935 0 5052.21766907 0 849.67219757 0 144.86101422 0 14553
0.11750000 0.11747300 14327.60821771 0 158.28912637 0 5151.94971202 0 667.69227452 0 634.96991617 0 14568
0.11850000 0.11849100 14101.12597603 0 146.53134848 0 3830.97706429 0 557.43246742 0 1009.41648898 0 16015
0.11950000 0.11950300 13881.85301236 0 107.90459143 0 4056.21709192 0 328.43141491 0 167.38501698 0 15270
0.12050000 0.12050700 13556.10455800 0 229.43693655 0 3196.22786295 0 252.54766363 0 1804.63756425 0 15999
0.12150000 0.12150000 13325.62948541 0 157.85656969 0 3409.22320914 0 -11.56390376 0 243.88322057 0 15670
0.12250000 0.12250700 13147.94851030 0 270.00520763 0 3385.88733076 0 -561.93992986 0 1122.72859348 0 16887
0.12350000 0.12352200 12915.58793424 0 158.50207735 0 3905.53209018 0 -203.13970859 0 -87.10582435 0 16407
0.12450000 0.12449800 12856.58276647 0 86.38811300 0 4329.43763754 0 -195.39916224 0 93.67148021 0 16306
0.12550000 0.12549900 12890.96547701 0 -149.93967330 0 3606.04759018 0 241.11596694 0 -526.05436213 0 17523
0.12650000 0.12650100 13190.98235446 0 -130.50235065 0 4709.99878723 0 151.75641136 0 338.92923282 0 17154
0.12750000 0.12750600 13385.41103696 0 -175.64463135 0 3314.39347523 0 582.09374384 0 -425.34740296 0 18007
0.12850000 0.12850300 13645.83234131 0 -67.85816117 0 3664.63129247 0 280.34663966 0 399.48051344 0 17496
0.12950000 0.12949900 13573.85047311 0 174.85937461 0 3682.68776110 0 -448.75426500 0 -497.90379516 0 18405
0.13050000 0.13049000 13144.17750334 0 363.69143913 0 3972.01272469 0 -728.26241018 0 -638.46697056 0 18100
0.13150000 0.13148800 12946.19963781 0 287.73226771 0 4828.31967627 0 -516.06563016 0 -440.97489946 0 19059
0.13250000 0.13249300 12411.71485688 0 293.73482350 0 4713.84743257 0 -173.49959386 0 -1131.05808239 0 18957
0.13350000 0.13349100 12522.73773833 0 20.73299628 0 5022.30471090 0 385.80950408 0 -774.51824705 0 19468
0.13450000 0.13450700 12285.94068349 0 -53.06006438 0 4309.57330381 0 677.38043506 0 -830.01083274 0 19953
0.13550000 0.13551000 12259.32181081 0 207.34881783 0 3930.35418895 0 737.25737090 0 -98.46698103 0 19956
0.13650000 0.13649900 12032.50683322 0 -37.20442196 0 3202.69403077 0 407.05025536 0 441.81561219 0 19723
0.13750000 0.13749600 12006.22069645 0 52.68196547 0 3150.70959067 0 957.49305046 0 840.64174501 0 20946
0.13850000 0.13851100 11697.88542129 0 21.89479916 0 2278.86387216 0 669.28718864 0 1431.95116439 0 20955
0.13950000 0.13949800 11654.62975319 0 181.13699208 0 2054.67750825 0 142.39322290 0 1684.91918439 0 20506
0.14050000 0.14048300 11487.37450321 0 141.93848383 0 1877.65091376 0 393.68314480 0 2331.40287211 0 21447
0.14150000 0.14148400 11168.50259095 0 237.18968322 0 2189.67955750 0 -125.80633786 0 1702.12163086 0 21771
0.14250000 0.14249400 11014.03549105 0 201.92300428 0 2022.87904660 0 -350.36203864 0 2100.15141574 0 22470
0.14350000 0.14350900 10783.59369206 0 45.21503895 0 2336.33845475 0 119.37011627 0 1992.73317329 0 22519
0.14450000 0.14449900 10784.99118288 0 86.71275233 0 2046.02637463 0 135.01424957 0 1638.09215087 0 22218
0.14550000 0.14550500 10646.97232805 0 166.86373073 0 2554.79066984 0 -152.89880465 0 1552.91175831 0 23559
0.14650000 0.14650700 10452.43273358 0 178.70691083 0 2085.78831569 0 -171.79931337 0 930.23754308 0 23044
0.14750000 0.14750500 10275.70560141 0 115.46268759 0 2695.33831757 0 -193.69888174 0 1477.04797119 0 23649
0.14850000 0.14849900 10164.59399038 0 132.82041081 0 2602.90428220 0 -131.42846560 0 594.02898087 0 23640
0.14950000 0.14949500 9894.46788871 0 198.47253291 0 2965.66406079 0 -360.09678220 0 500.13756223 0 24457
0.15050000 0.15050000 9750.88125301 0 109.39901931 0 2722.44520291 0 6.09259413 0 -35.11683687 0 24591
0.15150000 0.15149900 9678.26718659 0 72.45524048 0 3310.41173553 0 -311.89665850 0 -23.89165826 0 25020
0.15250000 0.15250500 9814.38944674 0 -60.69857171 0 2850.08269739 0 104.97851185 0 -287.35849437 0 25297
0.15350000 0.15350100 9892.37165248 0 -115.45825111 0 2670.88222830 0 490.99619770 0 -464.76440780 0 25452
0.15450000 0.15450400 9949.54677275 0 14.50129636 0 2788.37127757 0 -49.95430741 0 -27.06030231 0 26061
0.15550000 0.15549900 9784.64285653 0 247.51780581 0 2514.41871295 0 -27.22278835 0 -240.74108448 0 26128
0.15650000 0.15649500 9669.86005931 0 293.18691837 0 3034.93967693 0 -210.20923752 0 248.61250695 0 26331
0.15750000 0.15749700 9321.91811985 0 75.02862000 0 2943.21547817 0 69.89550314 0 57.86188718 0 27345
0.15850000 0.15849900 9316.53888933 0 12.33518560 0 3168.82151529 0 333.21172080 0 642.60842350 0 26980
0.15950000 0.15949700 9195.76684576 0 109.27967803 0 3111.77948938 0 -60.50991045 0 30.77784971 0 27777
0.16050000 0.16050000 9130.27332778 0 73.92260584 0 2945.75536227 0 -80.53007551 0 580.25038690 0 28224
0.16150000 0.16150500 9099.35107069 0 91.93204779 0 3053.59507019 0 -93.88709308 0 41.88623801 0 28075
0.16250000 0.16249700 9006.28483709 0 76.68165199 0 3009.89575422 0 225.44965125 0 186.84341291 0 28590
0.16350000 0.16349900 8882.48489676 0 69.26197397 0 2881.64824391 0 108.69495012 0 94.70085420 0 29163
0.16450000 0.16449100 8805.41216916 0 170.06132281 0 3177.16209539 0 -271.55908432 0 -180.40386396 0 28996
0.16550000 0.16550500 8567.82763934 0 159.66998039 0 2827.98903307 0 167.88079349 0 330.52099642 0 30777
0.16650000 0.16650700 8485.99678825 0 -17.94067654 0 3100.14482379 0 253.77989561 0 25.55955246 0 29211
0.16750000 0.16749900 8538.35832904 0 -9.43500396 0 2643.89734612 0 32.45106768 0 438.10782505 0 30922
0.16850000 0.16850800 8471.19004033 0 46.85908707 0 2505.54575539 0 534.72213255 0 279.83200812 0 30867
0.16950000 0.16949900 8446.16830001 0 16.07691180 0 2480.76802141 0 124.39886497 0 816.89327411 0 30852
0.17050000 0.17049200 8317.67678337 0 126.29545965 0 2363.33442812 0 287.71341267 0 627.04969243 0 31257
0.17150000 0.17149500 8251.53997596 0 100.46517108 0 2254.56305965 0 108.46525144 0 918.01282581 0 32608
0.17250000 0.17250900 7990.51974698 0 79.20101738 0 2257.06967016 0 -63.19120732 0 1130.44806655 0 32361
0.17350000 0.17350400 8029.67167221 0 153.68960699 0 2130.23074186 0 127.79166212 0 682.27608939 0 32508
0.17450000 0.17449800 7806.26169208 0 76.85778020 0 2504.76937160 0 -231.46995295 0 1188.31084103 0 32791
0.17550000 0.17549800 7734.11345593 0 23.55248946 0 2096.30277040 0 274.25979078 0 812.17507893 0 33633
0.17650000 0.17650100 7922.12033540 0 -70.79300279 0 2005.17749627 0 186.14577662 0 1134.05270556 0 33984
0.17750000 0.17750300 7887.99272239 0 -65.95047529 0 1671.65411284 0 235.53931311 0 684.02406203 0 34069
0.17850000 0.17849800 7973.92731635 0 144.78337584 0 1809.40677894 0 -19.63485687 0 625.01778514 0 34536
