### header ###
fiducial parameters:
Omega_m = 0.31
Omega_nu = 0
Omega_de = 0.69
Omega_k = 0
H_0 = 100
w_de = -1
zeff = 0
beta = 0
fgrowth = 0
b_1 = 2
gamma = 0.55
Lx = 3500 Ly = 3500 Lz = 3500
nx = 700 ny = 700 nz = 700
xoffset = 1379.75464 yoffset = 22.6059522 zoffset = 368.141391
bins = 400 dk = 0.001
kx_ny = 0.628318531 ky_ny = 0.628318531 kz_ny = 0.628318531
############################
A(data) = 3.33822811 (not used)
A(ran) = 3.34182776 (used)
Ngal = 188170
weighted Ngal = 0
Nran = 9399747
weighted Nran = 0
SN(data) = 6623.23152
SN(ran) = 132.922479
SN(data+ran) = 6756.15399
############################
13 columns: k_central k_mean P_0(k) sigma^{lin}_{P_0(k)} P^img_1(k) sigma^{lin}_{P_1(k)} P_2(k) sigma^{lin}_{P_2(k)} P^img_3(k) sigma^{lin}_{P_3(k)} P_4(k) sigma^{lin}_{P_4(k)} N_modes
### header ###
0.00050000 0 0 0 0 0 0 0 0 0 0 0 0
0.00150000 0.00179520 34064.94774692 0 -24067.45372977 0 -24364.91963192 0 35827.67167790 0 9710.16546902 0 3
0.00250000 0.00253879 62036.61371443 0 -16268.34585971 0 -5775.79626677 0 -42902.74621118 0 23637.66984802 0 6
0.00350000 0.00331552 90140.15401366 0 -16138.68976739 0 -51535.91209173 0 4515.28173361 0 24952.64215820 0 7
0.00450000 0.00420575 96929.40840157 0 -3966.86640930 0 -13327.95863677 0 -50938.87296001 0 5544.40062484 0 24
0.00550000 0.00557378 74507.22282711 0 22900.21616293 0 25367.23110013 0 -46385.71478883 0 -4659.30092598 0 45
0.00650000 0.00659388 71508.05226034 0 76.74831008 0 35843.31026560 0 22249.60654995 0 -17606.83150743 0 40
0.00750000 0.00754703 64005.07934880 0 -4246.48657557 0 38301.45224524 0 40575.25853159 0 -8836.94444209 0 57
0.00850000 0.00846663 77646.91885921 0 -12371.56472393 0 12415.59677581 0 6668.64871230 0 -2075.46241133 0 75
0.00950000 0.00948925 77641.92782058 0 -6177.73015298 0 -6395.52798745 0 15009.27318215 0 3500.34848327 0 112
0.01050000 0.01054430 90697.93030818 0 3836.88867227 0 1790.49628814 0 -9904.48323955 0 -7422.40645690 0 105
0.01150000 0.01145670 84981.63831304 0 3067.20396885 0 -14411.67949058 0 -13409.14619843 0 -11003.89813704 0 144
0.01250000 0.01249090 82099.47987407 0 166.43339229 0 12062.00941710 0 -2286.97153713 0 7640.44829771 0 169
0.01350000 0.01339930 77105.11388829 0 -1558.23553285 0 -14.89958124 0 -7475.18946318 0 5063.29777482 0 180
0.01450000 0.01448870 91429.28383495 0 -1098.33461491 0 13352.47018203 0 3704.02722403 0 -24530.17846644 0 267
0.01550000 0.01550050 81966.60733463 0 1806.88907723 0 6580.99498282 0 -13270.28441264 0 -24644.86144289 0 238
0.01650000 0.01653350 82020.39963983 0 9397.56008303 0 49586.85605202 0 -18318.88635150 0 11772.86191266 0 315
0.01750000 0.01747870 76798.99685252 0 4086.62915395 0 46158.56707533 0 -4904.38310494 0 -9096.98864574 0 297
0.01850000 0.01844180 84604.53761680 0 -3468.97148710 0 55093.63533681 0 9560.17921269 0 12825.30559108 0 388
0.01950000 0.01947590 81890.18898766 0 1570.64658223 0 56081.86098490 0 14860.76205502 0 -5180.78682409 0 399
0.02050000 0.02045430 81698.64401636 0 2600.44203648 0 56773.28620265 0 -811.33325708 0 7073.64376886 0 462
0.02150000 0.02154770 80769.20171210 0 4235.77247931 0 60456.00723734 0 1291.45897265 0 14594.90606417 0 571
0.02250000 0.02255340 75362.57593575 0 3450.46027940 0 52423.20784759 0 8367.44298407 0 8272.66870615 0 510
0.02350000 0.02348930 75572.31047004 0 -544.00546440 0 65734.97333682 0 5004.10405671 0 6797.72806238 0 555
0.02450000 0.02439640 70437.19719499 0 858.90229167 0 34820.25825910 0 12047.14721319 0 -13918.56487426 0 592
0.02550000 0.02547300 68813.00231389 0 1638.72434910 0 41384.02861306 0 1802.47478084 0 -5767.45568667 0 837
0.02650000 0.02652900 64444.06892401 0 4167.36197654 0 24200.76991708 0 -910.40315558 0 -21052.64457530 0 723
0.02750000 0.02749970 65742.07170286 0 -941.08806106 0 28809.82772089 0 9713.64810486 0 -12551.57485040 0 826
0.02850000 0.02848090 59755.59815006 0 -228.50527601 0 15126.17439799 0 5400.49234444 0 -29440.47317936 0 831
0.02950000 0.02946900 60200.68788359 0 453.14305164 0 9859.22006480 0 4160.42997844 0 -23658.85403419 0 996
0.03050000 0.03053250 57674.22413076 0 1966.75759004 0 3759.52757355 0 98.32523554 0 -17816.56604172 0 1041
0.03150000 0.03150510 53500.16307126 0 1640.90931490 0 8485.20931327 0 762.76601476 0 -16317.47986219 0 1036
0.03250000 0.03246190 55165.61720501 0 449.08256443 0 1592.10804833 0 4499.04422127 0 -8118.58979814 0 1059
0.03350000 0.03345080 53766.12997408 0 416.48110012 0 9062.29538168 0 -191.13016053 0 -15281.34024329 0 1302
0.03450000 0.03451200 50674.56973673 0 2437.10197902 0 3062.09092706 0 -4701.63602473 0 -7053.25814887 0 1339
0.03550000 0.03553350 50289.03973081 0 1135.66092912 0 13153.71593271 0 -4097.99763082 0 -10067.55710828 0 1365
0.03650000 0.03647120 48467.75427995 0 234.84167682 0 13388.18383620 0 -3785.08169132 0 -11400.97407899 0 1308
0.03750000 0.03744890 49572.77023190 0 855.47511181 0 14602.55899006 0 -887.61185497 0 -12029.95585792 0 1579
0.03850000 0.03847530 48948.00310780 0 469.00568151 0 17307.48010179 0 -946.14564687 0 -16347.86974183 0 1662
0.03950000 0.03950240 48916.28228453 0 860.41513093 0 18741.12821932 0 -1373.36746211 0 -10355.31821310 0 1683
0.04050000 0.04050350 47305.84048765 0 1083.88833088 0 17339.86639688 0 1467.67590976 0 -14738.75888858 0 1822
0.04150000 0.04152450 47387.13896128 0 544.49680442 0 17752.56983533 0 2263.75766192 0 -2726.82622571 0 1887
0.04250000 0.04250150 46393.47862669 0 -871.83129995 0 16008.03546734 0 5138.16335422 0 -9228.53024154 0 1920
0.04350000 0.04349210 48019.55901127 0 527.92101058 0 14267.82666616 0 3137.12287441 0 -4061.79596398 0 2005
0.04450000 0.04448520 44622.87994588 0 1364.69414610 0 14105.56245481 0 -3040.00835393 0 -6200.50038031 0 2151
0.04550000 0.04548030 43207.42139134 0 2151.31510726 0 15168.98641821 0 -3543.26032426 0 -3694.97680732 0 2274
0.04650000 0.04648670 41624.81849880 0 1803.62826533 0 20227.23769841 0 -1489.76957409 0 -3971.62453280 0 2311
0.04750000 0.04749250 40727.42975372 0 156.76741414 0 19407.59824394 0 1662.89206725 0 -7927.02264446 0 2568
0.04850000 0.04851840 40187.17755037 0 521.41491445 0 20761.83339132 0 1680.80435032 0 -5405.47229187 0 2493
0.04950000 0.04949480 39552.53926100 0 343.15276062 0 17339.20092506 0 2943.13783979 0 -3294.93951579 0 2644
0.05050000 0.05050630 38924.55568979 0 401.40483611 0 18526.06991049 0 1475.59502439 0 917.32849895 0 2829
0.05150000 0.05149060 37647.95892105 0 819.62503592 0 15103.32653227 0 1679.49558908 0 2552.76098080 0 2784
0.05250000 0.05249300 37249.67403864 0 280.98992908 0 16859.61756902 0 1676.74497224 0 2605.53289588 0 3055
0.05350000 0.05348950 37271.41278465 0 186.46963957 0 15352.98937558 0 3994.21730098 0 4927.09787629 0 3009
0.05450000 0.05448610 35949.00937252 0 105.62302131 0 12562.00057553 0 1573.80757336 0 6763.34535184 0 3336
0.05550000 0.05550870 36335.09393829 0 230.80226289 0 12433.12086699 0 2382.13400695 0 6930.38986908 0 3349
0.05650000 0.05647670 35359.51225472 0 35.00082295 0 6838.76549109 0 3523.35162574 0 7160.12183147 0 3324
0.05750000 0.05747970 35496.37762506 0 -76.38529521 0 8584.60862032 0 1720.63283856 0 10247.12358687 0 3639
0.05850000 0.05849280 35230.52163421 0 436.99094152 0 6294.57591283 0 740.14330035 0 8419.63815691 0 3846
0.05950000 0.05951020 34474.87838613 0 798.52181548 0 6662.48200680 0 1341.69100363 0 8632.89969183 0 3787
0.06050000 0.06049470 33365.64777934 0 588.10184522 0 7191.16609173 0 -2638.90630750 0 8244.14214760 0 3930
0.06150000 0.06148310 31965.05142872 0 1118.80230976 0 7735.54422034 0 -1882.46449323 0 4967.74711311 0 4083
0.06250000 0.06249100 32117.99903463 0 482.82198555 0 10348.67458613 0 -1144.07914760 0 4416.73644872 0 4303
0.06350000 0.06350600 30521.75396984 0 523.71633782 0 11944.66455339 0 -2063.14009152 0 1128.59583666 0 4470
0.06450000 0.06451750 32081.39808470 0 540.36866092 0 12077.64800480 0 -911.70637122 0 4.45392523 0 4479
0.06550000 0.06550280 29661.96438242 0 749.57525423 0 14564.18344862 0 -339.93187703 0 -2664.43824287 0 4636
0.06650000 0.06648880 30043.61246941 0 381.95864050 0 14368.97838233 0 -1055.19429526 0 868.87549597 0 4653
0.06750000 0.06749660 29498.81287531 0 -5.71195534 0 14502.84912950 0 1423.75476985 0 -887.38226719 0 5220
0.06850000 0.06852730 29550.49785309 0 622.97145931 0 16093.77041975 0 1155.25907413 0 846.20730764 0 5029
0.06950000 0.06949320 28484.30109046 0 334.97743935 0 12569.87532536 0 -655.33335376 0 -1987.68667868 0 5040
0.07050000 0.07048030 28894.56446557 0 843.50438295 0 16464.66004570 0 993.88104941 0 3760.90288198 0 5475
0.07150000 0.07148790 27127.18223187 0 378.69893772 0 13377.75811107 0 1493.81786097 0 808.48836506 0 5509
0.07250000 0.07249820 27228.33394804 0 78.98008073 0 13689.53165728 0 1692.70520465 0 4243.75814112 0 5916
0.07350000 0.07351270 26941.07194708 0 168.35216936 0 12441.32835273 0 1354.74534244 0 753.03903504 0 5721
0.07450000 0.07449140 25939.75868659 0 401.46694682 0 11819.88858772 0 44.75497610 0 3913.57320797 0 6028
0.07550000 0.07549160 25719.82025111 0 337.29993599 0 11563.68193822 0 647.43974889 0 1963.55223412 0 6183
0.07650000 0.07648840 25635.63806627 0 -241.17807764 0 9821.70963673 0 199.30770004 0 18.13532704 0 6330
0.07750000 0.07749960 25591.60601439 0 -225.53394434 0 9227.83149613 0 1523.04316493 0 -458.16070914 0 6583
0.07850000 0.07848650 25529.60622345 0 350.84006923 0 7864.23537853 0 -756.13458811 0 -3006.36875359 0 6549
0.07950000 0.07947320 25405.60664157 0 296.68397277 0 7791.16657304 0 -258.25630270 0 -1475.89448670 0 6828
0.08050000 0.08048110 24629.11194322 0 395.86145588 0 7492.23663289 0 -134.51181835 0 -5779.19017304 0 7147
0.08150000 0.08149960 24044.05130420 0 747.62431269 0 9184.95292873 0 -656.61216877 0 -3844.40850380 0 7386
0.08250000 0.08250610 22985.06381959 0 681.65387324 0 7497.28312750 0 307.26941113 0 -3943.81890205 0 7227
0.08350000 0.08350160 22528.55015320 0 31.97070794 0 7334.57526827 0 1887.98790931 0 -2875.44826481 0 7798
0.08450000 0.08449610 22261.58504266 0 -37.23104083 0 6736.09428094 0 1883.11887385 0 -2016.95634743 0 7371
0.08550000 0.08548940 21626.72492934 0 423.21900227 0 5749.83177472 0 1237.89958259 0 -1646.86528766 0 8256
0.08650000 0.08650700 21247.84964159 0 594.81534673 0 5301.86942117 0 -90.53222783 0 840.02729270 0 8037
0.08750000 0.08749060 20099.13437366 0 382.24922986 0 5424.36060027 0 591.08537720 0 1196.09686129 0 8155
0.08850000 0.08849210 19884.51971271 0 428.53168561 0 5450.48036908 0 476.17614034 0 2312.21510139 0 8718
0.08950000 0.08949900 19295.13350688 0 330.62969015 0 5499.53673319 0 -12.21440246 0 2828.64341369 0 8571
0.09050000 0.09049190 19138.19307007 0 168.22905707 0 5313.42644839 0 1082.98107097 0 3098.95806571 0 8932
0.09150000 0.09150830 18859.58220273 0 165.25550717 0 5870.65927427 0 -615.40837211 0 2185.87527695 0 9285
0.09250000 0.09250820 19007.76059396 0 233.33881964 0 6697.26400043 0 -162.66682180 0 3745.31975026 0 9204
0.09350000 0.09350330 18345.28340024 0 199.37646546 0 6261.40214276 0 -319.99212315 0 2092.39866907 0 9349
0.09450000 0.09448040 18626.00159500 0 83.47478830 0 6612.02815188 0 -254.71931999 0 2817.82949667 0 9564
0.09550000 0.09549270 18266.53590191 0 308.53602583 0 6968.17757708 0 -301.79479632 0 1541.59873742 0 10155
0.09650000 0.09649430 18411.05419814 0 29.95366286 0 7167.54184223 0 334.72345094 0 2064.51539994 0 9913
0.09750000 0.09749140 17899.41728292 0 55.96551433 0 6997.08123633 0 402.02927050 0 1873.46953251 0 10476
0.09850000 0.09850240 18113.81011993 0 399.01468317 0 6402.67071829 0 -460.62517310 0 690.43255563 0 10575
0.09950000 0.09950330 17379.90561786 0 331.37169122 0 7269.90249886 0 -225.49068868 0 1826.90868772 0 10882
0.10050000 0.10051200 17107.17308491 0 200.73624621 0 7604.64591396 0 393.58997874 0 344.51697785 0 10875
0.10150000 0.10150300 17139.11573212 0 -224.23627430 0 6509.51221849 0 662.84985793 0 754.82028127 0 11118
0.10250000 0.10250800 16677.61102710 0 383.84968958 0 6782.40002820 0 26.64305149 0 79.05627726 0 11575
0.10350000 0.10349800 16688.70222405 0 476.03971862 0 6556.82726467 0 -405.17362484 0 246.68818428 0 11364
0.10450000 0.10450100 15870.50462518 0 124.35782754 0 6486.81962953 0 474.88845237 0 683.84882112 0 12093
0.10550000 0.10551000 15848.98770310 0 -62.98003093 0 5822.14637882 0 601.09518245 0 396.11655341 0 12067
0.10650000 0.10649700 15968.55080620 0 -75.25532406 0 5741.26937067 0 817.71624092 0 686.07038787 0 12054
0.10750000 0.10749900 16073.36261736 0 96.24763253 0 5530.41462549 0 236.99780551 0 296.81928537 0 12807
0.10850000 0.10850100 15683.50704463 0 328.38815924 0 4983.03078250 0 -437.03863367 0 559.89360402 0 12736
0.10950000 0.10950300 15500.72411893 0 213.68743688 0 5728.19284947 0 -173.95100558 0 233.06043059 0 12933
0.11050000 0.11050200 15249.84124396 0 11.62157799 0 5371.25594928 0 591.66544680 0 -484.12631031 0 13428
0.11150000 0.11150900 15120.73971148 0 45.60311993 0 5223.62102670 0 140.55984804 0 502.79279477 0 13453
0.11250000 0.11250000 15151.57323900 0 205.79161378 0 5126.25140870 0 -92.62092204 0 268.75412061 0 13668
0.11350000 0.11349100 14803.53147876 0 273.43016924 0 5276.02693228 0 265.53656438 0 784.78314982 0 13791
0.11450000 0.11448600 14883.16627285 0 98.83642880 0 5207.54988233 0 122.11186016 0 1091.61556780 0 14205
0.11550000 0.11549300 14621.19220093 0 53.98107737 0 5754.67862778 0 132.69508029 0 1409.54694656 0 14776
0.11650000 0.11649800 14458.26251776 0 229.55893972 0 5499.53673319 0 348.85585409 0 1295.16343243 0 14553
0.11750000 0.11747300 14060.97584308 0 156.92269090 0 5756.94123196 0 -291.42119981 0 1290.68258886 0 14568
0.11850000 0.11849100 14064.52502610 0 246.78024122 0 5904.19905384 0 -223.48650939 0 1655.03949981 0 16015
0.11950000 0.11950300 13917.89940245 0 184.97787358 0 6262.82181597 0 123.00137416 0 880.42365023 0 15270
0.12050000 0.12050700 13412.80629342 0 298.27666865 0 6382.16309513 0 -402.83227316 0 724.11984812 0 15999
0.12150000 0.12150000 13363.89411488 0 105.62235583 0 6189.59773371 0 147.32547818 0 361.94457561 0 15670
0.12250000 0.12250700 13270.28441264 0 129.18693469 0 6039.53383900 0 306.44977168 0 993.33314428 0 16887
0.12350000 0.12352200 13064.87544516 0 -125.10648334 0 5789.56044218 0 690.99820667 0 402.48179134 0 16407
0.12450000 0.12449800 13259.08230372 0 -47.99205284 0 4722.16583028 0 678.10912670 0 357.84859658 0 16306
0.12550000 0.12549900 13235.34714225 0 10.55357336 0 4711.62919318 0 393.72085487 0 584.68575656 0 17523
0.12650000 0.12650100 13003.65203800 0 152.16234917 0 3937.39709901 0 228.62173357 0 369.00079511 0 17154
0.12750000 0.12750600 12794.47206356 0 272.34655930 0 4410.78047596 0 -334.57593802 0 336.46920534 0 18007
0.12850000 0.12850300 12443.76841606 0 313.59582987 0 4133.24545472 0 -31.29070665 0 353.16922058 0 17496
0.12950000 0.12949900 12371.34289999 0 12.04969819 0 4116.70848007 0 613.61492556 0 -134.29775825 0 18405
0.13050000 0.13049000 12003.78063312 0 -46.37695274 0 3935.34522758 0 319.76142626 0 98.38790080 0 18100
0.13150000 0.13148800 12089.40467356 0 246.71147580 0 3787.32211311 0 68.25688970 0 449.71809002 0 19059
0.13250000 0.13249300 11804.02817608 0 286.30815802 0 3852.21670645 0 -300.48825332 0 285.70812427 0 18957
0.13350000 0.13349100 11508.55868938 0 144.45618553 0 3763.55367805 0 5.31843967 0 456.66228843 0 19468
0.13450000 0.13450700 11180.14834775 0 182.27273065 0 4111.67307666 0 -93.25012564 0 34.84088789 0 19953
0.13550000 0.13551000 11042.73950876 0 211.46587013 0 3931.29694069 0 121.77912425 0 335.86029863 0 19956
0.13650000 0.13649900 10879.80982559 0 65.57126727 0 4144.85793793 0 339.82761978 0 482.24080683 0 19723
0.13750000 0.13749600 10846.99097382 0 -27.92519385 0 3950.32943465 0 187.82831120 0 498.69792486 0 20946
0.13850000 0.13851100 10904.31027965 0 -70.38728681 0 3594.86766366 0 555.88080897 0 966.65548826 0 20955
0.13950000 0.13949800 10841.67829048 0 94.43510912 0 3409.37848590 0 -11.13301076 0 544.39476541 0 20506
0.14050000 0.14048300 10956.13944298 0 92.12936019 0 3375.94961830 0 -63.99343359 0 1221.73970863 0 21447
0.14150000 0.14148400 10737.02175607 0 35.03542748 0 3899.32101989 0 25.98312527 0 654.17765104 0 21771
0.14250000 0.14249400 10913.27196678 0 26.50707341 0 3738.44320816 0 -30.78095524 0 1182.93161051 0 22470
0.14350000 0.14350900 10876.06100102 0 7.04785674 0 3841.49151900 0 40.10643364 0 477.97402336 0 22519
0.14450000 0.14449900 10901.04946774 0 67.40785857 0 3646.43063827 0 87.51054213 0 992.04545632 0 22218
0.14550000 0.14550500 10714.42898789 0 66.04918695 0 3466.02122871 0 154.90852954 0 743.63370003 0 23559
0.14650000 0.14650700 10787.67525254 0 70.49808787 0 3751.87464766 0 83.54444101 0 939.55193028 0 23044
0.14750000 0.14750500 10637.11225397 0 -42.02155061 0 3018.04778397 0 518.27610571 0 564.86911497 0 23649
0.14850000 0.14849900 10573.28241553 0 95.47269059 0 3344.56153093 0 224.38711458 0 954.59270246 0 23640
0.14950000 0.14949500 10536.94765433 0 109.83057778 0 2494.67638238 0 -263.22959541 0 247.57548004 0 24457
0.15050000 0.15050000 10187.10912019 0 338.68855385 0 3219.03136387 0 -202.90679345 0 223.23695746 0 24591
0.15150000 0.15149900 9823.45095465 0 286.45123446 0 3215.49327205 0 -394.43623707 0 203.20181929 0 25020
0.15250000 0.15250500 9529.39004996 0 102.14371282 0 3040.55182258 0 375.34606888 0 -32.32118976 0 25297
0.15350000 0.15350100 9534.32563260 0 -8.79082725 0 2909.15441234 0 526.03107062 0 142.26678325 0 25452
0.15450000 0.15450400 9412.65520208 0 18.25821750 0 2621.07166280 0 310.07881132 0 342.17229881 0 26061
0.15550000 0.15549900 9403.27204946 0 77.83447100 0 2262.22707674 0 146.03335374 0 27.02248133 0 26128
0.15650000 0.15649500 9233.46582418 0 157.38630293 0 2474.73441027 0 -254.22243437 0 557.10971359 0 26331
0.15750000 0.15749700 9021.50195931 0 186.83232171 0 2604.55687055 0 -240.78323103 0 190.86508092 0 27345
0.15850000 0.15849900 8981.27418797 0 147.88447451 0 2581.62027526 0 -174.41129025 0 226.01308405 0 26980
0.15950000 0.15949700 8895.48377958 0 67.03286520 0 3141.21552608 0 -166.61085144 0 347.42287145 0 27777
0.16050000 0.16050000 8767.00335413 0 0.44077415 0 2896.83209253 0 267.84131510 0 409.49031869 0 28224
0.16150000 0.16150500 8887.46484419 0 -44.47825074 0 2974.61465673 0 219.84194207 0 147.44526311 0 28075
0.16250000 0.16249700 9043.58453243 0 -13.57762148 0 3126.19804542 0 -26.71481153 0 474.11761419 0 28590
0.16350000 0.16349900 8905.96496070 0 61.70787064 0 3069.00074275 0 4.88492915 0 766.14661159 0 29163
0.16450000 0.16449100 8894.38575108 0 188.40616256 0 2977.01035527 0 -100.48934989 0 302.44584958 0 28996
0.16550000 0.16550500 8776.00940605 0 10.72248120 0 3080.16957808 0 22.56947667 0 687.01979432 0 30777
0.16650000 0.16650700 8710.63789124 0 56.28593901 0 3177.81647601 0 246.97433716 0 -76.12431934 0 29211
0.16750000 0.16749900 8688.52204453 0 53.48629908 0 2920.51179801 0 343.19934365 0 776.23849170 0 30922
0.16850000 0.16850800 8582.02437143 0 14.93928773 0 2544.40930950 0 237.18857410 0 744.50879547 0 30867
0.16950000 0.16949900 8512.56020494 0 63.96648198 0 2553.69264134 0 362.16085395 0 1001.38091679 0 30852
0.17050000 0.17049200 8458.86772052 0 177.62773737 0 2166.84278299 0 -27.87106881 0 660.51848834 0 31257
0.17150000 0.17149500 8164.91772780 0 156.70530344 0 2263.74657072 0 125.71428093 0 800.75447343 0 32608
0.17250000 0.17250900 8065.50732955 0 2.59165781 0 2107.93743599 0 29.87136618 0 1045.05139565 0 32361
0.17350000 0.17350400 8020.93180902 0 0.21439949 0 1925.75343492 0 213.94697089 0 521.56797297 0 32508
0.17450000 0.17449800 8059.54026559 0 69.07686189 0 2042.96520427 0 -100.63808284 0 666.91034514 0 32791
0.17550000 0.17549800 7888.33654950 0 53.02534893 0 1722.97308112 0 -132.06620942 0 -95.40680888 0 33633
0.17650000 0.17650100 8007.76655824 0 8.67934962 0 1942.68969266 0 -51.83992180 0 244.53981943 0 33984
0.17750000 0.17750300 8099.39093623 0 -102.23100054 0 1698.36171509 0 -17.75112798 0 -306.86236421 0 34069
0.17850000 0.17849800 8097.35015599 0 43.01620916 0 1879.20368133 0 51.49653834 0 -258.85300910 0 34536
