### header ###
fiducial parameters:
Omega_m = 0.31
Omega_nu = 0
Omega_de = 0.69
Omega_k = 0
H_0 = 100
w_de = -1
zeff = 0
beta = 0
fgrowth = 0
b_1 = 2
gamma = 0.55
Lx = 3500 Ly = 3500 Lz = 3500
nx = 700 ny = 700 nz = 700
xoffset = 1379.75464 yoffset = 22.6059522 zoffset = 368.141391
bins = 400 dk = 0.001
kx_ny = 0.628318531 ky_ny = 0.628318531 kz_ny = 0.628318531
############################
A(data) = 3.36417557 (not used)
A(ran) = 3.3694431 (used)
Ngal = 189392
weighted Ngal = 0
Nran = 9399747
weighted Nran = 0
SN(data) = 6636.16158
SN(ran) = 134.020889
SN(data+ran) = 6770.18247
############################
13 columns: k_central k_mean P_0(k) sigma^{lin}_{P_0(k)} P^img_1(k) sigma^{lin}_{P_1(k)} P_2(k) sigma^{lin}_{P_2(k)} P^img_3(k) sigma^{lin}_{P_3(k)} P_4(k) sigma^{lin}_{P_4(k)} N_modes
### header ###
0.00050000 0 0 0 0 0 0 0 0 0 0 0 0
0.00150000 0.00179520 84970.32529215 0 -73943.45728623 0 -92674.27069239 0 112224.05808120 0 165766.81134875 0 3
0.00250000 0.00253879 131347.49985933 0 -58958.14108948 0 -47213.89446495 0 -72329.68813026 0 -47611.29205160 0 6
0.00350000 0.00331552 170205.50836742 0 -35885.67863794 0 -66532.65222133 0 -114481.11666016 0 22979.85095702 0 7
0.00450000 0.00420575 182203.96522601 0 -6968.18866828 0 -70392.61058325 0 -73999.91147869 0 6002.63342676 0 24
0.00550000 0.00557378 166499.93946702 0 26018.50618493 0 -40407.44872176 0 -83888.71176576 0 36680.25198731 0 45
0.00650000 0.00659388 134231.21106586 0 21551.41570206 0 27299.53943245 0 -26011.62964282 0 -71218.23928408 0 40
0.00750000 0.00754703 118541.60386291 0 18891.41393797 0 30974.05298139 0 7742.85331913 0 22678.83587185 0 57
0.00850000 0.00846663 100973.48063283 0 4255.29298594 0 43486.80864247 0 10930.55205162 0 -36742.36269022 0 75
0.00950000 0.00948925 96564.50802197 0 1892.38002331 0 49390.32004210 0 13298.34514092 0 -667.12107788 0 112
0.01050000 0.01054430 106910.59835922 0 5307.88084992 0 41257.92170375 0 2466.21637101 0 -4905.30367429 0 105
0.01150000 0.01145670 96766.36780643 0 3255.35503388 0 57714.70699962 0 -1547.99835806 0 9465.29402279 0 144
0.01250000 0.01249090 98498.14729793 0 7574.56658783 0 63155.60457454 0 -901.59674520 0 -984.16183352 0 169
0.01350000 0.01339930 103877.37781782 0 -2201.93533013 0 81615.79277516 0 16113.84548623 0 15752.16155374 0 180
0.01450000 0.01448870 100564.32637741 0 547.80641759 0 75508.64699956 0 13806.32196115 0 17909.39936017 0 267
0.01550000 0.01550050 102676.86666014 0 -2372.56230398 0 59671.19414128 0 5919.73782077 0 -19177.34499529 0 238
0.01650000 0.01653350 107110.23990428 0 1344.99618032 0 64631.73197638 0 24448.43634494 0 10941.51015421 0 315
0.01750000 0.01747870 104354.96475841 0 5627.47368998 0 66568.47678748 0 -6330.12319905 0 2895.29041615 0 297
0.01850000 0.01844180 99038.84314915 0 3340.67961200 0 70716.02988626 0 10288.59357226 0 34521.01776543 0 388
0.01950000 0.01947590 97563.60304307 0 3868.28785083 0 47429.95098150 0 15483.08911578 0 -3047.66127983 0 399
0.02050000 0.02045430 92353.29145270 0 2289.85524834 0 56785.81925520 0 12079.31168434 0 13124.98973262 0 462
0.02150000 0.02154770 87074.99082504 0 5084.90342647 0 48293.51157589 0 6754.92713336 0 19079.07699033 0 571
0.02250000 0.02255340 83681.30638283 0 -138.44253855 0 36726.28045465 0 19483.35111910 0 30305.25380541 0 510
0.02350000 0.02348930 81448.87026109 0 -2251.80135161 0 28902.21739146 0 13400.16232890 0 23858.38466729 0 555
0.02450000 0.02439640 85978.95874262 0 -1940.90400995 0 25891.29015593 0 12822.75461578 0 15668.20119285 0 592
0.02550000 0.02547300 85009.80995329 0 37.17935585 0 17397.87335692 0 -90.24064026 0 16630.91708795 0 837
0.02650000 0.02652900 79685.81359420 0 6659.56502200 0 17767.21021530 0 -6859.75003572 0 3351.56007621 0 723
0.02750000 0.02749970 73690.68890778 0 6367.23434404 0 22901.65801854 0 -12775.06246890 0 7384.36365137 0 826
0.02850000 0.02848090 67235.05772406 0 3107.95302644 0 27573.93564495 0 7614.33962009 0 -8072.88297552 0 831
0.02950000 0.02946900 65406.89573109 0 1203.25068332 0 22682.16323093 0 3370.57038778 0 1771.00905510 0 996
0.03050000 0.03053250 63488.00774708 0 -1903.53776744 0 14787.00559531 0 11611.26317312 0 -2943.81440280 0 1041
0.03150000 0.03150510 63065.43314335 0 -441.91210561 0 12761.86394453 0 4989.68550067 0 -5543.73515302 0 1036
0.03250000 0.03246190 63905.81313612 0 2262.32689751 0 2006.89663180 0 -2987.59135715 0 -3015.25280234 0 1059
0.03350000 0.03345080 59558.95122817 0 4080.00770937 0 13292.46680654 0 -6306.31039920 0 -11724.06064609 0 1302
0.03450000 0.03451200 51134.74349812 0 4745.46843507 0 10919.82686418 0 -7621.54889811 0 -9779.03071087 0 1339
0.03550000 0.03553350 49467.95842074 0 1037.38959680 0 17418.50298324 0 345.17690406 0 -10294.62718340 0 1365
0.03650000 0.03647120 47196.81402165 0 -804.20827216 0 9493.05528876 0 7729.72134194 0 -8957.92721840 0 1308
0.03750000 0.03744890 49455.64719212 0 -2023.96598390 0 8119.25526996 0 10535.78307865 0 -5335.58665990 0 1579
0.03850000 0.03847530 51540.90313036 0 -1459.72352155 0 3415.58955619 0 4368.40101242 0 -3446.19016857 0 1662
0.03950000 0.03950240 53649.67240613 0 -676.66172549 0 2207.22583107 0 683.11791124 0 3264.16144426 0 1683
0.04050000 0.04050350 51506.74224376 0 981.87039224 0 -243.97638663 0 -3166.09308084 0 1188.44393540 0 1822
0.04150000 0.04152450 52954.47618141 0 624.40222371 0 6666.16428418 0 -6001.80158699 0 4973.22616440 0 1887
0.04250000 0.04250150 50409.04648179 0 1132.35575243 0 8325.14115891 0 -5189.71523763 0 -7682.79448766 0 1920
0.04350000 0.04349210 50272.73567130 0 2748.04368547 0 15804.73382728 0 -6817.62566971 0 -5105.85469751 0 2005
0.04450000 0.04448520 48700.00394404 0 2054.84387620 0 19069.76038490 0 -4727.55615200 0 -8484.95421574 0 2151
0.04550000 0.04548030 47691.59231751 0 -191.52722538 0 22955.22849980 0 1659.02123952 0 -7691.94472514 0 2274
0.04650000 0.04648670 46506.94157147 0 -424.09853419 0 20623.19342946 0 5444.67967308 0 -10276.65944435 0 2311
0.04750000 0.04749250 47152.22740992 0 259.58502809 0 18447.76606004 0 3754.39234937 0 -4402.98336451 0 2568
0.04850000 0.04851840 46466.45870261 0 1610.51943526 0 13152.82863696 0 906.29830359 0 -3150.21048681 0 2493
0.04950000 0.04949480 44892.06329581 0 1505.60780333 0 17035.52395262 0 1624.81598813 0 -2329.83901334 0 2644
0.05050000 0.05050630 40983.52549126 0 1807.08871877 0 14178.20979482 0 214.97734309 0 -333.43576297 0 2829
0.05150000 0.05149060 38736.33807758 0 1546.71177922 0 12203.08944228 0 1346.37148874 0 -2529.82438551 0 2784
0.05250000 0.05249300 36363.82013838 0 668.19581486 0 11306.58799296 0 3712.51198969 0 -516.27636290 0 3055
0.05350000 0.05348950 36406.63215860 0 47.90276871 0 9450.44291008 0 2741.48878807 0 106.76696736 0 3009
0.05450000 0.05448610 34977.75325576 0 -157.42068565 0 5365.25561173 0 1610.24215534 0 901.74647636 0 3336
0.05550000 0.05550870 35288.86133016 0 -103.38204496 0 3654.39411768 0 1906.34384026 0 -293.99879399 0 3349
0.05650000 0.05647670 34857.74650478 0 644.34530495 0 3392.80823766 0 -968.65412195 0 1756.35758393 0 3324
0.05750000 0.05747970 34497.61533987 0 206.50034126 0 3222.25890219 0 155.46641674 0 -870.73327146 0 3639
0.05850000 0.05849280 34921.52088723 0 -332.82907450 0 5180.18789946 0 652.11579753 0 1099.12208989 0 3846
0.05950000 0.05951020 33635.60751306 0 527.16126359 0 4482.31869628 0 -2124.27476910 0 -1071.08687137 0 3787
0.06050000 0.06049470 34955.45994990 0 1178.04039266 0 8844.08717292 0 -2256.41528954 0 -1480.80788695 0 3930
0.06150000 0.06148310 32789.23827394 0 1341.82409799 0 11401.86137474 0 -3799.89953045 0 3.40377743 0 4083
0.06250000 0.06249100 31948.08189739 0 1189.50869030 0 14477.33937651 0 -2447.10623867 0 -980.03701738 0 4303
0.06350000 0.06350600 31328.52763586 0 495.20641606 0 16241.61607507 0 704.66588867 0 1480.05368556 0 4470
0.06450000 0.06451750 31672.57656519 0 -162.25422928 0 16757.68946907 0 3067.23724244 0 496.03381935 0 4479
0.06550000 0.06550280 31369.78688851 0 122.49894293 0 15873.16651245 0 2707.27244549 0 4033.60214134 0 4636
0.06650000 0.06648880 30707.19878282 0 328.26282872 0 13221.70497001 0 1800.67800694 0 3548.90574351 0 4653
0.06750000 0.06749660 30668.37959350 0 202.46869117 0 12559.44960023 0 2304.17398360 0 5030.81165896 0 5220
0.06850000 0.06852730 29485.17070306 0 532.88543033 0 11048.25183364 0 -506.77009800 0 5094.64149739 0 5029
0.06950000 0.06949320 29264.01223592 0 476.34250829 0 9843.12673803 0 -66.91629672 0 2128.25650880 0 5040
0.07050000 0.07048030 28382.92755035 0 681.24571719 0 10183.14956287 0 -401.10759203 0 1057.92383883 0 5475
0.07150000 0.07148790 26873.63746963 0 167.59574973 0 8575.20328531 0 -942.40014966 0 -3010.98269152 0 5509
0.07250000 0.07249820 27446.83052792 0 -184.22921779 0 8336.34326783 0 1074.52514242 0 -2614.28385027 0 5916
0.07350000 0.07351270 26855.55881861 0 79.82755909 0 7715.11423556 0 -143.85615178 0 -6195.49825049 0 5721
0.07450000 0.07449140 27400.46932468 0 181.20908486 0 6746.32036453 0 899.31417687 0 -5087.68731691 0 6028
0.07550000 0.07549160 26440.85896472 0 411.43682375 0 7010.10230155 0 -32.50730005 0 -4355.31340002 0 6183
0.07650000 0.07648840 26565.41310644 0 400.24136955 0 6515.45710005 0 635.55774960 0 -3103.93801314 0 6330
0.07750000 0.07749960 25871.88056127 0 131.63808922 0 6750.35756022 0 1644.69141306 0 -1256.10023678 0 6583
0.07850000 0.07848650 25678.67191043 0 572.74830129 0 6954.54649603 0 151.89726956 0 -1067.49997827 0 6549
0.07950000 0.07947320 24324.21493912 0 772.39095547 0 6866.93713134 0 -322.37340314 0 2506.94324621 0 6828
0.08050000 0.08048110 23829.76937916 0 720.80801671 0 7387.20299779 0 74.82953301 0 1852.41844070 0 7147
0.08150000 0.08149960 23708.20986061 0 -17.81656604 0 8234.57044463 0 974.58014848 0 3349.39729280 0 7386
0.08250000 0.08250610 22655.10071038 0 266.98174734 0 7605.77721605 0 199.46186768 0 2490.43954515 0 7227
0.08350000 0.08350160 22938.70261634 0 433.88540638 0 7610.33569799 0 -208.18065760 0 2702.59196037 0 7798
0.08450000 0.08449610 22275.22721490 0 401.83184719 0 7410.99361524 0 -1014.48849334 0 1975.05380536 0 7371
0.08550000 0.08548940 22020.24059706 0 -10.81113313 0 7574.71077339 0 944.41098366 0 804.37796747 0 8256
0.08650000 0.08650700 22056.95245896 0 -33.33348331 0 7656.74126602 0 248.07236566 0 926.06947127 0 8037
0.08750000 0.08749060 22236.62984952 0 68.01255063 0 7288.63553051 0 -66.90786741 0 -1000.60896948 0 8155
0.08850000 0.08849210 21528.34601241 0 376.53948167 0 7009.41464734 0 -25.42778904 0 -591.55009835 0 8718
0.08950000 0.08949900 21125.84647516 0 427.72757383 0 7263.58051660 0 -925.21433998 0 -1519.01706044 0 8571
0.09050000 0.09049190 20828.04783710 0 321.29422967 0 7247.39846026 0 245.61677466 0 -1238.12140653 0 8932
0.09150000 0.09150830 20083.27396202 0 452.28902947 0 7755.35309809 0 229.61106834 0 -1720.48865300 0 9285
0.09250000 0.09250820 19343.26930164 0 612.51800618 0 7225.11624559 0 -158.65735410 0 -1746.18695633 0 9204
0.09350000 0.09350330 18921.36016973 0 418.99436535 0 7736.98607594 0 611.05618643 0 -1122.83950545 0 9349
0.09450000 0.09448040 18274.29973977 0 417.58134686 0 7115.46867256 0 478.96224901 0 -630.34488704 0 9564
0.09550000 0.09549270 17745.24964534 0 250.34162456 0 7034.66930279 0 886.38295035 0 901.98715534 0 10155
0.09650000 0.09649430 17556.81020919 0 49.00234997 0 7384.39692496 0 394.90761294 0 414.53792242 0 9913
0.09750000 0.09749140 17719.85080433 0 55.96218697 0 6030.13959519 0 641.64127113 0 1315.13867814 0 10476
0.09850000 0.09850240 17104.73302158 0 370.89295331 0 6965.26059229 0 -296.03846510 0 1277.53952048 0 10575
0.09950000 0.09950330 17169.94925963 0 -29.31414445 0 6087.93582249 0 742.64436526 0 2032.01819288 0 10882
0.10050000 0.10051200 17294.17066546 0 -140.65634146 0 6587.93807211 0 567.33912453 0 1927.92730952 0 10875
0.10150000 0.10150300 17259.78795492 0 76.11211903 0 5969.40420070 0 376.23669200 0 2193.57256763 0 11118
0.10250000 0.10250800 16853.07376282 0 586.21855998 0 6411.23312233 0 -891.21316662 0 2115.54599710 0 11575
0.10350000 0.10349800 16370.71760755 0 634.30777171 0 6945.67353848 0 -551.24801600 0 1217.59160098 0 11364
0.10450000 0.10450100 15583.79718407 0 345.07153769 0 7406.72350442 0 -52.18419255 0 1707.78923250 0 12093
0.10550000 0.10551000 15365.85516404 0 -27.28256990 0 7863.41462996 0 589.67124959 0 2141.61030993 0 12067
0.10650000 0.10649700 15598.54847601 0 -196.99851284 0 6908.46257271 0 1052.06546860 0 1486.70840373 0 12054
0.10750000 0.10749900 15491.29660152 0 3.92354419 0 6684.54239753 0 365.28968061 0 1765.77401014 0 12807
0.10850000 0.10850100 15811.94310529 0 9.27252902 0 6010.88527729 0 288.65616442 0 1665.75359606 0 12736
0.10950000 0.10950300 15564.49850138 0 0.85904426 0 5637.13412252 0 294.36591260 0 1584.78785834 0 12933
0.11050000 0.11050200 15663.54289013 0 46.45958216 0 5820.22760175 0 320.58550219 0 1619.60312556 0 13428
0.11150000 0.11150900 15333.57978092 0 233.42644009 0 5607.94209216 0 -279.46045303 0 1384.09264956 0 13453
0.11250000 0.11250000 15340.56723500 0 389.47514467 0 5929.10988219 0 -538.87134933 0 765.09960260 0 13668
0.11350000 0.11349100 14924.09278959 0 216.04764359 0 6392.07862520 0 -134.62051208 0 1376.12917015 0 13791
0.11450000 0.11448600 14902.68677948 0 -85.98117698 0 6397.77950043 0 107.81918921 0 841.26063380 0 14205
0.11550000 0.11549300 14723.12030089 0 45.11499635 0 5855.58633762 0 681.23351688 0 644.44179836 0 14776
0.11650000 0.11649800 15027.24092121 0 47.87648257 0 5852.83572077 0 140.79276318 0 557.19289757 0 14553
0.11750000 0.11747300 14579.60021238 0 36.86769322 0 5179.27842131 0 377.06409529 0 779.40613754 0 14568
0.11850000 0.11849100 14735.43152950 0 1.37234707 0 5328.22210512 0 873.72900375 0 1741.85029832 0 16015
0.11950000 0.11950300 14480.44491166 0 97.55007178 0 4797.41960158 0 108.63583404 0 668.24683437 0 15270
0.12050000 0.12050700 14557.08508257 0 86.67182582 0 4578.25754988 0 302.20295237 0 1632.62419078 0 15999
0.12150000 0.12150000 14434.30553236 0 17.68624448 0 4263.06791500 0 37.72581912 0 258.53136438 0 15670
0.12250000 0.12250700 14070.18153655 0 300.48936244 0 4424.26737145 0 -355.24992913 0 1081.84976889 0 16887
0.12350000 0.12352200 13973.35538719 0 166.77832851 0 4450.76424096 0 -168.26676714 0 -48.05449628 0 16407
0.12450000 0.12449800 13744.87673005 0 250.32055128 0 4931.11288959 0 -136.47052373 0 590.14373458 0 16306
0.12550000 0.12549900 13233.35072680 0 253.55807167 0 4433.57288569 0 354.42807144 0 109.58856786 0 17523
0.12650000 0.12650100 13456.50560940 0 -10.59279183 0 4604.54368665 0 112.71650723 0 1212.64492714 0 17154
0.12750000 0.12750600 13148.50307015 0 -24.38510561 0 4191.15259399 0 978.62067153 0 1135.51674356 0 18007
0.12850000 0.12850300 13190.64961855 0 106.78759699 0 3900.25268043 0 204.86328059 0 914.08986945 0 17496
0.12950000 0.12949900 13146.72847864 0 207.63275247 0 3978.56762208 0 -304.00305363 0 1404.89973504 0 18405
0.13050000 0.13049000 12803.89958097 0 277.24775923 0 4381.07825053 0 -355.84108993 0 1021.43712823 0 18100
0.13150000 0.13148800 12577.08460338 0 148.30593999 0 4456.23220105 0 -325.18169421 0 1364.90487884 0 19059
0.13250000 0.13249300 12178.35607309 0 123.19657922 0 4674.06330912 0 297.42375560 0 441.06917464 0 18957
0.13350000 0.13349100 12591.83589532 0 1.05899192 0 4769.55851484 0 -42.20289168 0 866.03060395 0 19468
0.13450000 0.13450700 12274.51675063 0 51.96347773 0 4457.28586476 0 651.88177327 0 446.53713473 0 19953
0.13550000 0.13551000 12372.78475559 0 -200.86601321 0 4125.64798482 0 326.89750237 0 1126.72142438 0 19956
0.13650000 0.13649900 12384.65233632 0 146.75982714 0 3674.96828802 0 127.85931842 0 588.99912306 0 19723
0.13750000 0.13749600 12097.61215930 0 282.54491490 0 3416.65431110 0 -421.28691576 0 41.30361744 0 20946
0.13850000 0.13851100 11794.37883474 0 257.71172493 0 4059.66645417 0 -226.57984422 0 56.41825699 0 20955
0.13950000 0.13949800 11741.91747317 0 115.00905763 0 3700.18966988 0 325.99024246 0 -42.13756453 0 20506
0.14050000 0.14048300 11459.86833478 0 -51.73322449 0 3988.98225602 0 494.19489890 0 474.85850614 0 21447
0.14150000 0.14148400 11342.52347107 0 98.87735532 0 2883.82211851 0 463.72738088 0 -176.74598721 0 21771
0.14250000 0.14249400 11305.36796129 0 248.51268618 0 3063.47732667 0 136.99957382 0 648.33480849 0 22470
0.14350000 0.14350900 10744.63031718 0 373.91086800 0 3322.11294831 0 -223.16597380 0 362.04550550 0 22519
0.14450000 0.14449900 10617.70265931 0 294.26831007 0 3467.42981073 0 -59.54619635 0 962.41421455 0 22218
0.14550000 0.14550500 10146.55970414 0 2.86278212 0 3560.47386192 0 190.31939403 0 950.82835022 0 23559
0.14650000 0.14650700 10294.99319290 0 39.70914696 0 3374.89595459 0 368.37414248 0 875.15422256 0 23044
0.14750000 0.14750500 10047.28240026 0 41.40687648 0 3268.59792304 0 166.44781084 0 977.75444905 0 23649
0.14850000 0.14849900 10293.25187498 0 23.52420690 0 2808.60162080 0 382.46661732 0 1198.55910701 0 23640
0.14950000 0.14949500 9981.96634143 0 12.15062808 0 2884.14376322 0 89.80874905 0 1431.49642532 0 24457
0.15050000 0.15050000 10157.68417468 0 111.15597582 0 2707.62736379 0 -37.87610484 0 1062.70747207 0 24591
0.15150000 0.15149900 9912.85709325 0 75.89617342 0 2673.48865958 0 215.81472846 0 1373.78892760 0 25020
0.15250000 0.15250500 9828.28671652 0 47.74571736 0 2715.11392173 0 109.53200276 0 1125.07992723 0 25297
0.15350000 0.15350100 9815.01055377 0 95.85056767 0 2447.05078269 0 -8.63972078 0 1450.85056399 0 25452
0.15450000 0.15450400 9663.53807705 0 122.29375579 0 2442.28156800 0 -57.20917024 0 1224.80087899 0 26061
0.15550000 0.15549900 9630.19793902 0 1.79346873 0 2609.27062925 0 486.28909372 0 1520.50328083 0 26128
0.15650000 0.15649500 9486.33402341 0 50.11967715 0 2451.18779915 0 4.80384140 0 1350.13140451 0 26331
0.15750000 0.15749700 9574.50903914 0 279.61240242 0 2639.66050889 0 -270.98345120 0 1657.54611032 0 27345
0.15850000 0.15849900 9040.55663566 0 186.89554154 0 2721.67991032 0 -7.04914331 0 1544.44917504 0 26980
0.15950000 0.15949700 9011.44224367 0 73.57911147 0 3141.10461412 0 72.22787094 0 1846.44028555 0 27777
0.16050000 0.16050000 9041.36629304 0 -68.89851544 0 2695.16085842 0 168.36658791 0 1607.14771139 0 28224
0.16150000 0.16150500 9031.22893903 0 23.82555472 0 2522.88129622 0 224.87401813 0 1363.37429366 0 28075
0.16250000 0.16249700 9033.04789533 0 175.70896029 0 2441.66046097 0 -397.31218444 0 949.11808765 0 28590
0.16350000 0.16349900 8867.10140659 0 117.63545307 0 2636.55497374 0 -135.95034659 0 821.44288310 0 29163
0.16450000 0.16449100 8564.75537778 0 79.39278417 0 2784.50044984 0 149.65795690 0 440.60667173 0 28996
0.16550000 0.16550500 8688.37785897 0 25.40427570 0 2301.82264985 0 49.04638202 0 329.63480978 0 30777
0.16650000 0.16650700 8517.76197631 0 -15.18994878 0 2021.29300543 0 203.14081771 0 -274.78994999 0 29211
0.16750000 0.16749900 8550.42555132 0 60.21932109 0 1987.57576671 0 253.25306376 0 448.68993606 0 30922
0.16850000 0.16850800 8529.51864508 0 -0.88479913 0 1666.29706471 0 59.17020478 0 -96.21347164 0 30867
0.16950000 0.16949900 8605.04969629 0 -104.13214261 0 1616.94123829 0 347.25095789 0 146.26072328 0 30852
0.17050000 0.17049200 8641.88356136 0 66.00903681 0 1406.01994593 0 -101.85733812 0 -96.71545921 0 31257
0.17150000 0.17149500 8477.27910745 0 153.75837241 0 1419.62884458 0 -22.03920654 0 200.06855615 0 32608
0.17250000 0.17250900 8307.91653005 0 192.81713159 0 1658.99905712 0 12.78238266 0 335.46767026 0 32361
0.17350000 0.17350400 8121.02986147 0 153.68627963 0 1658.06739658 0 -2.54570698 0 316.62039928 0 32508
0.17450000 0.17449800 7880.15124615 0 144.88097838 0 2108.62509021 0 -73.08821509 0 553.33316103 0 32791
0.17550000 0.17549800 7916.39727778 0 63.09227384 0 1821.51836600 0 201.82983823 0 760.15292876 0 33633
0.17650000 0.17650100 7769.47219181 0 -36.78872389 0 1677.12207293 0 292.81979975 0 1015.23825825 0 33984
0.17750000 0.17750300 7969.66829672 0 -14.45504607 0 1630.69432251 0 62.18811946 0 909.47038592 0 34069
0.17850000 0.17849800 7826.62512968 0 120.78868036 0 1689.73276386 0 -77.62773109 0 753.94962231 0 34536
