### header ###
fiducial parameters:
Omega_m = 0.31
Omega_nu = 0
Omega_de = 0.69
Omega_k = 0
H_0 = 100
w_de = -1
zeff = 0
beta = 0
fgrowth = 0
b_1 = 2
gamma = 0.55
Lx = 3500 Ly = 3500 Lz = 3500
nx = 700 ny = 700 nz = 700
xoffset = 1379.75464 yoffset = 22.6059522 zoffset = 368.141391
bins = 400 dk = 0.001
kx_ny = 0.628318531 ky_ny = 0.628318531 kz_ny = 0.628318531
############################
A(data) = 3.34363411 (not used)
A(ran) = 3.34427246 (used)
Ngal = 187931
weighted Ngal = 0
Nran = 9399747
weighted Nran = 0
SN(data) = 6636.05318
SN(ran) = 133.019718
SN(data+ran) = 6769.0729
############################
13 columns: k_central k_mean P_0(k) sigma^{lin}_{P_0(k)} P^img_1(k) sigma^{lin}_{P_1(k)} P_2(k) sigma^{lin}_{P_2(k)} P^img_3(k) sigma^{lin}_{P_3(k)} P_4(k) sigma^{lin}_{P_4(k)} N_modes
### header ###
0.00050000 0 0 0 0 0 0 0 0 0 0 0 0
0.00150000 0.00179520 13416.79912433 0 -19019.84999863 0 -27401.91118028 0 24463.63128476 0 10796.78112523 0 3
0.00250000 0.00253879 20862.20872370 0 -10647.59343508 0 2235.80784561 0 -51273.27254800 0 -24968.05892196 0 6
0.00350000 0.00331552 37558.23113774 0 -7877.62245325 0 -40401.01582753 0 25585.83859198 0 40913.54003851 0 7
0.00450000 0.00420575 47451.91155146 0 -13334.94609085 0 -30241.14668705 0 -6745.24451842 0 616.25352132 0 24
0.00550000 0.00557378 60725.74514712 0 -13278.27007444 0 -48158.42079706 0 631.29983910 0 13344.59543219 0 45
0.00650000 0.00659388 86002.91572803 0 -20777.13924311 0 -69062.99789310 0 -7094.51740152 0 -30478.60921372 0 40
0.00750000 0.00754703 93326.76580885 0 -8836.25678788 0 -66268.23808609 0 -26045.56870548 0 -10672.90354652 0 57
0.00850000 0.00846663 92126.69829905 0 -3573.28419440 0 -72341.11206312 0 -20784.68125703 0 -8933.60422349 0 75
0.00950000 0.00948925 93559.12638491 0 3294.82860382 0 -66014.36058794 0 -39418.22486595 0 -22296.41140107 0 112
0.01050000 0.01054430 91118.95214434 0 -3241.30248735 0 -36379.79146199 0 -17600.39861320 0 -24375.12353311 0 105
0.01150000 0.01145670 89004.08271025 0 1416.40130627 0 -47457.01350205 0 -15942.70831731 0 -20178.32551987 0 144
0.01250000 0.01249090 95287.24578142 0 -1101.48562396 0 -44131.20718516 0 -4564.81501918 0 -23932.25203897 0 169
0.01350000 0.01339930 85837.87871744 0 -2791.05534723 0 -34406.55661293 0 -6776.13350193 0 -14017.05470316 0 180
0.01450000 0.01448870 87180.24628408 0 7399.83587111 0 -19261.74900407 0 -16652.65583397 0 8435.12146785 0 267
0.01550000 0.01550050 77041.78315371 0 5596.58470648 0 -15576.25517014 0 -1565.87736754 0 -13416.35547645 0 238
0.01650000 0.01653350 77735.53752282 0 762.80594307 0 949.27891000 0 3584.43084733 0 4292.80341402 0 315
0.01750000 0.01747870 72001.27778862 0 6972.33677594 0 -4382.37592058 0 -20060.20427237 0 -3167.27983891 0 297
0.01850000 0.01844180 66290.08774408 0 7283.73322146 0 27230.88492334 0 -5414.55598217 0 23698.00595942 0 388
0.01950000 0.01947590 59612.52170943 0 3145.21944818 0 19256.20340560 0 646.80976891 0 -4387.71078631 0 399
0.02050000 0.02045430 54401.98829512 0 -917.60466976 0 23650.75746042 0 2780.87362843 0 641.21536917 0 462
0.02150000 0.02154770 59873.94122150 0 -1249.73388973 0 21760.81750044 0 4999.05756209 0 -5724.79894320 0 571
0.02250000 0.02255340 61778.07791357 0 -3895.45019215 0 19993.98982659 0 -5496.09846213 0 -13713.37773072 0 510
0.02350000 0.02348930 66556.72011871 0 -3250.23090089 0 11284.84924694 0 5317.66328563 0 -14879.83891377 0 555
0.02450000 0.02439640 70944.17580749 0 1979.94502321 0 13407.37160692 0 -9631.71743300 0 -27998.72848806 0 592
0.02550000 0.02547300 65547.75393233 0 4235.86120889 0 18215.29457200 0 -6540.46774917 0 -17440.35264123 0 837
0.02650000 0.02652900 60358.95926404 0 2903.91936738 0 26894.59983187 0 68.79625461 0 -24505.33418528 0 723
0.02750000 0.02749970 59883.92329875 0 -1047.79424866 0 19504.53530527 0 7039.62706782 0 -14684.30111157 0 826
0.02850000 0.02848090 57385.07662632 0 2092.73140498 0 21086.02907811 0 6209.02951077 0 -16512.90675242 0 831
0.02950000 0.02946900 58971.00687794 0 100.51707788 0 12318.43789054 0 7028.86860678 0 291.41343598 0 996
0.03050000 0.03053250 57511.51627153 0 -1022.72259795 0 12972.92942246 0 5059.48240307 0 1024.37518630 0 1041
0.03150000 0.03150510 54194.91564810 0 1989.63872934 0 8268.04367702 0 -2800.89323893 0 -12240.35586403 0 1036
0.03250000 0.03246190 55091.74983333 0 3636.99202967 0 7348.40599086 0 -4280.73619174 0 -20.08992868 0 1059
0.03350000 0.03345080 47951.45906201 0 3050.09025196 0 15635.03851397 0 -5305.50733377 0 -12593.49957486 0 1302
0.03450000 0.03451200 45719.79932405 0 1807.11090117 0 14086.92924394 0 -499.30794069 0 -6286.51261265 0 1339
0.03550000 0.03553350 45136.95692443 0 -703.97268886 0 14516.38038977 0 5091.21431754 0 -13779.81400044 0 1365
0.03650000 0.03647120 44959.49777325 0 -659.75985047 0 9380.59055170 0 4417.01372864 0 -6915.17274687 0 1308
0.03750000 0.03744890 46168.88188849 0 -1437.21948294 0 5266.85451241 0 4007.31600457 0 -11286.06927860 0 1579
0.03850000 0.03847530 46463.24225549 0 -854.04989301 0 -430.54030138 0 2017.53308967 0 -6902.59532953 0 1662
0.03950000 0.03950240 47590.77333725 0 -392.44203986 0 231.94243794 0 1099.67664974 0 -6351.70666831 0 1683
0.04050000 0.04050350 48808.25402626 0 -846.33152905 0 -1420.80451146 0 -1578.87625037 0 -10274.66302889 0 1822
0.04150000 0.04152450 47390.46632037 0 2585.77947411 0 3171.38358178 0 -7473.13759174 0 -10146.11605626 0 1887
0.04250000 0.04250150 47150.45281841 0 1933.33981364 0 7018.91980312 0 -4749.96036983 0 -12145.08248224 0 1920
0.04350000 0.04349210 42269.99342528 0 1548.79692424 0 10275.76105739 0 -1729.17306021 0 -9567.47722028 0 2005
0.04450000 0.04448520 44176.12653280 0 18.25056458 0 12783.49177858 0 1387.89693012 0 -7601.14109572 0 2151
0.04550000 0.04548030 42418.17181651 0 -444.47749946 0 11551.37070960 0 4205.92606833 0 -7586.78908687 0 2274
0.04650000 0.04648670 44723.58801417 0 429.75171727 0 10098.32408861 0 -184.06284983 0 -2562.43250454 0 2311
0.04750000 0.04749250 42636.55748442 0 397.65046595 0 11851.72032296 0 486.31127611 0 -4255.60353946 0 2568
0.04850000 0.04851840 42373.69611675 0 2072.06850506 0 15036.66843861 0 -3477.00151369 0 -6249.46801484 0 2493
0.04950000 0.04949480 39165.45648750 0 2429.54887390 0 15518.91368192 0 -4167.26215576 0 -2475.55515884 0 2644
0.05050000 0.05050630 37696.53836368 0 1229.23735777 0 18552.68878317 0 -1545.17010284 0 -5056.82051580 0 2829
0.05150000 0.05149060 37931.89356292 0 334.56262858 0 19016.30081561 0 1269.48731150 0 -6980.82154161 0 2784
0.05250000 0.05249300 35189.04055763 0 936.80685903 0 19618.10916202 0 781.88502006 0 -10866.79985157 0 3055
0.05350000 0.05348950 34846.21165996 0 1051.28464834 0 16139.02250330 0 269.33751757 0 -8435.25456221 0 3009
0.05450000 0.05448610 33550.20529656 0 -266.09445158 0 16451.90516921 0 2436.14813609 0 -5350.69287014 0 3336
0.05550000 0.05550870 34059.84579633 0 -807.53563124 0 12461.62524314 0 4629.82052449 0 -6905.73413827 0 3349
0.05650000 0.05647670 35473.41884738 0 -1219.72111079 0 10184.82433361 0 4442.57893761 0 -4169.48039515 0 3324
0.05750000 0.05747970 34202.58950105 0 143.19733468 0 4803.40884793 0 1762.85702534 0 -5983.27928808 0 3639
0.05850000 0.05849280 35509.46523746 0 501.98535564 0 6426.88280122 0 -893.89945452 0 -3246.17152281 0 3846
0.05950000 0.05951020 33722.67340910 0 -27.98430993 0 5738.74057777 0 -1392.63287121 0 -2378.92865103 0 3787
0.06050000 0.06049470 33446.83534100 0 1042.68897070 0 6569.71523552 0 -866.78147798 0 -4149.70479100 0 3930
0.06150000 0.06148310 33592.90640481 0 1072.37788669 0 10160.47915631 0 -2502.80622975 0 -4821.49859015 0 4083
0.06250000 0.06249100 31870.66534269 0 884.17469304 0 10638.78702470 0 -1270.14169212 0 -5978.90935648 0 4303
0.06350000 0.06350600 31274.95715460 0 690.33606221 0 14877.62067438 0 -152.15347621 0 -2452.21928046 0 4470
0.06450000 0.06451750 30331.98359006 0 176.68609474 0 13070.42104363 0 438.67902170 0 -2342.08369477 0 4479
0.06550000 0.06550280 31966.49328432 0 -579.65368051 0 13551.00260740 0 3678.42874147 0 1161.38141484 0 4636
0.06650000 0.06648880 32009.63804045 0 -464.45939988 0 13115.22947930 0 1444.19584583 0 1014.03708162 0 4653
0.06750000 0.06749660 31933.33060544 0 542.02790398 0 10786.67704481 0 1036.63983189 0 1380.59892252 0 5220
0.06850000 0.06852730 31158.05593876 0 898.16623799 0 12552.35123418 0 -1276.00893530 0 5243.06389495 0 5029
0.06950000 0.06949320 29648.10038623 0 1322.08176743 0 12107.70514853 0 -1093.78500592 0 2350.31336290 0 5040
0.07050000 0.07048030 28766.46114082 0 673.46967901 0 14451.82962353 0 544.61437111 0 3241.55758488 0 5475
0.07150000 0.07148790 28027.67651210 0 197.74051391 0 14154.91828123 0 408.82373775 0 588.87601077 0 5509
0.07250000 0.07249820 27454.03980594 0 401.10093732 0 13372.54524850 0 627.21273302 0 1183.10906966 0 5916
0.07350000 0.07351270 27131.28597474 0 699.57170191 0 12141.20056331 0 86.26921537 0 -541.34135889 0 5721
0.07450000 0.07449140 25888.18462079 0 631.04585069 0 13504.08684431 0 -219.02119350 0 731.36905444 0 6028
0.07550000 0.07549160 25474.37206265 0 872.37365948 0 13275.16453930 0 -196.30531303 0 -848.94128769 0 6183
0.07650000 0.07648840 24519.97456525 0 422.77646351 0 13354.13386157 0 92.10362861 0 -1048.79689286 0 6330
0.07750000 0.07749960 23993.14271021 0 -314.22691898 0 11672.81931619 0 2451.54271745 0 566.15347558 0 6583
0.07850000 0.07848650 24067.12099386 0 5.55142135 0 10687.96539197 0 1760.18404688 0 -1457.43873498 0 6549
0.07950000 0.07947320 24354.49390679 0 -155.85128128 0 9270.95406987 0 1210.73724126 0 2142.96343596 0 6828
0.08050000 0.08048110 24051.59331813 0 -44.20995468 0 7948.37319858 0 1104.75530882 0 -1331.37619047 0 7147
0.08150000 0.08149960 24177.36749152 0 -92.10684506 0 6633.87780987 0 441.22888787 0 10.04487561 0 7386
0.08250000 0.08250610 24360.59406511 0 -13.75175327 0 6393.47611602 0 -393.98038888 0 -2023.18960011 0 7227
0.08350000 0.08350160 23663.84507282 0 271.44595411 0 5669.46496163 0 137.52086008 0 -2789.54694445 0 7798
0.08450000 0.08449610 22943.13909512 0 481.48882368 0 5207.88261823 0 76.41712694 0 -2190.17866137 0 7371
0.08550000 0.08548940 22741.94478248 0 776.25291025 0 5113.90690649 0 -30.55613668 0 -4967.38110361 0 8256
0.08650000 0.08650700 21392.58976176 0 675.42505703 0 5456.90217212 0 -782.39077864 0 -4103.28813177 0 8037
0.08750000 0.08749060 20480.11698883 0 497.74519104 0 5461.05027977 0 455.49327627 0 -4093.21732494 0 8155
0.08850000 0.08849210 20261.06584910 0 -171.39892116 0 4474.49940243 0 1422.54582938 0 -3294.86187741 0 8718
0.08950000 0.08949900 20202.72615316 0 -65.72266211 0 3645.89826082 0 862.89512257 0 -3471.08990572 0 8571
0.09050000 0.09049190 20321.06922459 0 25.36944934 0 2677.29294013 0 281.78516791 0 -3181.46547981 0 8932
0.09150000 0.09150830 19771.61132778 0 269.83994879 0 2821.47850046 0 175.24313002 0 -3106.05643176 0 9285
0.09250000 0.09250820 19731.79393074 0 573.52357595 0 2889.48972015 0 -698.09435448 0 -2252.55555300 0 9204
0.09350000 0.09350330 18969.49596448 0 240.57138917 0 3657.21128171 0 -122.38470361 0 -1855.74579979 0 9349
0.09450000 0.09448040 18579.64039175 0 292.95843971 0 4196.23236219 0 316.71911093 0 -1593.17280323 0 9564
0.09550000 0.09549270 18039.61001235 0 491.68052455 0 3928.45759427 0 -808.14231972 0 -1865.51714430 0 10155
0.09650000 0.09649430 18189.78481902 0 413.94121602 0 5090.94812881 0 -695.80956791 0 -1461.94176094 0 9913
0.09750000 0.09749140 16987.16633393 0 395.12167304 0 5942.19749459 0 -311.54839492 0 -1182.79851615 0 10476
0.09850000 0.09850240 17332.87894280 0 170.63806505 0 6027.76607904 0 268.32600041 0 -1084.86657446 0 10575
0.09950000 0.09950330 16973.85689759 0 -14.45737522 0 6208.44167733 0 341.72421445 0 -1621.81027375 0 10882
0.10050000 0.10051200 17012.34335100 0 136.32966553 0 6601.99061864 0 -51.09914076 0 -618.83222461 0 10875
0.10150000 0.10150300 16531.20722739 0 309.45881341 0 5689.83949042 0 283.56086854 0 -674.85940599 0 11118
0.10250000 0.10250800 16732.51245200 0 54.64876743 0 7057.59480688 0 588.36470659 0 1226.33146417 0 11575
0.10350000 0.10349800 16410.86774050 0 22.17906654 0 5728.74740932 0 487.02222183 0 -141.19648275 0 11364
0.10450000 0.10450100 16726.96685352 0 87.18113358 0 6441.67845795 0 137.73381106 0 974.16644684 0 12093
0.10550000 0.10551000 16378.48144541 0 79.68559177 0 5868.94013874 0 -257.30135064 0 406.88388740 0 12067
0.10650000 0.10649700 16384.35977979 0 105.28984175 0 6317.75651445 0 -34.42030970 0 1487.16314280 0 12054
0.10750000 0.10749900 16418.07701851 0 44.37044430 0 6018.46056480 0 563.11337850 0 -308.61366420 0 12807
0.10850000 0.10850100 16008.47911522 0 130.22396161 0 5368.61624441 0 77.64503336 0 179.37571000 0 12736
0.10950000 0.10950300 15909.98928632 0 334.83769027 0 6065.12123036 0 -103.70868071 0 209.75006197 0 12933
0.11050000 0.11050200 15384.15563900 0 402.33316930 0 5640.17311049 0 236.57301267 0 191.84110625 0 13428
0.11150000 0.11150900 15183.73771015 0 183.03136852 0 5514.25475154 0 212.32765614 0 247.85386908 0 13453
0.11250000 0.11250000 14760.27581066 0 136.07345888 0 5591.74894461 0 309.14604166 0 -278.94027589 0 13668
0.11350000 0.11349100 14301.76572882 0 343.70842959 0 5280.37468149 0 63.44796853 0 966.22182246 0 13791
0.11450000 0.11448600 14262.39197966 0 80.16384418 0 4834.56402015 0 614.45563829 0 370.65338345 0 14205
0.11550000 0.11549300 13895.38427264 0 75.52439650 0 5146.75903185 0 35.85551058 0 446.90425335 0 14776
0.11650000 0.11649800 13852.35042848 0 358.84458606 0 4737.94860354 0 -71.13616443 0 85.76390043 0 14553
0.11750000 0.11747300 13472.58784498 0 5.01909935 0 5097.84685331 0 -301.71383058 0 305.27077744 0 14568
0.11850000 0.11849100 13697.40640712 0 -98.11738651 0 4094.08243830 0 525.12491983 0 -421.28691576 0 16015
0.11950000 0.11950300 13786.35780664 0 -145.16934950 0 4316.36111634 0 826.57367081 0 -79.86294001 0 15270
0.12050000 0.12050700 13739.55295552 0 14.67165715 0 3588.70095816 0 187.42570075 0 115.60465491 0 15999
0.12150000 0.12150000 13688.08980168 0 220.63829001 0 3784.18330437 0 -108.18819334 0 -895.72728378 0 15670
0.12250000 0.12250700 13564.97751555 0 226.44896809 0 3897.72388753 0 -376.36867724 0 -307.35370423 0 16887
0.12350000 0.12352200 12941.65224706 0 234.50561356 0 3943.54162212 0 -427.98156224 0 -482.81089435 0 16407
0.12450000 0.12449800 13234.45984650 0 46.58923825 0 4102.40083601 0 278.09845404 0 262.65063493 0 16306
0.12550000 0.12549900 12930.89378602 0 -70.62774396 0 4016.52169804 0 562.85051713 0 -779.04012804 0 17523
0.12650000 0.12650100 13226.03053682 0 2.88884643 0 4269.40098846 0 287.44833307 0 667.53699777 0 17154
0.12750000 0.12750600 13144.39932728 0 122.41243160 0 3702.54100363 0 275.24357995 0 629.04388964 0 18007
0.12850000 0.12850300 12904.27491335 0 93.37645437 0 3637.06966805 0 240.45049512 0 632.42226823 0 17496
0.12950000 0.12949900 12783.26995464 0 247.68528289 0 4035.16600011 0 -351.48779513 0 856.53653936 0 18405
0.13050000 0.13049000 12693.43125936 0 159.04887336 0 4093.09532177 0 34.20724780 0 1099.78867083 0 18100
0.13150000 0.13148800 12401.62186766 0 73.99159308 0 4276.04461543 0 327.47091726 0 1453.16862416 0 19059
0.13250000 0.13249300 12386.42692784 0 -77.62884021 0 3432.43708435 0 98.17761171 0 734.29158484 0 18957
0.13350000 0.13349100 12561.44601568 0 44.94585560 0 3468.19510332 0 182.99809493 0 437.33587775 0 19468
0.13450000 0.13450700 12441.66108864 0 121.82016168 0 3472.68703808 0 -95.44662628 0 449.21787704 0 19953
0.13550000 0.13551000 12149.85169693 0 261.60473506 0 3417.26432693 0 -361.98228568 0 207.08595646 0 19956
0.13650000 0.13649900 11992.46761224 0 112.47693737 0 3626.01174469 0 70.62308566 0 -4.33957499 0 19723
0.13750000 0.13749600 11679.58494633 0 150.72493005 0 3635.60563005 0 -142.88567204 0 -868.54830566 0 20946
0.13850000 0.13851100 11518.65167861 0 278.67075980 0 4234.75208919 0 -257.39784406 0 -350.56278930 0 20955
0.13950000 0.13949800 11311.80085552 0 296.32683622 0 4596.80203118 0 -369.22816465 0 -576.89640895 0 20506
0.14050000 0.14048300 10982.92468361 0 202.58847610 0 4631.22910650 0 -22.94247362 0 -145.90136849 0 21447
0.14150000 0.14148400 10917.23152409 0 102.69904905 0 4786.52804617 0 147.08590833 0 8.23233002 0 21771
0.14250000 0.14249400 10680.40119565 0 3.07207300 0 4938.59944753 0 341.46357133 0 98.63013254 0 22470
0.14350000 0.14350900 10829.02323476 0 115.42608664 0 4857.88880734 0 306.91005635 0 693.51258102 0 22519
0.14450000 0.14449900 10660.99160099 0 10.43922312 0 4466.77992935 0 382.05069744 0 822.44552730 0 22218
0.14550000 0.14550500 10483.70990897 0 72.05030088 0 4018.72884623 0 497.53445830 0 921.70064879 0 23559
0.14650000 0.14650700 10555.15939971 0 71.62861357 0 4260.93840519 0 399.23983447 0 1157.93205259 0 23044
0.14750000 0.14750500 10117.01275547 0 150.34672023 0 3361.15396157 0 342.46177905 0 1678.97430282 0 23649
0.14850000 0.14849900 10245.59300169 0 5.56520771 0 3164.34067172 0 678.07363487 0 1696.25438767 0 23640
0.14950000 0.14949500 9980.06974675 0 -119.87698398 0 2624.76503139 0 484.08527288 0 1892.04728740 0 24457
0.15050000 0.15050000 10226.78233167 0 27.61874408 0 2018.39820303 0 351.56432439 0 1561.06378807 0 24591
0.15150000 0.15149900 10072.12668142 0 156.16627127 0 2427.44154648 0 -308.65581075 0 1552.45701924 0 25020
0.15250000 0.15250500 9883.48760373 0 184.57304489 0 2013.69553553 0 -246.34324806 0 1769.11246042 0 25297
0.15350000 0.15350100 9658.36957927 0 42.05704244 0 2273.34045608 0 290.02259988 0 1605.38421107 0 25452
0.15450000 0.15450400 9787.78166526 0 -68.56189761 0 2131.89442140 0 241.89678720 0 1584.64367278 0 26061
0.15550000 0.15549900 9861.67121933 0 19.69630210 0 2037.94089205 0 169.87720894 0 1400.21924993 0 26128
0.15650000 0.15649500 9753.29913395 0 159.58457817 0 2246.51085067 0 -474.51800639 0 1390.14844310 0 26331
0.15750000 0.15749700 9574.14302964 0 124.68945433 0 2648.89947595 0 -422.61342292 0 896.29071658 0 27345
0.15850000 0.15849900 9693.63958556 0 74.19689114 0 2741.88807116 0 -308.96636427 0 945.71309018 0 26980
0.15950000 0.15949700 9607.71608281 0 -29.80870092 0 3002.83066176 0 -116.97219949 0 527.24666581 0 27777
0.16050000 0.16050000 9458.65039582 0 171.62518158 0 2991.09617539 0 11.50500951 0 161.17727405 0 28224
0.16150000 0.16150500 9492.91110320 0 228.17586746 0 3265.02655762 0 -177.78855972 0 438.78771543 0 28075
0.16250000 0.16249700 9101.74676923 0 142.81357926 0 3345.45991789 0 163.15705271 0 167.12991945 0 28590
0.16350000 0.16349900 8999.49702456 0 75.32719502 0 3184.09409349 0 205.49880618 0 749.50870705 0 29163
0.16450000 0.16449100 8877.09457504 0 168.91005656 0 3264.20580904 0 -25.71804566 0 399.09232155 0 28996
0.16550000 0.16550500 8842.55658774 0 35.13990656 0 3116.19378577 0 223.56303865 0 579.46845752 0 30777
0.16650000 0.16650700 8597.79605349 0 91.59099349 0 3107.76447609 0 -69.55500339 0 295.01585675 0 29211
0.16750000 0.16749900 8648.37191157 0 133.49253735 0 3016.37301324 0 -2.14925214 0 626.89330655 0 30922
0.16850000 0.16850800 8443.86133105 0 8.08065790 0 3013.92185871 0 306.00279644 0 364.93476231 0 30867
0.16950000 0.16949900 8437.25097766 0 44.88995597 0 2864.90053651 0 267.84686070 0 637.28021249 0 30852
0.17050000 0.17049200 8429.35404544 0 89.64282474 0 2554.23610999 0 127.08071639 0 384.66932904 0 31257
0.17150000 0.17149500 8268.22113617 0 142.86570789 0 2523.09202896 0 67.52010149 0 636.25316765 0 32608
0.17250000 0.17250900 8157.36462268 0 68.18978796 0 2407.87667507 0 143.85171530 0 1004.31453838 0 32361
0.17350000 0.17350400 7974.38205542 0 25.81864282 0 2347.58492845 0 106.37200984 0 760.28824136 0 32508
0.17450000 0.17449800 7923.59546460 0 2.57197093 0 2046.93585278 0 349.80636967 0 956.49706098 0 32791
0.17550000 0.17549800 8071.60748787 0 19.42800605 0 1961.68891304 0 200.85270377 0 693.29963004 0 33633
0.17650000 0.17650100 7880.99417712 0 -6.06914733 0 1447.40120174 0 260.65089212 0 817.39681445 0 33984
0.17750000 0.17750300 7882.12547921 0 23.68891118 0 1502.30262664 0 199.32544595 0 933.30314992 0 34069
