### header ###
fiducial parameters:
Omega_m = 0.31
Omega_nu = 0
Omega_de = 0.69
Omega_k = 0
H_0 = 100
w_de = -1
zeff = 0
beta = 0
fgrowth = 0
b_1 = 2
gamma = 0.55
Lx = 3500 Ly = 3500 Lz = 3500
nx = 700 ny = 700 nz = 700
xoffset = 1379.75464 yoffset = 22.6059522 zoffset = 368.141391
bins = 400 dk = 0.001
kx_ny = 0.628318531 ky_ny = 0.628318531 kz_ny = 0.628318531
############################
A(data) = 3.34684177 (not used)
A(ran) = 3.34519167 (used)
Ngal = 187678
weighted Ngal = 0
Nran = 9399747
weighted Nran = 0
SN(data) = 6658.28681
SN(ran) = 133.056279
SN(data+ran) = 6791.34309
############################
13 columns: k_central k_mean P_0(k) sigma^{lin}_{P_0(k)} P^img_1(k) sigma^{lin}_{P_1(k)} P_2(k) sigma^{lin}_{P_2(k)} P^img_3(k) sigma^{lin}_{P_3(k)} P_4(k) sigma^{lin}_{P_4(k)} N_modes
### header ###
0.00050000 0 0 0 0 0 0 0 0 0 0 0 0
0.00150000 0.00179520 14097.24405710 0 -17529.41495273 0 -12198.32022759 0 -12339.62207671 0 -26782.13509481 0 3
0.00250000 0.00253879 41158.32275516 0 -30286.50968257 0 -30878.66868764 0 2666.02428404 0 51493.10007151 0 6
0.00350000 0.00331552 55371.91346825 0 -26078.17682451 0 -19750.64896555 0 -49812.56190992 0 -70674.88154559 0 7
0.00450000 0.00420575 87705.52537155 0 -19860.34090337 0 -29137.23985480 0 -36295.27654124 0 4358.15274644 0 24
0.00550000 0.00557378 95098.25178542 0 -564.41770326 0 -9010.20002962 0 -35853.62507876 0 16989.05183741 0 45
0.00650000 0.00659388 106922.79867586 0 24659.05817498 0 4260.41711893 0 -17342.41737218 0 6951.18586336 0 40
0.00750000 0.00754703 85332.00922463 0 6228.33928465 0 560.53467521 0 15176.75025607 0 13158.59605937 0 57
0.00850000 0.00846663 72879.58967495 0 2387.99015894 0 30164.50651614 0 30878.44686370 0 17580.87810657 0 75
0.00950000 0.00948925 74775.40796931 0 3866.72399206 0 -4487.15445815 0 17914.94495865 0 21580.36372610 0 112
0.01050000 0.01054430 63565.20247784 0 -895.50767808 0 15027.46274515 0 4905.54768062 0 21117.74990139 0 105
0.01150000 0.01145670 60568.25015046 0 9388.99767899 0 -2153.56662024 0 -5825.83974740 0 10722.64756483 0 144
0.01250000 0.01249090 50588.39113645 0 6921.45036434 0 15719.10978684 0 -9923.98156379 0 15745.83957148 0 169
0.01350000 0.01339930 39615.31543572 0 -1238.06595054 0 10975.43812567 0 -1777.85232362 0 1267.86799674 0 180
0.01450000 0.01448870 52383.72318646 0 -6361.62219838 0 5656.59917317 0 17102.62569416 0 7485.74828267 0 267
0.01550000 0.01550050 55791.82618471 0 -3031.93396255 0 4392.93474007 0 -4578.59028579 0 -18356.15277325 0 238
0.01650000 0.01653350 62234.59157996 0 1607.51372089 0 9317.37072910 0 -4948.37079204 0 14393.93357546 0 315
0.01750000 0.01747870 58758.61045639 0 -1106.85154505 0 6981.33173666 0 488.88110644 0 -5597.26126950 0 297
0.01850000 0.01844180 68774.07221260 0 -4779.26331217 0 16999.58847451 0 5579.42662480 0 14917.43807142 0 388
0.01950000 0.01947590 70367.98812603 0 -4438.61938030 0 17577.77257142 0 4219.73460853 0 -11082.69000016 0 399
0.02050000 0.02045430 76235.45313558 0 2699.47533403 0 19510.63546359 0 -7235.03177566 0 9948.89239213 0 462
0.02150000 0.02154770 74861.58656960 0 1370.47265971 0 24105.71835924 0 -7655.23286324 0 8194.19848774 0 571
0.02250000 0.02255340 77601.99951157 0 2060.42274827 0 40248.73369344 0 -2525.04407963 0 2637.93028217 0 510
0.02350000 0.02348930 77482.10367256 0 -647.05599348 0 36494.91808631 0 -6115.02052543 0 2784.48935864 0 555
0.02450000 0.02439640 78169.42514744 0 -342.79784232 0 34886.58361685 0 13843.81020683 0 -5348.06425646 0 592
0.02550000 0.02547300 77953.14680695 0 1808.27547685 0 42397.20945428 0 17.66328570 0 -252.03414121 0 837
0.02650000 0.02652900 73723.51885074 0 3024.76904933 0 31310.89263271 0 149.05681403 0 -2777.14698626 0 723
0.02750000 0.02749970 69561.99084380 0 4505.18874438 0 42734.49275347 0 4895.83179210 0 8796.72776195 0 826
0.02850000 0.02848090 65421.09246318 0 1637.21594631 0 30639.54248143 0 3940.99064682 0 -4439.65086162 0 831
0.02950000 0.02946900 63558.10411179 0 2641.23545886 0 36686.13032170 0 11839.63091829 0 8173.63540860 0 996
0.03050000 0.03053250 62239.24988268 0 437.71630580 0 26752.07795108 0 1545.45847396 0 9084.63305233 0 1041
0.03150000 0.03150510 53265.91699172 0 3906.98503698 0 26714.03514555 0 1982.71782245 0 -98.81335912 0 1036
0.03250000 0.03246190 52574.38086200 0 5221.52479048 0 26899.25813459 0 -3646.12008476 0 6586.62931087 0 1059
0.03350000 0.03345080 45450.06141427 0 2067.73184706 0 28928.39261626 0 2969.22433501 0 4898.30512902 0 1302
0.03450000 0.03451200 45631.40248438 0 -625.59785474 0 26958.04147841 0 8002.83097560 0 9456.35451805 0 1339
0.03550000 0.03553350 45085.71559452 0 -1707.27903744 0 24156.62695323 0 2913.36906718 0 6731.64671097 0 1365
0.03650000 0.03647120 46658.22549784 0 1572.31026177 0 18702.64176591 0 1380.65437851 0 7084.23586195 0 1308
0.03750000 0.03744890 47485.96152609 0 -177.51127980 0 24242.80555352 0 -2178.23344225 0 5193.09805270 0 1579
0.03850000 0.03847530 48174.28120870 0 1189.47541671 0 25915.80170119 0 -2927.25524576 0 2849.01794248 0 1662
0.03950000 0.03950240 46922.63963309 0 297.15313040 0 30343.29661095 0 -4195.48925200 0 153.63747837 0 1683
0.04050000 0.04050350 48625.47110055 0 -1059.51875295 0 28306.28737944 0 3649.50289983 0 77.44483725 0 1822
0.04150000 0.04152450 47797.73507230 0 -675.23650669 0 26512.28627306 0 4166.43031599 0 -2870.82323568 0 1887
0.04250000 0.04250150 50510.30910993 0 279.96732073 0 24511.32343163 0 2157.60381593 0 -2775.10620602 0 1920
0.04350000 0.04349210 49410.50602055 0 1161.43687083 0 23924.04455322 0 2206.88200397 0 -723.83591347 0 2005
0.04450000 0.04448520 47279.88708679 0 1155.96891073 0 21642.80716491 0 1503.38956394 0 -2249.21710272 0 2151
0.04550000 0.04548030 44332.40149780 0 772.15582210 0 19396.72887093 0 2305.83766314 0 -1552.97830549 0 2274
0.04650000 0.04648670 43908.60686241 0 1217.60269217 0 18127.89594005 0 -482.06778416 0 -5057.36398445 0 2311
0.04750000 0.04749250 41865.94112046 0 1144.13460359 0 14845.67802717 0 1786.08199175 0 -5816.95569865 0 2568
0.04850000 0.04851840 40329.14487131 0 652.13908904 0 16748.15103969 0 -27.50261925 0 -4770.60108735 0 2493
0.04950000 0.04949480 39374.85828589 0 1509.40099268 0 14794.10396136 0 -1153.37357065 0 -8847.10397849 0 2644
0.05050000 0.05050630 37209.19116978 0 1335.18047102 0 16784.75198962 0 -1351.55107772 0 -7734.94529571 0 2829
0.05150000 0.05149060 36315.90616757 0 686.85897197 0 18577.42215236 0 1103.62511585 0 -6619.05997075 0 2784
0.05250000 0.05249300 35563.14663069 0 -145.82151188 0 17015.22706221 0 3233.01736323 0 -4916.99379587 0 3055
0.05350000 0.05348950 35848.30130423 0 -597.28535630 0 17161.51994995 0 2573.67897824 0 -4750.86984798 0 3009
0.05450000 0.05448610 37312.56112533 0 405.83687841 0 14703.93253017 0 -666.69961240 0 -4300.41197513 0 3336
0.05550000 0.05550870 35183.27313521 0 838.09187884 0 14109.00072586 0 -292.25969430 0 -4155.90477009 0 3349
0.05650000 0.05647670 34505.26826577 0 468.17162350 0 15043.21224481 0 -452.33228514 0 -4752.73316907 0 3324
0.05750000 0.05747970 35265.68072854 0 -243.11238239 0 12971.26574292 0 1261.83438560 0 -7409.25229732 0 3639
0.05850000 0.05849280 33756.16882388 0 379.35220922 0 13088.27787072 0 1174.06974415 0 -7687.85207346 0 3846
0.05950000 0.05951020 34017.58833595 0 1638.72434910 0 10126.25172253 0 -1143.23621663 0 -7393.81335117 0 3787
0.06050000 0.06049470 31706.73745179 0 655.35886352 0 12904.27491335 0 -336.64222801 0 -8381.88372250 0 3930
0.06150000 0.06148310 31602.25837654 0 -198.42373164 0 10793.56467812 0 2800.11685514 0 -5531.52374518 0 4083
0.06250000 0.06249100 31159.71961831 0 217.08245227 0 11216.86020965 0 668.02057395 0 -7170.15936471 0 4303
0.06350000 0.06350600 30026.08837823 0 827.46651216 0 9243.28153348 0 -1287.65469210 0 -7672.61276886 0 4470
0.06450000 0.06451750 29874.58262792 0 187.04194533 0 11708.08932248 0 367.42695426 0 -3415.52300901 0 4479
0.06550000 0.06550280 30151.19707980 0 -391.14547894 0 10349.72824984 0 647.51405991 0 -5183.99218001 0 4636
0.06650000 0.06648880 30678.69440666 0 -200.86712233 0 10531.39096465 0 1385.57886995 0 -3822.38138666 0 4653
0.06750000 0.06749660 30635.77147447 0 544.31158143 0 9952.31957199 0 471.83504585 0 -5371.42231724 0 5220
0.06850000 0.06852730 30197.55828305 0 618.75458623 0 10896.15824989 0 -309.25695363 0 -495.57908028 0 5029
0.06950000 0.06949320 29427.49647893 0 521.66668462 0 10317.08685722 0 -112.59450406 0 -3126.75260526 0 5040
0.07050000 0.07048030 28714.55433910 0 332.50964803 0 12561.88966356 0 1047.59904359 0 897.45418314 0 5475
0.07150000 0.07148790 28039.43318086 0 377.52881644 0 11058.76628835 0 1235.40406327 0 -582.59173858 0 5509
0.07250000 0.07249820 27990.52100232 0 501.28550111 0 11828.09607346 0 804.20161744 0 2998.16126785 0 5916
0.07350000 0.07351270 27281.90442930 0 -78.96322211 0 10104.77916524 0 1237.69994104 0 3474.32853523 0 5721
0.07450000 0.07449140 27934.62136970 0 -37.24290841 0 11450.32990541 0 855.53611340 0 3785.21478569 0 6028
0.07550000 0.07549160 26516.50092790 0 633.94841693 0 8838.54157445 0 507.81156139 0 3042.29314050 0 6183
0.07650000 0.07648840 26539.34879362 0 486.01403203 0 11862.58969597 0 -1261.46837610 0 3724.71230633 0 6330
0.07750000 0.07749960 25841.71250557 0 699.67041356 0 11604.71936693 0 -1139.80903678 0 3282.07372733 0 6583
0.07850000 0.07848650 25747.32641954 0 -22.74383029 0 10731.40961042 0 1551.70281784 0 1574.38431560 0 6549
0.07950000 0.07947320 25305.00948525 0 37.71894258 0 11054.90655181 0 -565.24732479 0 2592.62274263 0 6828
0.08050000 0.08048110 25452.63331663 0 201.78658256 0 9629.64337917 0 1464.58146582 0 536.78620430 0 7147
0.08150000 0.08149960 25326.30458339 0 -168.37767911 0 9880.33770379 0 1247.80402146 0 2627.03872676 0 7386
0.08250000 0.08250610 24370.79796630 0 492.91386565 0 8614.74340243 0 809.02185164 0 1212.80020389 0 7227
0.08350000 0.08350160 24750.89328571 0 566.90878609 0 8233.40586895 0 429.99017801 0 2556.92017966 0 7798
0.08450000 0.08449610 23351.96061464 0 710.19152299 0 8917.43325834 0 -436.90553930 0 3079.16027916 0 7371
0.08550000 0.08548940 22278.99822186 0 574.82568247 0 8328.61270356 0 320.47902670 0 2034.46934741 0 8256
0.08650000 0.08650700 21750.16995137 0 261.99736343 0 8319.37373650 0 1373.82220119 0 2956.70237365 0 8037
0.08750000 0.08749060 21702.47780450 0 165.24885245 0 7849.09589470 0 -322.83146957 0 1797.98284608 0 8155
0.08850000 0.08849210 21050.53724788 0 356.53872622 0 7137.20741858 0 174.32810627 0 1793.89019441 0 8718
0.08950000 0.08949900 20534.02020600 0 450.54771155 0 8269.18607031 0 203.46135330 0 1235.03805378 0 8571
0.09050000 0.09049190 20065.74987085 0 321.47834354 0 6740.25347980 0 -442.19714937 0 812.53221547 0 8932
0.09150000 0.09150830 19741.88691996 0 23.01412276 0 7355.51544811 0 1250.47699993 0 866.44208736 0 9285
0.09250000 0.09250820 19343.93477346 0 252.11067047 0 5906.39511084 0 969.44714253 0 435.64557933 0 9204
0.09350000 0.09350330 19283.04410221 0 12.25599445 0 5219.89438453 0 1050.65023187 0 2302.28848012 0 9349
0.09450000 0.09448040 18895.96132872 0 200.25267002 0 5202.85830602 0 1017.29456617 0 1666.38579429 0 9564
0.09550000 0.09549270 18591.50797249 0 436.64822353 0 4508.88211297 0 -203.35709605 0 2621.04948041 0 10155
0.09650000 0.09649430 17794.27273585 0 438.12002537 0 4201.92214623 0 305.09775477 0 1680.89307990 0 9913
0.09750000 0.09749140 17793.71817600 0 -13.38053091 0 3888.30746132 0 208.47124696 0 2934.71962130 0 10476
0.09850000 0.09850240 17243.04024752 0 72.36107622 0 4325.67772178 0 185.72320202 0 1747.71754151 0 10575
0.09950000 0.09950330 17896.42265974 0 -160.68815227 0 3046.07523866 0 260.81836920 0 1548.47527953 0 10882
0.10050000 0.10051200 17397.54062101 0 -66.35951864 0 3856.04316940 0 -100.75265490 0 1025.56416261 0 10875
0.10150000 0.10150300 17606.38785955 0 316.93538927 0 3210.94588130 0 -508.96393676 0 860.30532808 0 11118
0.10250000 0.10250800 17419.05754309 0 261.35629225 0 3654.28320571 0 -421.20373178 0 -144.89539693 0 11575
0.10350000 0.10349800 16939.69601099 0 441.80895747 0 4058.89007038 0 -663.49536560 0 -1207.07714627 0 11364
0.10450000 0.10450100 16609.17834193 0 264.81009098 0 4404.36976412 0 -294.86834383 0 -1046.77940414 0 12093
0.10550000 0.10551000 16275.55513773 0 81.33851285 0 4645.48129458 0 19.42512234 0 -1192.13730398 0 12067
0.10650000 0.10649700 16056.50399800 0 230.27764928 0 4550.65156067 0 -152.12242086 0 -2096.79078306 0 12054
0.10750000 0.10749900 15960.23240849 0 243.23438555 0 5138.74009646 0 -49.24635631 0 -1519.39416113 0 12807
0.10850000 0.10850100 15690.60541068 0 156.18734454 0 5290.67840345 0 -138.37044577 0 -1615.82102740 0 12736
0.10950000 0.10950300 15688.83081917 0 226.72957537 0 5461.17228294 0 289.25176169 0 -770.45665073 0 12933
0.11050000 0.11050200 14975.66685540 0 379.96887977 0 5843.26401781 0 -54.37060021 0 -825.74959487 0 13428
0.11150000 0.11150900 14934.85125063 0 175.18323756 0 5900.88278595 0 27.09779056 0 1319.45315375 0 13453
0.11250000 0.11250000 14766.26505702 0 -49.82398584 0 6234.82763487 0 449.88334885 0 50.32486430 0 13668
0.11350000 0.11349100 15084.91514534 0 -3.38673026 0 6721.55372174 0 69.51108225 0 1296.49437607 0 13791
0.11450000 0.11448600 15011.82415745 0 -18.55191240 0 6545.78043251 0 161.21276588 0 675.44280295 0 14205
0.11550000 0.11549300 15361.64050920 0 -57.21338490 0 6495.37094238 0 -279.49927221 0 970.07601340 0 14776
0.11650000 0.11649800 15230.76438521 0 124.23027878 0 6407.73939529 0 60.54651140 0 509.66933688 0 14553
0.11750000 0.11747300 15050.75425874 0 257.95351302 0 6509.41239771 0 -122.91375370 0 544.81734001 0 14568
0.11850000 0.11849100 14795.98946484 0 282.62809887 0 6401.16231550 0 302.55010683 0 350.84228746 0 16015
0.11950000 0.11950300 14274.81412024 0 199.91217027 0 5901.44843700 0 466.31162977 0 89.99075559 0 15270
0.12050000 0.12050700 14253.96266998 0 61.57566357 0 5312.70552059 0 1023.01096908 0 1408.33800609 0 15999
0.12150000 0.12150000 13925.66324031 0 -127.32805009 0 4722.42092781 0 1032.53387078 0 518.13857487 0 15670
0.12250000 0.12250700 13762.40082123 0 178.20337049 0 3889.66058735 0 564.59627153 0 1498.47616369 0 16887
0.12350000 0.12352200 13452.62369047 0 603.20583723 0 3987.65131239 0 -644.92426543 0 979.02550022 0 16407
0.12450000 0.12449800 12595.27416637 0 363.71362152 0 3992.81981016 0 -384.50517932 0 1161.66978596 0 16306
0.12550000 0.12549900 12421.25328625 0 236.37669848 0 4673.76384680 0 -123.59697143 0 700.72851375 0 17523
0.12650000 0.12650100 12249.00699765 0 -81.08042070 0 3986.55328389 0 318.49037509 0 353.31673350 0 17154
0.12750000 0.12750600 12321.21068978 0 -112.98713243 0 4044.54915273 0 648.56439627 0 728.05833215 0 18007
0.12850000 0.12850300 12540.81638936 0 -130.53340600 0 3216.68003012 0 454.25438957 0 46.77545945 0 17496
0.12950000 0.12949900 12444.32297591 0 52.50994101 0 3387.97247579 0 13.42545026 0 686.33103099 0 18405
0.13050000 0.13049000 12520.18676303 0 225.28106505 0 3282.27336887 0 43.85115446 0 169.82618943 0 18100
0.13150000 0.13148800 12297.80826422 0 71.28157002 0 3654.09465536 0 3.72958134 0 1080.20938086 0 19059
0.13250000 0.13249300 12354.26245669 0 40.89779054 0 3542.04029260 0 65.55518503 0 883.60904199 0 18957
0.13350000 0.13349100 12190.11274185 0 148.76289731 0 3705.83508913 0 -285.64934092 0 673.74474070 0 19468
0.13450000 0.13450700 12204.75312182 0 119.14163762 0 4217.78255786 0 87.71373286 0 1159.92846804 0 19953
0.13550000 0.13551000 12014.65000613 0 115.10666017 0 4110.05376191 0 -276.22404176 0 979.95383340 0 19956
0.13650000 0.13649900 11961.19043684 0 128.19870905 0 4589.89221548 0 87.43667476 0 1099.82527178 0 19723
0.13750000 0.13749600 11629.12000021 0 159.42819229 0 4892.89262491 0 -145.97900687 0 228.96888804 0 20946
0.13850000 0.13851100 11854.38221023 0 133.21303919 0 4726.63558265 0 77.56329123 0 1431.54079011 0 20955
0.13950000 0.13949800 11539.05948099 0 -95.57716967 0 4318.98973002 0 768.81515358 0 810.29179369 0 20506
0.14050000 0.14048300 11729.16259668 0 -164.43808595 0 3883.67134100 0 544.07866630 0 1028.43900086 0 21447
0.14150000 0.14148400 11905.17989225 0 9.25181066 0 3250.02016815 0 161.81723612 0 321.22324601 0 21771
0.14250000 0.14249400 11562.35099458 0 280.96331021 0 3003.88432547 0 -16.42584086 0 535.26560120 0 22470
0.14350000 0.14350900 11243.70090626 0 258.92953835 0 3140.31713913 0 -320.25276628 0 34.02224664 0 22519
0.14450000 0.14449900 10856.36303524 0 236.81480076 0 3211.32298199 0 -309.81373171 0 -333.16735601 0 22218
0.14550000 0.14550500 10673.20300883 0 160.37981699 0 3251.01837587 0 35.28475759 0 -305.78097250 0 23559
0.14650000 0.14650700 10456.10391977 0 207.83017577 0 3096.19635767 0 -112.63775973 0 -977.53373423 0 23044
0.14750000 0.14750500 10368.92711176 0 70.03369945 0 3099.41280479 0 202.76704437 0 -292.84752774 0 23649
0.14850000 0.14849900 10114.45068898 0 26.22879528 0 3522.83033948 0 262.55192328 0 -692.56095632 0 23640
0.14950000 0.14949500 10157.51780673 0 -11.41306348 0 2738.37216173 0 274.13556937 0 -343.31691034 0 24457
0.15050000 0.15050000 10243.44130949 0 44.91480025 0 2907.72364793 0 -48.48716387 0 -626.37756589 0 24591
0.15150000 0.15149900 10137.80874975 0 74.24713426 0 2872.53128001 0 42.60827493 0 -374.84918326 0 25020
0.15250000 0.15250500 10054.58040785 0 110.77665688 0 2746.04727002 0 -6.70152302 0 -320.13298135 0 25297
0.15350000 0.15350100 9917.34902801 0 113.31875922 0 3075.20072185 0 -232.12655181 0 -617.53455456 0 25452
0.15450000 0.15450400 9817.59480266 0 181.47305535 0 2614.53894780 0 131.45952095 0 -761.19882863 0 26061
0.15550000 0.15549900 9550.11949705 0 196.50273633 0 3279.09019535 0 -101.88672979 0 -554.29920428 0 26128
0.15650000 0.15649500 9320.21007552 0 150.96560902 0 2642.31130496 0 263.68433449 0 -366.77479188 0 26331
0.15750000 0.15749700 9189.64450504 0 146.67553404 0 3196.93769955 0 336.10763232 0 -35.60817689 0 27345
0.15850000 0.15849900 8967.54328615 0 124.90684179 0 2705.30930363 0 162.99068475 0 378.48376850 0 26980
0.15950000 0.15949700 8710.67116483 0 71.98497373 0 2623.77791486 0 307.33706744 0 585.56307024 0 27777
0.16050000 0.16050000 8883.88238757 0 -10.29991768 0 2739.58110220 0 106.58961912 0 936.83236879 0 28224
0.16150000 0.16150500 8809.61573281 0 83.54211186 0 2499.95579213 0 -20.78656676 0 508.01009382 0 28075
0.16250000 0.16249700 8701.74275129 0 123.09454021 0 2806.67175254 0 -13.44386164 0 770.70398442 0 28590
0.16350000 0.16349900 8621.16520546 0 74.27475134 0 2561.57848237 0 -256.21552246 0 710.87806808 0 29163
0.16450000 0.16449100 8691.82722122 0 44.48601458 0 3014.13259145 0 -137.27130815 0 322.04177635 0 28996
0.16550000 0.16550500 8475.16068883 0 79.32656973 0 3040.14144830 0 164.27726360 0 361.47985446 0 30777
0.16650000 0.16650700 8511.83927714 0 -19.48457115 0 2818.41733010 0 217.43515233 0 312.85826528 0 29211
0.16750000 0.16749900 8472.67626072 0 20.33881514 0 2617.92176287 0 237.28617663 0 411.11628816 0 30922
0.16850000 0.16850800 8484.32201751 0 183.94528315 0 2859.08874931 0 -206.72992904 0 169.96815675 0 30867
0.16950000 0.16949900 8160.88053211 0 153.69071611 0 2914.45600448 0 -118.33308936 0 818.64901059 0 30852
0.17050000 0.17049200 8064.66439858 0 64.61942075 0 2908.30039017 0 62.52085537 0 184.00961209 0 31257
0.17150000 0.17149500 8211.21238386 0 -78.63070803 0 2821.62268602 0 318.94289592 0 525.23139532 0 32608
0.17250000 0.17250900 8166.45940417 0 16.94557435 0 2614.90495730 0 210.94347476 0 770.00080253 0 32361
0.17350000 0.17350400 8212.38805074 0 38.53913660 0 2438.14455154 0 231.03295979 0 755.54675467 0 32508
0.17450000 0.17449800 8205.55587342 0 48.45954679 0 2483.77373578 0 22.68659971 0 841.14195800 0 32791
0.17550000 0.17549800 7950.53598199 0 164.65880077 0 2607.62913210 0 -303.80119385 0 415.16790241 0 33633
0.17650000 0.17650100 7675.19701775 0 357.13321437 0 2795.93547389 0 -365.30853564 0 835.47213812 0 33984
0.17750000 0.17750300 7590.54900264 0 60.00304275 0 2937.59224131 0 111.71275390 0 441.60820681 0 34069
0.17850000 0.17849800 7451.60957847 0 -51.40425958 0 2894.53621476 0 509.00941066 0 778.07519391 0 34536
