### header ###
fiducial parameters:
Omega_m = 0.31
Omega_nu = 0
Omega_de = 0.69
Omega_k = 0
H_0 = 100
w_de = -1
zeff = 0
beta = 0
fgrowth = 0
b_1 = 2
gamma = 0.55
Lx = 3500 Ly = 3500 Lz = 3500
nx = 700 ny = 700 nz = 700
xoffset = 1379.75464 yoffset = 22.6059522 zoffset = 368.141391
bins = 400 dk = 0.001
kx_ny = 0.628318531 ky_ny = 0.628318531 kz_ny = 0.628318531
############################
A(data) = 3.34066917 (not used)
A(ran) = 3.34116281 (used)
Ngal = 187919
weighted Ngal = 0
Nran = 9399747
weighted Nran = 0
SN(data) = 6615.51009
SN(ran) = 132.89603
SN(data+ran) = 6748.40612
############################
13 columns: k_central k_mean P_0(k) sigma^{lin}_{P_0(k)} P^img_1(k) sigma^{lin}_{P_1(k)} P_2(k) sigma^{lin}_{P_2(k)} P^img_3(k) sigma^{lin}_{P_3(k)} P_4(k) sigma^{lin}_{P_4(k)} N_modes
### header ###
0.00050000 0 0 0 0 0 0 0 0 0 0 0 0
0.00150000 0.00179520 58671.76638428 0 -49534.06195455 0 -94612.45735909 0 101863.99283580 0 31994.33218866 0 3
0.00250000 0.00253879 96087.80837714 0 -41913.63326733 0 -11248.91376883 0 -87260.32472605 0 34454.91423162 0 6
0.00350000 0.00331552 100235.58329987 0 2762.92807177 0 -40000.62361770 0 -54988.82352565 0 -21421.53778580 0 7
0.00450000 0.00420575 101661.80031544 0 23811.13616829 0 22229.64239544 0 -88696.63473084 0 25760.74676785 0 24
0.00550000 0.00557378 65559.62151307 0 14503.73642525 0 64285.35389568 0 -8584.58643792 0 19163.25917517 0 45
0.00650000 0.00659388 57574.29244625 0 7911.15114162 0 64456.15832869 0 60291.08113872 0 -19147.17693959 0 40
0.00750000 0.00754703 53734.63097475 0 -4147.91910829 0 73337.98884482 0 18622.78514788 0 24266.42980302 0 57
0.00850000 0.00846663 59093.78642816 0 5662.56623713 0 51081.72757670 0 44681.66328970 0 35879.80030356 0 75
0.00950000 0.00948925 71808.18004976 0 -7903.93077241 0 55646.53150468 0 35594.20198214 0 44076.63849618 0 112
0.01050000 0.01054430 67281.86257519 0 -1828.92728556 0 36200.77954324 0 14074.83983926 0 23322.56894272 0 105
0.01150000 0.01145670 77861.75534410 0 6518.81773273 0 62882.98295355 0 645.01632236 0 50888.74074980 0 144
0.01250000 0.01249090 71654.56697202 0 2049.38700730 0 52051.76366179 0 -6593.22857305 0 25388.30437433 0 169
0.01350000 0.01339930 83726.78029032 0 -1082.17695920 0 90844.00137199 0 3809.98142847 0 31779.38479180 0 180
0.01450000 0.01448870 78245.39984653 0 -3343.70750877 0 65269.14306499 0 2519.24338362 0 27683.62758276 0 267
0.01550000 0.01550050 96661.66690724 0 1909.14991309 0 85277.44053565 0 10380.55068616 0 -7987.90222450 0 238
0.01650000 0.01653350 87758.87402887 0 3240.96975144 0 72023.90383040 0 2773.42034408 0 15466.78505627 0 315
0.01750000 0.01747870 88033.04841743 0 6328.59261387 0 92354.40057240 0 -1458.68094904 0 4129.48553896 0 297
0.01850000 0.01844180 84639.14215128 0 2926.90032745 0 98759.12316212 0 8770.34180441 0 20125.53142240 0 388
0.01950000 0.01947590 84658.77356987 0 2811.74042954 0 92949.55420064 0 6516.07820708 0 708.66093781 0 399
0.02050000 0.02045430 78412.87692045 0 2701.57157025 0 84217.01119543 0 15468.67055975 0 4079.65279107 0 462
0.02150000 0.02154770 83909.89595193 0 1021.77319150 0 90739.85503265 0 14498.63447466 0 15766.80193372 0 571
0.02250000 0.02255340 80965.51589809 0 -3203.68114730 0 66087.45157583 0 11369.14234375 0 -2255.32835224 0 510
0.02350000 0.02348930 82175.01092529 0 2742.84191410 0 73468.86496881 0 17227.62348377 0 14890.59737481 0 555
0.02450000 0.02439640 73013.57133409 0 2606.84165712 0 46350.66660647 0 6769.77824607 0 -2041.88935817 0 592
0.02550000 0.02547300 73152.98767973 0 2258.73334970 0 51225.02584127 0 12930.45013815 0 15103.65926818 0 837
0.02650000 0.02652900 70805.53584564 0 562.53996362 0 38077.63189082 0 9759.47693065 0 550.52819732 0 723
0.02750000 0.02749970 66270.45632548 0 2431.09055028 0 31302.01967515 0 3183.57280723 0 9624.50815499 0 826
0.02850000 0.02848090 64003.74840517 0 4917.91436522 0 28357.30688540 0 1856.84382828 0 -1162.73454087 0 831
0.02950000 0.02946900 56028.17959167 0 2751.93669560 0 21042.99523395 0 -752.18612199 0 -679.75395120 0 996
0.03050000 0.03053250 52808.62694154 0 1646.44382218 0 27199.05318810 0 3222.18126381 0 -4279.85998718 0 1041
0.03150000 0.03150510 50906.26484098 0 1792.90307788 0 18055.13768807 0 -2010.62327397 0 -14126.96846492 0 1036
0.03250000 0.03246190 50858.12904623 0 277.94428640 0 23576.55735284 0 3787.61048423 0 -6113.21266033 0 1059
0.03350000 0.03345080 50086.84721045 0 -459.97079248 0 18339.62688979 0 -3657.68820318 0 -19110.57598967 0 1302
0.03450000 0.03451200 49086.31033375 0 1421.99126953 0 20564.96464549 0 -2281.72540098 0 -14268.82487389 0 1339
0.03550000 0.03553350 47815.14825151 0 2807.28176837 0 22740.83566279 0 -1878.33856797 0 -22269.68161643 0 1365
0.03650000 0.03647120 44980.79287139 0 1068.85199518 0 25149.39999206 0 -1602.24540234 0 -13442.30887731 0 1308
0.03750000 0.03744890 45484.99868466 0 940.74977955 0 25381.20600828 0 3098.69187699 0 -16768.00428223 0 1579
0.03850000 0.03847530 43750.55730590 0 -1109.64098108 0 22587.55532096 0 7225.19388397 0 -9504.77868393 0 1662
0.03950000 0.03950240 45744.64360522 0 -1657.53501912 0 16358.73911484 0 8190.37202479 0 -7107.70483469 0 1683
0.04050000 0.04050350 46061.07545415 0 -1097.93311358 0 14709.81086455 0 2822.26597544 0 -8825.72015078 0 1822
0.04150000 0.04152450 47083.57290081 0 2811.37442004 0 13505.86143582 0 -994.31804257 0 -1809.88370040 0 1887
0.04250000 0.04250150 40253.72473206 0 2570.11870402 0 11595.73549740 0 -2514.69599287 0 -5177.49273860 0 1920
0.04350000 0.04349210 41746.26710538 0 337.22118849 0 18458.52452108 0 437.39577021 0 4520.21731625 0 2005
0.04450000 0.04448520 40794.42058329 0 -1943.87645074 0 11575.88225486 0 3756.15584968 0 -8639.87605471 0 2151
0.04550000 0.04548030 43299.92197389 0 61.35439419 0 12830.85118955 0 2354.42819697 0 -793.35109947 0 2274
0.04650000 0.04648670 42040.62747239 0 471.02317024 0 10984.97655505 0 -2785.36556320 0 -1949.53296118 0 2311
0.04750000 0.04749250 42759.55885857 0 225.23448203 0 11701.21278037 0 1949.74369392 0 340.82250014 0 2568
0.04850000 0.04851840 43475.60653355 0 -674.22942600 0 13872.20367102 0 2810.40948591 0 2757.51556766 0 2493
0.04950000 0.04949480 42935.13250626 0 178.81560456 0 8787.59970686 0 1627.12295709 0 637.46876284 0 2644
0.05050000 0.05050630 42759.55885857 0 1330.67744506 0 14882.27897709 0 362.51577225 0 10036.53503042 0 2829
0.05150000 0.05149060 40706.35647952 0 1436.03272487 0 11374.57703025 0 92.20566762 0 7427.10912441 0 2784
0.05250000 0.05249300 39260.72986929 0 1888.37610121 0 17224.18521271 0 -185.64223628 0 11842.95827737 0 3055
0.05350000 0.05348950 36388.77533152 0 1742.40485817 0 16400.10927946 0 -1306.28790297 0 7813.03841342 0 3009
0.05450000 0.05448610 35561.03930327 0 612.48473259 0 15988.40404874 0 1172.30624384 0 11593.62816998 0 3336
0.05550000 0.05550870 35106.63296430 0 118.21108619 0 17751.01706775 0 1643.49356379 0 8634.77410411 0 3349
0.05650000 0.05647670 34542.75651145 0 497.12408401 0 15043.87771663 0 292.51257359 0 6478.83396773 0 3324
0.05750000 0.05747970 33658.78811468 0 544.66317237 0 16338.99678427 0 38.13852256 0 5067.80080078 0 3639
0.05850000 0.05849280 32795.56025620 0 533.57641190 0 14313.74422153 0 -1086.61565621 0 3904.89989195 0 3846
0.05950000 0.05951020 32925.21634852 0 356.85815269 0 15139.48383432 0 533.27362223 0 2536.64547163 0 3787
0.06050000 0.06049470 32741.87886297 0 198.99936476 0 15749.83240238 0 -61.37413652 0 -45.61276927 0 3930
0.06150000 0.06148310 31409.93702146 0 760.03647119 0 15005.83491110 0 -309.81373171 0 -922.25520864 0 4083
0.06250000 0.06249100 32290.68897112 0 199.61159884 0 16343.76599896 0 -9.73789346 0 675.46942182 0 4303
0.06350000 0.06350600 30495.68965702 0 263.31721587 0 14506.62013646 0 1155.81363397 0 -372.73409200 0 4470
0.06450000 0.06451750 31925.12311970 0 123.27754496 0 17007.46322434 0 1489.28156142 0 764.39309335 0 4479
0.06550000 0.06550280 30451.21395725 0 97.98007749 0 13649.93608418 0 1300.96412844 0 1377.32701942 0 4636
0.06650000 0.06648880 31670.91288565 0 200.97692518 0 15158.44978111 0 1614.06861828 0 3171.87159445 0 4653
0.06750000 0.06749660 30146.64968906 0 301.12377890 0 12321.87616160 0 739.25267723 0 2776.32623769 0 5220
0.06850000 0.06852730 30222.06982830 0 939.21143053 0 13791.90340511 0 1515.61206297 0 4979.58142025 0 5029
0.06950000 0.06949320 28729.19471907 0 662.31637136 0 12326.64537629 0 -371.75917579 0 3270.29487617 0 5040
0.07050000 0.07048030 27555.30243407 0 916.59537084 0 12289.82260242 0 349.31502964 0 4134.96459025 0 5475
0.07150000 0.07148790 26163.13539313 0 928.18012605 0 13699.40282257 0 12.74145614 0 2809.17836305 0 5509
0.07250000 0.07249820 25651.72030185 0 307.33263096 0 13032.04550219 0 423.35320575 0 4583.51477723 0 5916
0.07350000 0.07351270 25151.06367161 0 201.90304013 0 11800.58990503 0 2120.52594453 0 3534.50936987 0 5721
0.07450000 0.07449140 25025.73314609 0 30.25223788 0 11475.17418657 0 305.93957662 0 2388.63344836 0 6028
0.07550000 0.07549160 24298.37245023 0 304.05185490 0 10454.02986594 0 88.25953066 0 3020.07747302 0 6183
0.07650000 0.07648840 24515.98173435 0 258.79311663 0 10746.38272630 0 420.49167694 0 2367.37162381 0 6330
0.07750000 0.07749960 23876.24149438 0 257.52872018 0 11427.59295166 0 -804.41235018 0 586.55684149 0 6583
0.07850000 0.07848650 23810.91434435 0 277.57827690 0 10787.54215817 0 -192.52654223 0 -396.33948647 0 6549
0.07950000 0.07947320 23653.41934769 0 356.82155174 0 12408.83114567 0 -154.95733080 0 324.02820972 0 6828
0.08050000 0.08048110 23016.89555483 0 298.28997808 0 10791.12461479 0 415.16124769 0 72.80516774 0 7147
0.08150000 0.08149960 22848.08753728 0 121.29554807 0 11304.70248948 0 1758.46491135 0 378.36398357 0 7386
0.08250000 0.08250610 22688.48521319 0 -7.28938973 0 8557.54609976 0 1666.56325344 0 769.75901444 0 7227
0.08350000 0.08350160 22509.91694233 0 -68.38144384 0 8415.07967496 0 1437.28603013 0 2197.84267846 0 7798
0.08450000 0.08449610 22456.12463713 0 -144.79668528 0 7482.48747077 0 1979.73429047 0 4422.74787747 0 7371
0.08550000 0.08548940 22409.87434585 0 -20.80198352 0 5729.72343465 0 628.61133296 0 1613.02604577 0 8256
0.08650000 0.08650700 22550.06707528 0 -159.64114327 0 5010.15985024 0 617.26282024 0 3537.18234833 0 8037
0.08750000 0.08749060 22297.74234471 0 327.13152663 0 3940.85755246 0 775.68504097 0 1461.29847152 0 8155
0.08850000 0.08849210 21754.27369424 0 373.31748896 0 4482.80670894 0 -637.21921091 0 2292.57259159 0 8718
0.08950000 0.08949900 21220.34347316 0 834.93976066 0 5001.66399338 0 -1227.46276626 0 1019.87105122 0 8571
0.09050000 0.09049190 20074.40100447 0 639.90882617 0 5262.75076954 0 -307.22171899 0 1075.60653412 0 8932
0.09150000 0.09150830 19546.90367761 0 332.39651782 0 5902.31355036 0 131.44066591 0 704.97644218 0 9285
0.09250000 0.09250820 19346.26392482 0 156.65206570 0 5271.84555104 0 60.43205025 0 -577.94896354 0 9204
0.09350000 0.09350330 18804.34804193 0 468.51988709 0 6435.28992851 0 -489.59981601 0 54.36926926 0 9349
0.09450000 0.09448040 18284.17090505 0 499.10053531 0 6146.85226067 0 -169.66758532 0 -380.26834209 0 9564
0.09550000 0.09549270 18183.46283676 0 97.81814601 0 6224.96756078 0 55.78894247 0 -535.23898233 0 10155
0.09650000 0.09649430 17628.12660557 0 -11.12480327 0 6181.13515044 0 506.12237210 0 -606.31913621 0 9913
0.09750000 0.09749140 17902.52281807 0 -4.81136124 0 6127.13211250 0 900.25914685 0 149.13334329 0 10476
0.09850000 0.09850240 17819.44975292 0 -23.28397158 0 5551.58772046 0 567.39236228 0 -308.91867212 0 10575
0.09950000 0.09950330 17871.02381873 0 -163.83694308 0 4821.05494227 0 739.50222916 0 1094.43162270 0 10882
0.10050000 0.10051200 18276.29615522 0 12.22183357 0 5024.96659816 0 -94.14108149 0 816.48733630 0 10875
0.10150000 0.10150300 17805.47484477 0 194.64606996 0 4627.11427244 0 182.65537694 0 1267.21361612 0 11118
0.10250000 0.10250800 17876.79124115 0 325.95585975 0 5593.47917134 0 -178.41853971 0 1952.10611887 0 11575
0.10350000 0.10349800 17352.06671352 0 427.93054273 0 5651.21994265 0 -616.96779440 0 1527.16909019 0 11364
0.10450000 0.10450100 16966.53670760 0 382.04847920 0 5833.71449724 0 204.08135121 0 2368.00382204 0 12093
0.10550000 0.10551000 16864.38678371 0 195.03758921 0 7350.77950701 0 92.26877653 0 2959.38644332 0 12067
0.10650000 0.10649700 16352.63895652 0 145.62408857 0 6198.98088633 0 633.42380331 0 2899.93762767 0 12054
0.10750000 0.10749900 16436.71022939 0 72.82058451 0 6782.17820426 0 725.67372481 0 3769.87566031 0 12807
0.10850000 0.10850100 16048.18560029 0 273.55217241 0 6198.82560957 0 -187.29371551 0 3130.59015941 0 12736
0.10950000 0.10950300 15704.69123081 0 273.47342491 0 6112.30318218 0 -60.37393238 0 2659.84648733 0 12933
0.11050000 0.11050200 15548.52717777 0 298.73140772 0 6779.46086101 0 -127.08515287 0 2122.88836948 0 13428
0.11150000 0.11150900 15094.89722259 0 -34.72354302 0 6009.93143435 0 -78.63924825 0 2597.75796682 0 13453
0.11250000 0.11250000 15234.75721611 0 28.11740430 0 5678.54865193 0 701.15774307 0 524.52821343 0 13668
0.11350000 0.11349100 15354.98579103 0 -137.51420536 0 4750.14892018 0 810.33726759 0 2294.92392534 0 13791
0.11450000 0.11448600 14935.40581048 0 22.45313001 0 4445.42937523 0 786.68639922 0 1448.55468623 0 14205
0.11550000 0.11549300 15306.51726036 0 63.56553521 0 4423.52426125 0 -72.88679895 0 2178.15580387 0 14776
0.11650000 0.11649800 14943.16964834 0 167.51145663 0 4218.30384412 0 330.94246190 0 935.90403560 0 14553
0.11750000 0.11747300 14603.00263794 0 316.29764545 0 3972.95547643 0 -871.31001370 0 1201.57591258 0 14568
0.11850000 0.11849100 14488.54148543 0 304.57868675 0 4834.37546981 0 -506.75235209 0 910.16580397 0 16015
0.11950000 0.11950300 14251.07895877 0 197.61629251 0 5161.29959105 0 -205.73504867 0 -178.55163407 0 15270
0.12050000 0.12050700 13935.20166969 0 356.09064186 0 5785.37906093 0 -794.85062929 0 -189.53191905 0 15999
0.12150000 0.12150000 13364.89232261 0 370.96393697 0 5631.78816560 0 -4.87441469 0 -452.39328672 0 15670
0.12250000 0.12250700 13230.79975150 0 74.90462041 0 6422.94542631 0 274.79882295 0 -18.90039781 0 16887
0.12350000 0.12352200 13177.56200615 0 -137.64175413 0 5125.95194638 0 833.81067681 0 -364.40793045 0 16407
0.12450000 0.12449800 13486.89548904 0 -295.08905865 0 5091.29195592 0 1345.08490990 0 684.36678001 0 16306
0.12550000 0.12549900 13460.27661636 0 -158.63073523 0 3869.47460890 0 621.93886887 0 392.13481370 0 17523
0.12650000 0.12650100 13598.69475428 0 257.02517984 0 3605.54848632 0 320.35480529 0 950.19726111 0 17154
0.12750000 0.12750600 13283.81567292 0 330.23040706 0 3666.99371742 0 -298.39534446 0 1001.24560418 0 18007
0.12850000 0.12850300 12690.32572422 0 413.15595928 0 4055.90653840 0 -563.62357356 0 886.86652654 0 17496
0.12950000 0.12949900 12534.38349513 0 112.05436277 0 3980.49749035 0 15.86174258 0 867.29389128 0 18405
0.13050000 0.13049000 12240.91042388 0 119.53648423 0 4398.60234171 0 163.59626411 0 705.32692401 0 18100
0.13150000 0.13148800 12415.70768778 0 6.07240815 0 3880.05561079 0 616.51305532 0 1039.03774867 0 19059
0.13250000 0.13249300 12064.56039240 0 90.43817448 0 4025.46120278 0 109.91220899 0 464.84315530 0 18957
0.13350000 0.13349100 12122.12370456 0 238.15128999 0 3912.45299708 0 112.20963953 0 1185.00566434 0 19468
0.13450000 0.13450700 11607.38125419 0 207.41869237 0 3685.38292196 0 132.17490315 0 1133.32068656 0 19953
0.13550000 0.13551000 11704.76196340 0 -90.28711237 0 3673.83698593 0 305.54473001 0 1582.02615030 0 19956
0.13650000 0.13649900 11649.74962654 0 25.59570976 0 3462.19476577 0 332.25122314 0 1360.33530570 0 19723
0.13750000 0.13749600 11407.29606125 0 175.95740310 0 2894.54730596 0 99.74879067 0 864.35250585 0 20946
0.13850000 0.13851100 11467.85399658 0 15.42685675 0 3043.69063132 0 272.44748920 0 1964.86099536 0 20955
0.13950000 0.13949800 11229.17143826 0 177.95603679 0 2588.13080787 0 57.98322488 0 1123.15005896 0 20506
0.14050000 0.14048300 11110.05198303 0 126.66923299 0 2551.57422273 0 94.61600654 0 1650.95793933 0 21447
0.14150000 0.14148400 10832.00676674 0 56.95873102 0 2758.21431307 0 49.41261335 0 1418.64172806 0 21771
0.14250000 0.14249400 10965.33404525 0 134.26448466 0 2527.88342604 0 71.25617118 0 1197.21707218 0 22470
0.14350000 0.14350900 10681.29958261 0 143.61214544 0 2822.56543776 0 120.20750164 0 1427.63668878 0 22519
0.14450000 0.14449900 10555.14830852 0 115.68007505 0 2564.97238864 0 -122.14069727 0 1489.80284768 0 22218
0.14550000 0.14550500 10582.08882591 0 43.23736762 0 3068.14672059 0 251.23002943 0 1841.30506136 0 23559
0.14650000 0.14650700 10309.45611372 0 -33.79454437 0 2579.31330629 0 173.94878734 0 1322.89142480 0 23044
0.14750000 0.14750500 10479.41761576 0 25.59304787 0 2960.91702849 0 153.87704822 0 2097.09024538 0 23649
0.14850000 0.14849900 10642.01456302 0 -3.74191475 0 2595.85028094 0 24.87777658 0 1394.08581801 0 23640
0.14950000 0.14949500 10489.67697293 0 127.26593938 0 2964.57712349 0 -200.18390460 0 1805.72450155 0 24457
0.15050000 0.15050000 10315.02389459 0 210.07170668 0 2932.61229388 0 -316.15345989 0 1234.79404744 0 24591
0.15150000 0.15149900 10155.17756417 0 136.92193545 0 3376.06053027 0 -197.60520131 0 1665.80905205 0 25020
0.15250000 0.15250500 10097.71407278 0 56.93366491 0 3275.94029541 0 -151.66102707 0 1050.28311325 0 25297
0.15350000 0.15350100 9886.99242196 0 192.38124755 0 3472.89777082 0 -82.46205110 0 348.27800273 0 25452
0.15450000 0.15450400 9810.60734858 0 299.74957960 0 3721.18530570 0 -306.53517390 0 473.63403800 0 26061
0.15550000 0.15549900 9339.84149411 0 189.15260011 0 4039.86866762 0 -191.48840619 0 -40.27413253 0 26128
0.15650000 0.15649500 9298.08313760 0 -5.26128673 0 3935.45613955 0 291.96245023 0 287.44944219 0 26331
0.15750000 0.15749700 9230.14955630 0 65.39380812 0 3497.74205199 0 193.90074153 0 -109.73563713 0 27345
0.15850000 0.15849900 9181.48138409 0 -11.28618019 0 3455.16294690 0 284.90290337 0 133.89292956 0 26980
0.15950000 0.15949700 9100.83729108 0 53.39623856 0 3268.44264628 0 83.31984427 0 -91.42784198 0 27777
0.16050000 0.16050000 9073.86350010 0 176.99221178 0 3362.71782034 0 -181.46307327 0 -54.12670479 0 28224
0.16150000 0.16150500 8842.31258141 0 211.85073467 0 3354.47706101 0 -247.82281373 0 -435.33280758 0 28075
0.16250000 0.16249700 8646.93005597 0 140.97909529 0 3610.76134889 0 -166.90144080 0 -194.67490707 0 28590
0.16350000 0.16349900 8624.60347651 0 -8.99648022 0 3686.14821454 0 214.89194087 0 99.30791559 0 29163
0.16450000 0.16449100 8703.51734280 0 -98.33987592 0 3282.40646324 0 759.80355606 0 13.56730667 0 28996
0.16550000 0.16550500 8667.13821681 0 -38.69042052 0 2992.21638628 0 167.07557259 0 200.01753664 0 30777
0.16650000 0.16650700 8862.59838063 0 40.99772222 0 3079.42646789 0 194.54514007 0 242.52787631 0 29211
0.16750000 0.16749900 8701.53201855 0 41.75192362 0 2649.32094143 0 291.76502692 0 964.88422411 0 30922
0.16850000 0.16850800 8780.42370244 0 -13.68664795 0 2637.69736703 0 -24.57931247 0 743.77788559 0 30867
0.16950000 0.16949900 8693.84581906 0 30.66361038 0 2480.44637670 0 345.25343332 0 682.88277786 0 30852
0.17050000 0.17049200 8649.70285521 0 195.73411638 0 2557.36382753 0 -159.15645797 0 636.23985822 0 31257
0.17150000 0.17149500 8343.15326276 0 114.47668018 0 2311.44980880 0 29.85617124 0 645.65628443 0 32608
0.17250000 0.17250900 8306.92941352 0 87.33774128 0 2394.84451865 0 175.19543787 0 840.18146034 0 32361
0.17350000 0.17350400 8156.49950931 0 52.86386110 0 2134.90013578 0 10.55031255 0 334.80663492 0 32508
0.17450000 0.17449800 8173.90159733 0 -8.07154094 0 2038.11835121 0 334.93640192 0 543.25791772 0 32791
0.17550000 0.17549800 8185.43644215 0 -1.67978396 0 1742.51577014 0 229.97264136 0 453.45360515 0 33633
0.17650000 0.17650100 8053.82829916 0 44.26363608 0 1432.70536579 0 50.43655265 0 479.74639664 0 33984
0.17750000 0.17750300 8066.79390840 0 75.54258606 0 1349.44375030 0 182.26496681 0 235.90088613 0 34069
0.17850000 0.17849800 7941.88484837 0 44.08917155 0 1425.15226066 0 -4.40487996 0 321.22102778 0 34536
