### header ###
fiducial parameters:
Omega_m = 0.31
Omega_nu = 0
Omega_de = 0.69
Omega_k = 0
H_0 = 100
w_de = -1
zeff = 0
beta = 0
fgrowth = 0
b_1 = 2
gamma = 0.55
Lx = 3500 Ly = 3500 Lz = 3500
nx = 700 ny = 700 nz = 700
xoffset = 1379.75464 yoffset = 22.6059522 zoffset = 368.141391
bins = 400 dk = 0.001
kx_ny = 0.628318531 ky_ny = 0.628318531 kz_ny = 0.628318531
############################
A(data) = 3.31466986 (not used)
A(ran) = 3.31663757 (used)
Ngal = 186380
weighted Ngal = 0
Nran = 9399747
weighted Nran = 0
SN(data) = 6687.08431
SN(ran) = 131.920529
SN(data+ran) = 6819.00484
############################
13 columns: k_central k_mean P_0(k) sigma^{lin}_{P_0(k)} P^img_1(k) sigma^{lin}_{P_1(k)} P_2(k) sigma^{lin}_{P_2(k)} P^img_3(k) sigma^{lin}_{P_3(k)} P_4(k) sigma^{lin}_{P_4(k)} N_modes
### header ###
0.00050000 0 0 0 0 0 0 0 0 0 0 0 0
0.00150000 0.00179520 54854.50913061 0 -64385.28558019 0 -95197.73982205 0 107800.66691431 0 97373.27810344 0 3
0.00250000 0.00253879 95747.86319068 0 -63276.38770930 0 -30623.68206980 0 -115643.47410034 0 -28255.37878544 0 6
0.00350000 0.00331552 124399.97409096 0 -23846.07343868 0 -62374.67339741 0 -76869.53686511 0 -60535.64203143 0 7
0.00450000 0.00420575 150049.47615342 0 5507.83294850 0 -23936.13395790 0 -101259.41169016 0 -2367.72654211 0 24
0.00550000 0.00557378 112026.63477552 0 22671.95932974 0 19094.60466606 0 -47955.45189291 0 60597.08726252 0 45
0.00650000 0.00659388 102071.73095465 0 22925.83682788 0 72958.11534935 0 33435.63323208 0 -24396.08589534 0 40
0.00750000 0.00754703 106165.15901233 0 -14822.27560160 0 -1062.65756169 0 54566.69256980 0 -1490.56814027 0 57
0.00850000 0.00846663 107774.93533739 0 -6094.26889594 0 37254.44325332 0 29670.50460407 0 -19811.65054876 0 75
0.00950000 0.00948925 97347.43561455 0 23112.50167252 0 2906.49252507 0 -21138.04679180 0 16162.97948871 0 112
0.01050000 0.01054430 67923.48831864 0 15869.17368155 0 35310.04551633 0 -24163.28167140 0 6199.02525112 0 105
0.01150000 0.01145670 54953.44260739 0 5136.34439792 0 36304.14949880 0 23514.00300205 0 13346.59184764 0 144
0.01250000 0.01249090 53082.69041813 0 -5007.86397247 0 24270.53354589 0 11710.41847384 0 -473.04953192 0 169
0.01350000 0.01339930 60800.05616668 0 -1003.11336175 0 18257.66294435 0 11723.50608624 0 6660.74068888 0 180
0.01450000 0.01448870 64718.02148863 0 -6086.51614928 0 -570.27385525 0 14637.49626045 0 -813.29196246 0 267
0.01550000 0.01550050 62430.35120609 0 -1739.66533253 0 -6726.41166601 0 -7589.35115337 0 -5069.75285144 0 238
0.01650000 0.01653350 68951.08771589 0 4134.04402090 0 12293.37178544 0 -11214.53105829 0 -187.76176402 0 315
0.01750000 0.01747870 70567.51875913 0 852.48159776 0 256.17226679 0 -5669.96406549 0 -4638.32747255 0 297
0.01850000 0.01844180 66739.05939654 0 -729.04988516 0 27438.06848233 0 2417.74784035 0 18840.06169610 0 388
0.01950000 0.01947590 70490.32402837 0 -3654.62703282 0 15962.00700000 0 4812.39271746 0 2059.50217892 0 399
0.02050000 0.02045430 80321.56100327 0 -6375.25327943 0 13992.21042200 0 14799.42773589 0 10207.09545709 0 462
0.02150000 0.02154770 82220.04118490 0 -398.77511332 0 20104.12541229 0 2529.76892953 0 13157.37602771 0 571
0.02250000 0.02255340 83912.11419132 0 317.90365077 0 -556.77365032 0 -6100.76833735 0 7014.54987152 0 510
0.02350000 0.02348930 82327.95853121 0 2676.29473241 0 24808.78933378 0 -1377.87048807 0 14097.57679301 0 555
0.02450000 0.02439640 80371.69321348 0 2694.12937710 0 21106.99144035 0 -6434.80191584 0 -449.05039996 0 592
0.02550000 0.02547300 75415.92459307 0 2742.37608383 0 20303.10148554 0 1368.99753052 0 3469.13785506 0 837
0.02650000 0.02652900 72440.15645187 0 4145.00212349 0 28646.12165393 0 -4415.09495157 0 -1927.89403593 0 723
0.02750000 0.02749970 68667.15307402 0 3336.64241631 0 24557.68463488 0 -994.10841895 0 -1392.69941839 0 826
0.02850000 0.02848090 65092.90394548 0 2617.83303330 0 29657.52790364 0 1104.62997830 0 -10547.28464988 0 831
0.02950000 0.02946900 60499.92837726 0 3344.32861580 0 31008.10295602 0 -2552.17314736 0 -1505.96272163 0 996
0.03050000 0.03053250 56741.78720332 0 4103.03303424 0 33615.86518249 0 -2728.46772285 0 -8333.43737423 0 1041
0.03150000 0.03150510 53151.56675118 0 586.90177771 0 33395.03945125 0 5400.47016204 0 -8471.57823222 0 1036
0.03250000 0.03246190 55222.84778126 0 -919.36927919 0 32005.20156167 0 4269.58953881 0 -5370.27992395 0 1059
0.03350000 0.03345080 53354.64656730 0 717.50173090 0 27864.52500499 0 3134.77154066 0 -3609.57459081 0 1302
0.03450000 0.03451200 54578.00559069 0 928.55057203 0 28846.09593491 0 3281.50807628 0 1446.48063240 0 1339
0.03550000 0.03553350 53158.44329329 0 -84.11408489 0 26987.98771017 0 1582.27015663 0 -1575.75962402 0 1365
0.03650000 0.03647120 52545.65466190 0 1292.69009551 0 29068.91808160 0 367.05761740 0 2813.86993935 0 1308
0.03750000 0.03744890 52235.65570720 0 693.33290363 0 27627.94977408 0 1131.27990632 0 865.17103619 0 1579
0.03850000 0.03847530 51801.21352273 0 499.04286109 0 24315.45289353 0 220.54179660 0 38.08517390 0 1662
0.03950000 0.03950240 49054.36768654 0 2403.76184100 0 29526.65177965 0 -313.61024843 0 -901.97495502 0 1683
0.04050000 0.04050350 47352.53442680 0 1439.42663114 0 24557.68463488 0 -699.76690698 0 -2452.13055089 0 1822
0.04150000 0.04152450 46936.94727715 0 -574.68593339 0 27576.26479630 0 5382.96825326 0 -2373.27214059 0 1887
0.04250000 0.04250150 47140.35982918 0 -58.84112896 0 20826.60598149 0 3165.15032910 0 -5981.65997333 0 1920
0.04350000 0.04349210 44383.64282770 0 1291.19278392 0 20903.35706438 0 2845.13602355 0 -4631.35110967 0 2005
0.04450000 0.04448520 43070.66693297 0 2294.39154789 0 18785.16027120 0 -2060.94403452 0 -6311.48998817 0 2151
0.04550000 0.04548030 41185.82892359 0 458.40582459 0 16131.36957740 0 1906.07765154 0 -1455.56432270 0 2274
0.04650000 0.04648670 39719.79451097 0 792.48044051 0 17711.53240662 0 3401.92520155 0 -6899.55634157 0 2311
0.04750000 0.04749250 39912.11586606 0 -49.57277023 0 12457.18876437 0 3090.39566167 0 -2238.56955365 0 2568
0.04850000 0.04851840 39200.17193395 0 -478.38107029 0 13213.83022017 0 3264.77146009 0 -981.40899844 0 2493
0.04950000 0.04949480 38614.77855902 0 566.19784037 0 8070.98638084 0 -298.86672033 0 -1073.24189093 0 2644
0.05050000 0.05050630 39901.69014093 0 760.56884865 0 10280.99610235 0 -55.68013783 0 -1324.00054450 0 2829
0.05150000 0.05149060 36748.24102461 0 1111.69285251 0 13860.22517832 0 -1865.91642739 0 -5778.87961952 0 2784
0.05250000 0.05249300 36157.96752302 0 1439.58190789 0 12384.20868845 0 -3060.88198659 0 -2668.37561779 0 3055
0.05350000 0.05348950 35725.29993007 0 770.26588214 0 15123.95615860 0 -622.82949199 0 -7009.94702479 0 3009
0.05450000 0.05448610 33898.57979270 0 -28.46622244 0 14290.23088400 0 1258.68448567 0 -5076.09701610 0 3336
0.05550000 0.05550870 34523.12509285 0 251.46294457 0 15387.81573399 0 1283.35130768 0 -6791.80536321 0 3349
0.05650000 0.05647670 34518.68861408 0 293.45754357 0 11971.61616197 0 -55.73659202 0 -8457.37040893 0 3324
0.05750000 0.05747970 33752.39781692 0 303.65035357 0 12346.94226670 0 1027.80014792 0 -7977.83141767 0 3639
0.05850000 0.05849280 33166.44988215 0 271.19085658 0 10205.80887824 0 1382.26260207 0 -7690.89106143 0 3846
0.05950000 0.05951020 32650.04375224 0 510.03645550 0 10909.93351650 0 1528.99913769 0 -5499.60328037 0 3787
0.06050000 0.06049470 32358.89983235 0 -100.43533576 0 6754.05092880 0 1596.82180703 0 -4552.35960500 0 3930
0.06150000 0.06148310 31384.98182832 0 260.92040821 0 8128.88242891 0 2140.50119023 0 -3435.83099062 0 4083
0.06250000 0.06249100 31777.16655241 0 193.79093868 0 6374.21070692 0 -3.29126833 0 -4108.41226476 0 4303
0.06350000 0.06350600 30711.85708554 0 185.87958789 0 5355.96118869 0 684.93132194 0 -3747.51580726 0 4470
0.06450000 0.06451750 30115.70524957 0 1179.00532679 0 9363.87611790 0 -1498.75344361 0 -3320.31617440 0 4479
0.06550000 0.06550280 28950.13136228 0 607.93734184 0 7232.49189156 0 -2367.85963648 0 -2321.23224451 0 4636
0.06650000 0.06648880 28771.78491535 0 539.75753596 0 9868.99140932 0 -130.88499695 0 -6023.59578899 0 4653
0.06750000 0.06749660 28247.06038773 0 827.25134294 0 11016.59755755 0 -1609.72086908 0 -5449.41561418 0 5220
0.06850000 0.06852730 28006.49232593 0 96.97809876 0 12053.24737151 0 -278.89369286 0 -4507.76190208 0 5029
0.06950000 0.06949320 27922.08831715 0 -668.81692189 0 12218.72802998 0 2716.53359494 0 -3218.98699909 0 5040
0.07050000 0.07048030 28678.72977296 0 -729.39260315 0 9074.28496558 0 2391.78334829 0 -2740.13566204 0 5475
0.07150000 0.07148790 29510.12589620 0 140.71845216 0 9410.44805389 0 1244.16610886 0 -1748.81557001 0 5509
0.07250000 0.07249820 28728.52924726 0 993.22112319 0 10025.57692783 0 -1164.40931161 0 177.41034990 0 5916
0.07350000 0.07351270 27505.61387174 0 967.00375185 0 11622.02163416 0 -481.71619321 0 -429.69515217 0 5721
0.07450000 0.07449140 26488.99475947 0 840.07831221 0 12300.69197543 0 -1124.12608429 0 731.65742556 0 6028
0.07550000 0.07549160 25730.02415230 0 962.26226515 0 12225.05001224 0 -709.44175807 0 -949.54953521 0 6183
0.07650000 0.07648840 24904.72818739 0 306.26676693 0 14301.32208095 0 236.76932685 0 1289.30728044 0 6330
0.07750000 0.07749960 24709.30129716 0 5.99896224 0 13930.87610288 0 684.78824550 0 -476.34472653 0 6583
0.07850000 0.07848650 25246.66978930 0 -226.37576619 0 12692.21122770 0 1308.48395997 0 -1137.99008048 0 6549
0.07950000 0.07947320 25045.69730060 0 109.03655899 0 12579.85740261 0 296.15603179 0 1355.74355016 0 6828
0.08050000 0.08048110 25156.38744614 0 112.88620254 0 11637.10566201 0 581.70333370 0 371.31330967 0 7147
0.08150000 0.08149960 24743.01853588 0 18.69698526 0 12626.66225373 0 1805.73559275 0 2334.18676254 0 7386
0.08250000 0.08250610 25134.75961209 0 112.91282141 0 9388.68712547 0 704.39748170 0 -908.23260834 0 7227
0.08350000 0.08350160 24095.84719395 0 610.39847845 0 11494.02922138 0 377.86820707 0 2968.40358643 0 7798
0.08450000 0.08449610 23652.31022799 0 272.25450237 0 8932.05145592 0 798.65380073 0 2468.57879596 0 7371
0.08550000 0.08548940 23218.20077944 0 270.35236209 0 10312.25109535 0 699.64268557 0 2038.62854627 0 8256
0.08650000 0.08650700 22582.12063446 0 536.97586377 0 8753.40554667 0 882.59641571 0 2992.80421972 0 8037
0.08750000 0.08749060 21746.39894441 0 351.48446777 0 8542.72826064 0 248.87204096 0 1094.41609503 0 8155
0.08850000 0.08849210 21820.59905199 0 509.71259255 0 9888.71155749 0 -712.78464484 0 2661.19961336 0 8718
0.08950000 0.08949900 20911.34272618 0 317.42894754 0 9607.15043176 0 -177.72977638 0 448.10432086 0 8571
0.09050000 0.09049190 20663.56538636 0 208.36144411 0 9049.22995168 0 -197.94791929 0 1251.98540271 0 8932
0.09150000 0.09150830 20165.68155535 0 116.46865915 0 8982.84913794 0 547.84856414 0 715.65726484 0 9285
0.09250000 0.09250820 20622.08430977 0 -35.23418173 0 9028.10122149 0 1287.01140267 0 1733.46535343 0 9204
0.09350000 0.09350330 20673.88019952 0 143.11082334 0 9251.63320478 0 441.64148040 0 1131.70137181 0 9349
0.09450000 0.09448040 20013.84306913 0 596.89272792 0 7831.42761796 0 -23.65597032 0 612.99825501 0 9564
0.09550000 0.09549270 18875.99717421 0 787.98406926 0 9566.72301889 0 -730.15124102 0 2034.24752347 0 10155
0.09650000 0.09649430 17878.12218478 0 615.83871055 0 8593.12665957 0 -520.03960603 0 1104.36046221 0 9913
0.09750000 0.09749140 17557.36476904 0 213.07187545 0 10228.62347036 0 1174.50230083 0 2437.42362374 0 10476
0.09850000 0.09850240 17320.67862616 0 163.87465315 0 8703.21788048 0 695.06423947 0 947.44553515 0 10575
0.09950000 0.09950330 17154.53249588 0 -179.73284655 0 7564.06322432 0 1699.53738197 0 2266.21990764 0 10882
0.10050000 0.10051200 16959.54925353 0 17.32677878 0 7016.11373029 0 836.58347605 0 1796.01970422 0 10875
0.10150000 0.10150300 17116.82242625 0 154.61128546 0 5447.27501317 0 29.64965315 0 1783.90811715 0 11118
0.10250000 0.10250800 16671.51086878 0 324.47962144 0 6325.47598753 0 -40.05818693 0 1361.73279651 0 11575
0.10350000 0.10349800 16052.51116710 0 310.50582240 0 5656.00024853 0 -233.26118126 0 892.04833375 0 11364
0.10450000 0.10450100 16118.72561288 0 -162.77107905 0 4810.22993405 0 1195.20956553 0 1363.13028733 0 12093
0.10550000 0.10551000 16044.63641727 0 21.60454254 0 5344.22670232 0 405.49859691 0 392.40987539 0 12067
0.10650000 0.10649700 15875.27383987 0 474.95610867 0 4527.72605658 0 -752.22826854 0 95.31763566 0 12054
0.10750000 0.10749900 15168.09912245 0 568.29407659 0 5800.03053210 0 -808.52274777 0 -36.94655163 0 12807
0.10850000 0.10850100 14540.00463927 0 394.36747165 0 5801.82730601 0 -640.99354523 0 241.15145877 0 12736
0.10950000 0.10950300 14349.56878767 0 79.15498891 0 6718.67001054 0 276.63219780 0 -606.45999441 0 12933
0.11050000 0.11050200 14503.84733722 0 -68.93223268 0 6095.61093077 0 583.14851666 0 -114.73510507 0 13428
0.11150000 0.11150900 14329.93736907 0 40.81394109 0 6576.19249454 0 332.10371022 0 -413.30347220 0 13453
0.11250000 0.11250000 14482.10859120 0 53.31959838 0 5569.10072044 0 94.20818323 0 -507.76719661 0 13668
0.11350000 0.11349100 14411.34675467 0 50.28360504 0 5854.07793483 0 60.63845743 0 -247.26714476 0 13791
0.11450000 0.11448600 14282.02339826 0 -102.41278526 0 5457.11290486 0 -217.87103637 0 -927.35937747 0 14205
0.11550000 0.11549300 14535.23542458 0 -24.58164162 0 5652.20705918 0 249.30570676 0 -473.82813394 0 14776
0.11650000 0.11649800 14334.59567179 0 227.09336663 0 4982.09912196 0 -52.25728354 0 -1853.82702271 0 14553
0.11750000 0.11747300 14091.03298681 0 203.35265957 0 4925.70038548 0 55.53717230 0 -1328.27065532 0 14568
0.11850000 0.11849100 14035.57700207 0 9.78515305 0 5254.54328380 0 376.87998142 0 -1480.48624224 0 16015
0.11950000 0.11950300 13906.25364565 0 -13.61311331 0 4801.02424058 0 128.57248238 0 -1743.79125779 0 15270
0.12050000 0.12050700 13891.94600159 0 243.72794382 0 5074.95462281 0 204.27988363 0 -1027.01489117 0 15999
0.12150000 0.12150000 13936.42170135 0 -72.89278820 0 4268.60242228 0 -20.92653767 0 -1021.06668225 0 15670
0.12250000 0.12250700 13418.68462781 0 150.52972498 0 5335.37592715 0 316.88215153 0 -781.33046021 0 16887
0.12350000 0.12352200 13917.01210669 0 184.47766060 0 4747.73103925 0 -93.85637046 0 -437.17394627 0 16407
0.12450000 0.12449800 13397.05679376 0 -13.79744900 0 4744.55895692 0 562.68636742 0 -277.69029799 0 16306
0.12550000 0.12549900 13468.59501407 0 95.50829334 0 5054.62445880 0 9.49390931 0 101.64194707 0 17523
0.12650000 0.12650100 13561.87198041 0 114.78279722 0 4527.22695272 0 131.25211557 0 240.21203438 0 17154
0.12750000 0.12750600 13289.91583124 0 26.04656691 0 4917.95873001 0 323.10653126 0 357.43711317 0 18007
0.12850000 0.12850300 13507.19237945 0 35.56192660 0 4498.10146953 0 264.99531397 0 623.97853999 0 17496
0.12950000 0.12949900 13158.37423543 0 108.49808138 0 4264.11048752 0 90.10577130 0 169.73967810 0 18405
0.13050000 0.13049000 13024.83622418 0 282.64917215 0 4612.98408752 0 82.48489897 0 574.56725759 0 18100
0.13150000 0.13148800 12583.40658564 0 215.53079382 0 4380.51259949 0 -10.07129484 0 541.09735256 0 19059
0.13250000 0.13249300 12479.48207023 0 251.31210429 0 4522.35791726 0 381.39298946 0 747.96813979 0 18957
0.13350000 0.13349100 12108.25970837 0 177.64991976 0 4498.06819594 0 -19.13187109 0 818.60020932 0 19468
0.13450000 0.13450700 11751.67772649 0 239.29811976 0 4492.03458480 0 81.08640994 0 1057.95378506 0 19953
0.13550000 0.13551000 11687.23787222 0 153.32248837 0 4459.53737774 0 -66.32546866 0 758.51254073 0 19956
0.13650000 0.13649900 11567.00929730 0 75.44243255 0 4244.85616961 0 72.30661844 0 1003.63132065 0 19723
0.13750000 0.13749600 11326.66305943 0 16.81236907 0 4382.19846142 0 133.98055001 0 -218.33243017 0 20946
0.13850000 0.13851100 11440.34782815 0 162.18102738 0 4474.68795278 0 -233.16468784 0 219.15317874 0 20955
0.13950000 0.13949800 11239.04260354 0 131.11014824 0 3778.29387879 0 -275.07943023 0 -797.74432258 0 20506
0.14050000 0.14048300 11173.93727746 0 -14.53401539 0 4303.04058880 0 -19.61089988 0 -826.16773300 0 21447
0.14150000 0.14148400 11000.43768360 0 104.06626090 0 3734.09545895 0 116.14479620 0 -1170.90875302 0 21771
0.14250000 0.14249400 10965.18985969 0 79.73394939 0 3999.00869806 0 240.39171178 0 -1329.03594791 0 22470
0.14350000 0.14350900 10839.23822715 0 128.52479024 0 3353.14611737 0 248.20989650 0 -1508.42496735 0 22519
0.14450000 0.14449900 10653.24994553 0 55.30658632 0 3480.85015903 0 350.50067860 0 -1044.34599552 0 22218
0.14550000 0.14550500 10446.67640236 0 201.68343443 0 3236.98801173 0 156.72748584 0 -950.71078353 0 23559
0.14650000 0.14650700 10242.47637535 0 166.20935011 0 3572.86272892 0 -223.11606341 0 -500.99823911 0 23044
0.14750000 0.14750500 10146.45988337 0 9.23504077 0 3605.03829126 0 290.08581970 0 -399.65464523 0 23649
0.14850000 0.14849900 10034.69389172 0 166.09400166 0 3218.99809028 0 23.74858182 0 -953.91392121 0 23640
0.14950000 0.14949500 9888.76701347 0 144.02251973 0 3998.89778609 0 23.23339572 0 745.19755880 0 24457
0.15050000 0.15050000 9854.67267406 0 69.99787488 0 3622.76202399 0 256.52274862 0 298.45080044 0 24591
0.15150000 0.15149900 9648.09913090 0 62.90361258 0 3518.48259028 0 369.20598225 0 571.91202504 0 25020
0.15250000 0.15250500 9738.80293954 0 -18.27651798 0 3568.68134767 0 189.33005927 0 453.37596677 0 25297
0.15350000 0.15350100 9634.66769139 0 79.48517384 0 3248.33430621 0 -73.10085905 0 803.57163745 0 25452
0.15450000 0.15450400 9559.05900180 0 113.26995795 0 3448.68568788 0 -16.39389821 0 275.19699692 0 26061
0.15550000 0.15549900 9447.92520837 0 62.09495341 0 2905.76050607 0 -63.22536820 0 203.45691682 0 26128
0.15650000 0.15649500 9435.12596710 0 123.86870576 0 3075.00108030 0 37.11602512 0 61.91882520 0 26331
0.15750000 0.15749700 9245.98778554 0 -60.38480175 0 2817.06420408 0 205.28252784 0 -289.14195884 0 27345
0.15850000 0.15849900 9312.57933201 0 -0.05042790 0 2698.41057912 0 301.69941203 0 -129.19469853 0 26980
0.15950000 0.15949700 9299.65808757 0 90.22367073 0 2273.54009763 0 199.42748497 0 -514.09805182 0 27777
0.16050000 0.16050000 9062.07355774 0 137.19699713 0 2423.08270608 0 -153.70291643 0 -9.74769808 0 28224
0.16150000 0.16150500 9147.70868938 0 66.86638634 0 2509.50531270 0 135.61095597 0 79.28142855 0 28075
0.16250000 0.16249700 9050.23925060 0 -38.97380060 0 2302.98722553 0 453.20294410 0 270.84481124 0 28590
0.16350000 0.16349900 9052.73476991 0 47.50404018 0 2430.64690240 0 -31.33651330 0 604.68540290 0 29163
0.16450000 0.16449100 9015.90090485 0 137.40440251 0 2397.20694360 0 62.17813739 0 662.49715787 0 28996
0.16550000 0.16550500 8807.90768848 0 202.32006913 0 2747.42257844 0 -264.51395602 0 825.21499918 0 30777
0.16650000 0.16650700 8735.99236746 0 184.69504806 0 2921.79837686 0 -160.19903048 0 927.26510230 0 29211
0.16750000 0.16749900 8514.16842850 0 134.68373190 0 3187.17744624 0 -1.27145045 0 1027.89553221 0 30922
0.16850000 0.16850800 8490.20035189 0 66.82412888 0 3367.49812622 0 -110.30461554 0 782.83442652 0 30867
0.16950000 0.16949900 8250.06484677 0 91.93936798 0 3534.46500508 0 -23.77475704 0 1186.69152628 0 30852
0.17050000 0.17049200 8346.91317852 0 129.10485984 0 3377.34710911 0 92.75024539 0 769.02810456 0 31257
0.17150000 0.17149500 8021.39763929 0 133.36831594 0 3660.68282635 0 -26.64360604 0 962.58390986 0 32608
0.17250000 0.17250900 7989.62136003 0 133.59013988 0 3370.51493179 0 40.13427254 0 778.53769682 0 32361
0.17350000 0.17350400 7933.88809537 0 -19.23280098 0 3522.07613809 0 353.51748417 0 913.91241029 0 32508
0.17450000 0.17449800 7859.82108215 0 -2.53261937 0 3043.50208097 0 127.20271956 0 467.34311109 0 32791
0.17550000 0.17549800 7793.24062687 0 136.20322588 0 3080.91268828 0 -214.88306791 0 355.55604617 0 33633
0.17650000 0.17650100 7664.25000636 0 149.12447033 0 2898.11867137 0 -59.35298770 0 226.11068658 0 33984
0.17750000 0.17750300 7483.48567850 0 -16.83810065 0 2831.38293934 0 147.84898268 0 -115.42386840 0 34069
0.17850000 0.17849800 7637.32058017 0 -135.54108143 0 2357.70010007 0 393.38479160 0 -347.71789728 0 34536
