### header ###
fiducial parameters:
Omega_m = 0.31
Omega_nu = 0
Omega_de = 0.69
Omega_k = 0
H_0 = 100
w_de = -1
zeff = 0
beta = 0
fgrowth = 0
b_1 = 2
gamma = 0.55
Lx = 3500 Ly = 3500 Lz = 3500
nx = 700 ny = 700 nz = 700
xoffset = 1379.75464 yoffset = 22.6059522 zoffset = 368.141391
bins = 400 dk = 0.001
kx_ny = 0.628318531 ky_ny = 0.628318531 kz_ny = 0.628318531
############################
A(data) = 3.33834516 (not used)
A(ran) = 3.33963731 (used)
Ngal = 187729
weighted Ngal = 0
Nran = 9399747
weighted Nran = 0
SN(data) = 6660.42473
SN(ran) = 132.835353
SN(data+ran) = 6793.26008
############################
13 columns: k_central k_mean P_0(k) sigma^{lin}_{P_0(k)} P^img_1(k) sigma^{lin}_{P_1(k)} P_2(k) sigma^{lin}_{P_2(k)} P^img_3(k) sigma^{lin}_{P_3(k)} P_4(k) sigma^{lin}_{P_4(k)} N_modes
### header ###
0.00050000 0 0 0 0 0 0 0 0 0 0 0 0
0.00150000 0.00179520 26590.47921155 0 -16010.47553067 0 -14227.01106139 0 -25918.90723633 0 19708.94606502 0 3
0.00250000 0.00253879 54327.23362769 0 -19878.19773045 0 -23702.44243820 0 -7524.78929593 0 37726.48459544 0 6
0.00350000 0.00331552 68367.35802051 0 -24160.95252004 0 -28456.68401005 0 -34149.79540358 0 -51434.87128753 0 7
0.00450000 0.00420575 95651.25886526 0 -25429.78545092 0 -24440.00703526 0 -16419.96252200 0 2263.66893234 0 24
0.00550000 0.00557378 111771.53724571 0 10073.39107788 0 3215.88146394 0 -59286.99507900 0 -3316.67826181 0 45
0.00650000 0.00659388 102761.82522876 0 32422.56330283 0 46482.76276212 0 -46698.04289489 0 -11226.28772705 0 40
0.00750000 0.00754703 83654.57659818 0 15265.36891969 0 93420.93007094 0 -15230.98620915 0 -13123.99152489 0 57
0.00850000 0.00846663 67215.31539350 0 8802.79464668 0 98682.37207924 0 28548.96276866 0 -2032.07364887 0 75
0.00950000 0.00948925 64175.66195787 0 8493.30588704 0 120044.46104939 0 33761.38168645 0 15011.15868563 0 112
0.01050000 0.01054430 63636.96252209 0 1283.52876683 0 94640.18535146 0 30908.50400743 0 23811.91255208 0 105
0.01150000 0.01145670 65752.49742800 0 -3083.72985230 0 95316.08289348 0 61314.35496916 0 48226.52074632 0 144
0.01250000 0.01249090 73069.80370262 0 -6473.59892277 0 67761.55684320 0 28572.25428226 0 61085.09992824 0 169
0.01350000 0.01339930 81026.07383342 0 -8398.52051792 0 54882.56985889 0 46807.51300877 0 67665.17434172 0 180
0.01450000 0.01448870 92610.05266206 0 -7581.66495388 0 45027.81954646 0 25774.27802813 0 56410.82588639 0 267
0.01550000 0.01550050 101303.22191810 0 -1854.55904171 0 1313.67464014 0 -7084.30240913 0 40917.86560532 0 238
0.01650000 0.01653350 92360.38981875 0 8276.91663458 0 34601.20711937 0 -5549.44711945 0 43254.00441853 0 315
0.01750000 0.01747870 88981.56758044 0 5581.98869130 0 40372.51145138 0 -10003.80490822 0 34506.82103334 0 297
0.01850000 0.01844180 86664.39471402 0 1269.63149706 0 40626.94350937 0 13909.02644489 0 28432.50520071 0 388
0.01950000 0.01947590 85106.85792658 0 1593.05080007 0 37257.65970044 0 7238.68077945 0 21232.10014192 0 399
0.02050000 0.02045430 81257.43620176 0 2770.64754485 0 33803.63914682 0 8313.72831725 0 23215.76071611 0 462
0.02150000 0.02154770 78285.10633161 0 2711.72001546 0 36008.12545225 0 151.83294062 0 28636.13957668 0 571
0.02250000 0.02255340 73394.22121335 0 4525.55218198 0 40337.01962114 0 7926.72318214 0 23976.06226691 0 510
0.02350000 0.02348930 67057.93130880 0 3898.78864244 0 35344.42822687 0 592.50726865 0 24542.60060703 0 555
0.02450000 0.02439640 62261.98683642 0 4824.39339255 0 33694.27994491 0 5963.06003605 0 15196.49258664 0 592
0.02550000 0.02547300 61530.63330965 0 1420.38304598 0 42437.91414708 0 5113.44107622 0 31743.89296157 0 837
0.02650000 0.02652900 59059.18189368 0 -1419.78412134 0 36789.27845332 0 7326.31232654 0 23378.69039928 0 723
0.02750000 0.02749970 61509.00547561 0 611.82036990 0 29662.51894227 0 5792.31105903 0 27055.75492352 0 826
0.02850000 0.02848090 62706.96565798 0 1208.95155855 0 39086.26534129 0 -993.24441471 0 26269.83270777 0 831
0.02950000 0.02946900 57179.11309899 0 2852.40075755 0 34219.44812041 0 154.56359331 0 19996.42988992 0 996
0.03050000 0.03053250 60004.81734549 0 577.42102256 0 46279.90476994 0 -1224.80087899 0 23191.80373070 0 1041
0.03150000 0.03150510 56622.44592416 0 -77.71956620 0 32542.23731790 0 1829.71476055 0 5779.43417937 0 1036
0.03250000 0.03246190 60039.42187997 0 686.70480433 0 50164.59650105 0 3835.83500856 0 23375.25212823 0 1059
0.03350000 0.03345080 58852.44198257 0 -0.16890895 0 34712.45182476 0 3936.76490079 0 4851.34500114 0 1302
0.03450000 0.03451200 58961.91209645 0 1744.34581764 0 44221.26770438 0 6527.45777515 0 20800.65258064 0 1339
0.03550000 0.03553350 56257.65645653 0 1743.68034582 0 38762.18056647 0 6336.58936687 0 19259.64167665 0 1365
0.03650000 0.03647120 51486.00170547 0 1461.88630496 0 32086.83277121 0 5452.93152361 0 20181.76379092 0 1308
0.03750000 0.03744890 53444.48526258 0 106.77262387 0 32091.82380983 0 7139.38129318 0 26287.57862289 0 1579
0.03850000 0.03847530 50822.96995190 0 415.67255187 0 28629.48485851 0 3412.91657773 0 15499.28226332 0 1662
0.03950000 0.03950240 48692.35101815 0 2724.91853983 0 24943.43646474 0 -1286.40138684 0 20819.72943939 0 1683
0.04050000 0.04050350 46037.56211662 0 1228.11714688 0 25191.76836441 0 2208.41258915 0 12762.19668044 0 1822
0.04150000 0.04152450 44413.81088340 0 160.29885125 0 20531.69105464 0 2037.92980086 0 19795.56831319 0 1887
0.04250000 0.04250150 45275.48597431 0 417.76102425 0 23526.31423066 0 5023.46928658 0 8626.10078810 0 1920
0.04350000 0.04349210 43358.48349378 0 561.19903790 0 17835.42107653 0 916.71626488 0 6797.41750887 0 2005
0.04450000 0.04448520 41893.00364101 0 1337.82017589 0 19148.50788323 0 -143.17958876 0 6996.06084621 0 2151
0.04550000 0.04548030 40760.37060866 0 224.00668652 0 16042.52908985 0 2308.49955041 0 7152.66854712 0 2274
0.04650000 0.04648670 40421.20180598 0 571.94862599 0 15081.25505035 0 839.58919042 0 6128.75142725 0 2311
0.04750000 0.04749250 38586.05235893 0 1161.35923245 0 14928.75109231 0 831.47043426 0 3335.43347585 0 2568
0.04850000 0.04851840 38053.00943360 0 1069.09821975 0 14827.48846417 0 -878.82540875 0 3555.66028245 0 2493
0.04950000 0.04949480 36289.95276671 0 1266.80324184 0 15252.39221926 0 -659.99054736 0 2191.62051697 0 2644
0.05050000 0.05050630 35233.40534542 0 452.30788451 0 15718.44431502 0 -626.01821111 0 1453.35717450 0 2829
0.05150000 0.05149060 34965.99658700 0 -190.02214995 0 15176.19569622 0 1420.22776922 0 -1721.48686073 0 2784
0.05250000 0.05249300 36095.52408420 0 -685.66666830 0 13758.29707836 0 645.40451425 0 -1035.55954930 0 3055
0.05350000 0.05348950 36203.66325445 0 -670.82886502 0 11178.15193230 0 1595.64614015 0 -2848.76284495 0 3009
0.05450000 0.05448610 37088.29712304 0 14.68208287 0 12982.91149971 0 641.79765701 0 -1780.05947181 0 3336
0.05550000 0.05550870 36894.09026448 0 -32.35690342 0 7900.51468375 0 2290.18798425 0 -5594.47737906 0 3349
0.05650000 0.05647670 36889.76469767 0 -52.35300057 0 9324.72419267 0 442.48219313 0 -3770.61877050 0 3324
0.05750000 0.05747970 35786.19060132 0 582.17581869 0 6400.70757643 0 -332.69154366 0 -3210.31368307 0 3639
0.05850000 0.05849280 35608.39871424 0 714.63243825 0 7030.07754725 0 1132.22265807 0 -3621.73054267 0 3846
0.05950000 0.05951020 34661.43231880 0 493.97972968 0 5689.92822000 0 1516.79882105 0 -303.53944160 0 3787
0.06050000 0.06049470 33013.61318820 0 694.69157525 0 6719.01383764 0 1726.54444654 0 -3135.29282691 0 3930
0.06150000 0.06148310 32606.67717217 0 924.25273321 0 5541.55018723 0 -835.50097523 0 475.91216985 0 4083
0.06250000 0.06249100 31778.27567211 0 234.62096200 0 6094.42417270 0 988.23784840 0 818.97287354 0 4303
0.06350000 0.06350600 30996.34628726 0 399.61915340 0 5981.70433812 0 285.10698139 0 1699.28228444 0 4470
0.06450000 0.06451750 30952.09241144 0 192.13280473 0 7226.61355717 0 70.72102092 0 1215.93901263 0 4479
0.06550000 0.06550280 30876.89409613 0 85.99781378 0 5269.73822362 0 256.05137275 0 461.62670818 0 4636
0.06650000 0.06648880 31143.97011864 0 160.87337526 0 7697.83415072 0 -748.27647507 0 1409.32512262 0 4653
0.06750000 0.06749660 30399.52897947 0 554.10067186 0 7107.91556743 0 -541.86153603 0 1319.06496186 0 5220
0.06850000 0.06852730 29564.91640912 0 919.42362606 0 8119.03344602 0 546.14051981 0 3737.84428352 0 5029
0.06950000 0.06949320 28905.98839843 0 203.32382245 0 7298.73961093 0 98.87813171 0 1263.47588275 0 5040
0.07050000 0.07048030 28579.68538421 0 604.76969600 0 8726.72012682 0 1169.64435657 0 1775.72281380 0 5475
0.07150000 0.07148790 28023.35094529 0 716.94273457 0 10186.27728041 0 -1790.15246103 0 1645.67852959 0 5509
0.07250000 0.07249820 26186.87055460 0 545.44732000 0 8548.95042213 0 258.18310080 0 1024.90423639 0 5916
0.07350000 0.07351270 26572.95512037 0 234.41133838 0 9391.50428950 0 83.43386178 0 1637.28249350 0 5721
0.07450000 0.07449140 26107.01393657 0 -646.10658702 0 7183.87917533 0 2405.83589483 0 2088.81621246 0 6028
0.07550000 0.07549160 26820.84337216 0 6.18593764 0 6891.30449104 0 2446.17457813 0 1042.26639610 0 6183
0.07650000 0.07648840 26552.10367011 0 346.05089038 0 4669.59355675 0 17.13357013 0 1312.77625319 0 6330
0.07750000 0.07749960 26183.43228355 0 76.85622743 0 5654.60275772 0 434.93241537 0 3389.39214900 0 6583
0.07850000 0.07848650 25384.86610327 0 323.79640371 0 4443.41077738 0 -167.40719938 0 2995.96521085 0 6549
0.07950000 0.07947320 25904.48868030 0 -112.53017512 0 4582.01746564 0 1423.47748993 0 3181.31020305 0 6828
0.08050000 0.08048110 25169.91870642 0 409.23522116 0 5234.13548141 0 105.39687180 0 3495.83436611 0 7147
0.08150000 0.08149960 25071.65070146 0 561.26225773 0 5208.19317175 0 -252.01861354 0 4896.89654700 0 7386
0.08250000 0.08250610 24351.05563573 0 675.13224944 0 6405.24387598 0 -297.06107346 0 5107.62928902 0 7227
0.08350000 0.08350160 23185.48174844 0 964.02243811 0 6839.89679318 0 -716.85955059 0 4400.12183569 0 7798
0.08450000 0.08449610 22466.66127423 0 534.12209879 0 7786.09789603 0 -121.49075313 0 5852.44752888 0 7371
0.08550000 0.08548940 21305.63477769 0 427.13197655 0 9158.26750887 0 -435.30175223 0 4411.09102947 0 8256
0.08650000 0.08650700 21940.27306707 0 216.34045119 0 8308.01635082 0 15.89257611 0 4474.43285525 0 8037
0.08750000 0.08749060 21191.28453715 0 -124.90129619 0 8594.94561587 0 857.81757261 0 2380.22632107 0 8155
0.08850000 0.08849210 21117.08442957 0 307.35148599 0 8702.59677345 0 -1060.84082363 0 3107.56483454 0 8718
0.08950000 0.08949900 21205.25944531 0 281.88055220 0 7102.53633691 0 0.96572383 0 1110.62809761 0 8571
0.09050000 0.09049190 20947.27820429 0 53.34843550 0 9313.08952707 0 -102.05076859 0 88.14617863 0 8932
0.09150000 0.09150830 20436.08493695 0 667.50483329 0 7897.84170528 0 -758.55912376 0 -1204.53726217 0 9285
0.09250000 0.09250820 19723.80826893 0 752.91925011 0 9590.95728422 0 -1070.28719607 0 -1590.73273990 0 9204
0.09350000 0.09350330 18952.85916906 0 611.10166033 0 9761.88372039 0 -176.84802622 0 -73.52598463 0 9349
0.09450000 0.09448040 18032.62255827 0 255.67538117 0 9909.49646057 0 1197.93799998 0 -602.69896953 0 9564
0.09550000 0.09549270 18240.36067711 0 -73.73627373 0 8952.44816711 0 1373.95529555 0 270.34348913 0 10155
0.09650000 0.09649430 17988.70141835 0 -128.98285667 0 8850.35369920 0 1486.05402311 0 1315.89287953 0 9913
0.09750000 0.09749140 17939.45650390 0 80.97660710 0 6856.82195972 0 1209.87212790 0 2429.85942742 0 10476
0.09850000 0.09850240 17816.78786566 0 210.57968350 0 7118.94021720 0 1067.31364617 0 3309.48007499 0 10575
0.09950000 0.09950330 17193.24077323 0 413.70164617 0 6410.78947445 0 -70.62918581 0 3337.33007052 0 10882
0.10050000 0.10051200 17192.57530141 0 512.92349407 0 7503.74929532 0 -387.25690529 0 3222.96873879 0 10875
0.10150000 0.10150300 16307.49778494 0 294.82176080 0 7058.44882905 0 -404.49484358 0 2594.36406055 0 11118
0.10250000 0.10250800 16002.48986887 0 32.44796214 0 6985.90130981 0 168.86125530 0 2782.93659107 0 11575
0.10350000 0.10349800 15953.57769032 0 33.95026477 0 6833.88536444 0 285.33435093 0 786.13960321 0 11364
0.10450000 0.10450100 16194.36757607 0 -136.81767819 0 6197.82740185 0 363.38975857 0 1177.14200571 0 12093
0.10550000 0.10551000 16157.65571417 0 -7.04812292 0 5706.65374500 0 405.53852521 0 -50.50997637 0 12067
0.10650000 0.10649700 15873.38833639 0 184.33347504 0 5432.35735327 0 462.22008722 0 1178.09584864 0 12054
0.10750000 0.10749900 15657.77546771 0 152.88105873 0 5362.48281250 0 540.89771101 0 1022.24013089 0 12807
0.10850000 0.10850100 15729.09186409 0 85.68903485 0 3861.69967984 0 626.77573986 0 1584.24438969 0 12736
0.10950000 0.10950300 15320.15943261 0 -14.17687885 0 4607.72686017 0 1048.79467462 0 1854.12648503 0 12933
0.11050000 0.11050200 15567.60403653 0 77.85798434 0 3460.71963657 0 87.94043692 0 1768.80190691 0 13428
0.11150000 0.11150900 15250.72853971 0 60.99881042 0 3901.22870576 0 223.43659900 0 2890.59883984 0 13453
0.11250000 0.11250000 15089.24071215 0 219.62344549 0 3592.30559717 0 -418.72263103 0 948.95171969 0 13668
0.11350000 0.11349100 14830.15035144 0 378.32738262 0 4207.30137675 0 -644.49503611 0 2245.15772464 0 13791
0.11450000 0.11448600 14439.40748295 0 308.65359251 0 4286.27069902 0 -405.36661166 0 -264.07807198 0 14205
0.11550000 0.11549300 14009.95633712 0 302.60112634 0 5139.47211546 0 -604.26282830 0 619.81157730 0 14776
0.11650000 0.11649800 13751.08780035 0 353.33669766 0 5099.82108637 0 -118.02253585 0 -728.49643443 0 14553
0.11750000 0.11747300 13368.21968169 0 163.84027044 0 5331.98202089 0 139.30876103 0 -139.95205045 0 14568
0.11850000 0.11849100 13149.50127787 0 84.57669871 0 5107.25218832 0 523.58546169 0 -214.18432251 0 16015
0.11950000 0.11950300 13166.13807330 0 -169.61767493 0 4271.04248561 0 637.53641914 0 -237.47805434 0 15270
0.12050000 0.12050700 13410.47714207 0 -113.37754256 0 4169.89076944 0 537.36072830 0 -178.17896985 0 15999
0.12150000 0.12150000 13518.17266443 0 144.46062201 0 3911.62115731 0 -298.27555953 0 -76.89349385 0 15670
0.12250000 0.12250700 13371.43612881 0 -18.97581795 0 3975.65063729 0 205.97683676 0 814.97560616 0 16887
0.12350000 0.12352200 13586.93808551 0 -40.59477904 0 4262.18061925 0 34.57192636 0 347.66355042 0 16407
0.12450000 0.12449800 13580.06154340 0 76.93930049 0 3924.43148978 0 135.62426540 0 666.51771677 0 16306
0.12550000 0.12549900 13628.86280998 0 4.15660352 0 4502.98159619 0 300.38732343 0 967.34646983 0 17523
0.12650000 0.12650100 13521.72184746 0 -99.24591580 0 3471.53355360 0 481.71952057 0 1604.07544983 0 17154
0.12750000 0.12750600 13739.77477946 0 -79.82678271 0 3842.60063870 0 641.84645827 0 2026.04003773 0 18007
0.12850000 0.12850300 13603.57488093 0 195.63540473 0 3469.94751243 0 -18.64774034 0 1975.77473316 0 17496
0.12950000 0.12949900 13246.99289905 0 301.78481424 0 3823.75669508 0 260.58212670 0 2123.80893883 0 18405
0.13050000 0.13049000 13024.72531221 0 218.33132105 0 3813.54170269 0 -341.59999305 0 1920.13019807 0 18100
0.13150000 0.13148800 12732.58318459 0 178.84887815 0 3418.70618253 0 -217.64699419 0 1580.80611864 0 19059
0.13250000 0.13249300 12823.75282350 0 27.36763938 0 3524.61602219 0 205.19490738 0 1116.16260488 0 18957
0.13350000 0.13349100 12528.61607271 0 -79.83643205 0 3191.05936517 0 39.05276993 0 826.65020006 0 19468
0.13450000 0.13450700 12638.97348235 0 78.47498762 0 2839.86770500 0 120.24410259 0 -123.91639790 0 19953
0.13550000 0.13551000 12638.97348235 0 272.58612916 0 3255.75431697 0 -529.32182876 0 -198.25403633 0 19956
0.13650000 0.13649900 11986.47836588 0 282.27318057 0 3082.23254071 0 -329.15234271 0 -1548.70819467 0 19723
0.13750000 0.13749600 11990.69302072 0 35.90431185 0 3446.38981012 0 -155.82909888 0 -995.14211850 0 20946
0.13850000 0.13851100 12056.13108272 0 -182.92711127 0 2871.68834905 0 613.66150859 0 -1262.14493912 0 20955
0.13950000 0.13949800 12289.15713060 0 -68.36403066 0 2813.89212175 0 343.46442325 0 -1792.99180745 0 20506
0.14050000 0.14048300 11974.94352106 0 249.43880113 0 2327.66513874 0 -310.10875755 0 -1661.73858277 0 21447
0.14150000 0.14148400 11813.12295758 0 383.27516558 0 3015.70754142 0 -507.74612333 0 -1187.02426219 0 21771
0.14250000 0.14249400 11353.50375605 0 294.95485516 0 3263.11887174 0 50.70995065 0 -978.66725456 0 22470
0.14350000 0.14350900 11098.07349033 0 221.51227633 0 3683.90779276 0 174.47783743 0 -402.40415296 0 22519
0.14450000 0.14449900 10662.28927104 0 255.99480764 0 3349.70784632 0 100.35115357 0 -755.42696974 0 22218
0.14550000 0.14550500 10769.66314869 0 127.87595521 0 4047.32195197 0 68.82986093 0 307.66425775 0 23559
0.14650000 0.14650700 10271.76822649 0 19.46882165 0 3635.29507654 0 213.45119439 0 -219.93843548 0 23044
0.14750000 0.14750500 10462.19298689 0 68.84938144 0 3931.34130548 0 259.33991264 0 833.67758245 0 23649
0.14850000 0.14849900 10289.08158493 0 2.24794162 0 3208.84964508 0 374.21809415 0 68.84561043 0 23640
0.14950000 0.14949500 10332.49252978 0 121.45415218 0 3507.21393418 0 137.52086008 0 1145.75391834 0 24457
0.15050000 0.15050000 10093.79888026 0 88.21971326 0 2816.40982346 0 540.56608422 0 785.99541765 0 24591
0.15150000 0.15149900 9895.80992354 0 145.01961834 0 2965.29805129 0 386.98960744 0 1396.41496937 0 25020
0.15250000 0.15250500 9887.46934343 0 106.29148775 0 2366.04068018 0 126.06587187 0 1320.38481429 0 25297
0.15350000 0.15350100 9617.14360021 0 58.86397683 0 2832.64733579 0 416.58646649 0 1749.98014569 0 25452
0.15450000 0.15450400 9600.41807522 0 57.72879282 0 2017.65509284 0 -121.11143420 0 1539.02557973 0 26061
0.15550000 0.15549900 9478.73655350 0 143.06978591 0 2504.65845964 0 -52.12075091 0 1399.03249185 0 26128
0.15650000 0.15649500 9144.05968558 0 266.94070991 0 2647.39107316 0 -459.88095378 0 1273.10304170 0 26331
0.15750000 0.15749700 9071.74508148 0 126.58383077 0 2595.27353870 0 -80.03807001 0 977.80435943 0 27345
0.15850000 0.15849900 9016.85474778 0 -113.57940235 0 2574.61063879 0 330.83820465 0 1077.80148200 0 26980
0.15950000 0.15949700 9031.30657741 0 18.32897934 0 2210.96356445 0 351.66858164 0 584.63140970 0 27777
0.16050000 0.16050000 9142.29618527 0 -27.56428630 0 1944.00954510 0 82.96381685 0 587.21344035 0 28224
0.16150000 0.16150500 8902.91488154 0 179.59420658 0 1688.43509382 0 -347.28755884 0 127.85820930 0 28075
0.16250000 0.16249700 8844.33117925 0 104.59475644 0 2041.93372296 0 62.40728152 0 278.69294220 0 28590
0.16350000 0.16349900 8690.11917689 0 31.30701071 0 1840.71722792 0 104.50813419 0 279.97619368 0 29163
0.16450000 0.16449100 8789.82903745 0 24.31046185 0 1515.15732390 0 336.30949210 0 11.45864830 0 28996
0.16550000 0.16550500 8657.03413639 0 -1.89088271 0 1531.78302813 0 129.71154831 0 176.14595345 0 30777
0.16650000 0.16650700 8515.79883445 0 217.00703213 0 1623.06357901 0 -196.94194773 0 253.52701632 0 29211
0.16750000 0.16749900 8254.65660231 0 247.17286959 0 1903.80395616 0 -152.45626589 0 621.33328952 0 30922
0.16850000 0.16850800 8185.25898300 0 76.96481025 0 2118.80680900 0 -46.44527452 0 459.11898855 0 30867
0.16950000 0.16949900 8011.69284196 0 94.96870661 0 2500.01124811 0 141.88524608 0 953.47470981 0 30852
0.17050000 0.17049200 8038.85518328 0 41.71210622 0 2135.76524914 0 107.04291634 0 832.33665674 0 31257
0.17150000 0.17149500 8014.85383309 0 -58.76093961 0 2204.24229910 0 191.24550898 0 971.01765602 0 32608
0.17250000 0.17250900 8122.13898117 0 10.29645723 0 2003.34744877 0 267.71709370 0 1465.02511369 0 32361
0.17350000 0.17350400 8141.91458533 0 19.50575534 0 1900.28804673 0 272.09811649 0 1323.25743430 0 32508
0.17450000 0.17449800 8138.02157520 0 -64.56585027 0 1827.46324757 0 67.15509019 0 1360.05802578 0 32791
0.17550000 0.17549800 8155.44584560 0 87.19144839 0 1514.10366019 0 43.58884765 0 1036.35700636 0 33633
0.17650000 0.17650100 8004.76084387 0 158.88139628 0 1883.05232667 0 -267.17473417 0 1330.55544189 0 33984
0.17750000 0.17750300 7792.12041597 0 223.70278773 0 1776.86520709 0 -346.92265846 0 457.63942288 0 34069
0.17850000 0.17849800 7631.60861374 0 100.13132605 0 2098.83156330 0 -40.38293718 0 837.84454514 0 34536
