### header ###
fiducial parameters:
Omega_m = 0.31
Omega_nu = 0
Omega_de = 0.69
Omega_k = 0
H_0 = 100
w_de = -1
zeff = 0
beta = 0
fgrowth = 0
b_1 = 2
gamma = 0.55
Lx = 3500 Ly = 3500 Lz = 3500
nx = 700 ny = 700 nz = 700
xoffset = 1379.75464 yoffset = 22.6059522 zoffset = 368.141391
bins = 400 dk = 0.001
kx_ny = 0.628318531 ky_ny = 0.628318531 kz_ny = 0.628318531
############################
A(data) = 3.34296527 (not used)
A(ran) = 3.34495698 (used)
Ngal = 188185
weighted Ngal = 0
Nran = 9399747
weighted Nran = 0
SN(data) = 6640.5445
SN(ran) = 133.046945
SN(data+ran) = 6773.59145
############################
13 columns: k_central k_mean P_0(k) sigma^{lin}_{P_0(k)} P^img_1(k) sigma^{lin}_{P_1(k)} P_2(k) sigma^{lin}_{P_2(k)} P^img_3(k) sigma^{lin}_{P_3(k)} P_4(k) sigma^{lin}_{P_4(k)} N_modes
### header ###
0.00050000 0 0 0 0 0 0 0 0 0 0 0 0
0.00150000 0.00179520 22999.70419956 0 -28237.74378230 0 -49597.17086518 0 51760.50882993 0 49678.13660291 0 3
0.00250000 0.00253879 33998.06782933 0 -15663.09924225 0 1123.82662198 0 -60908.86080874 0 -46978.65017768 0 6
0.00350000 0.00331552 53460.56749816 0 -9337.91162584 0 -43536.94085268 0 10137.95293531 0 39565.51596142 0 7
0.00450000 0.00420575 60259.13849151 0 -8184.66005837 0 -7761.55307718 0 -38744.43465135 0 -1461.53138666 0 24
0.00550000 0.00557378 63971.91666993 0 2962.82471437 0 3625.35736407 0 -29665.29174150 0 9404.23698359 0 45
0.00650000 0.00659388 82101.25446558 0 -2295.38975562 0 3465.52212485 0 502.13730504 0 -54148.88718076 0 40
0.00750000 0.00754703 63689.75661956 0 5491.16287949 0 25402.05745854 0 -23205.22407901 0 -2841.53138454 0 57
0.00850000 0.00846663 71303.30876467 0 1581.41613447 0 17443.34726441 0 -5680.92216808 0 -36473.29025226 0 75
0.00950000 0.00948925 58967.34678295 0 7666.46824575 0 32434.87453144 0 -21163.33472084 0 -20768.48810949 0 112
0.01050000 0.01054430 62913.70556910 0 3263.38506047 0 53481.30803645 0 -6631.22701380 0 -59673.74511658 0 105
0.01150000 0.01145670 59592.44664295 0 2779.94196789 0 48554.93108796 0 923.05266570 0 -30374.90652225 0 144
0.01250000 0.01249090 64210.82105219 0 -6808.59743539 0 47201.13958846 0 12558.45139250 0 -39593.90942561 0 169
0.01350000 0.01339930 68190.67525312 0 -1037.99628527 0 43892.74645077 0 -3151.36397129 0 -34842.10791709 0 180
0.01450000 0.01448870 75790.69613795 0 2893.47145985 0 36907.06696491 0 -489.17391404 0 -34819.37096334 0 267
0.01550000 0.01550050 69848.80919688 0 2354.59456493 0 53337.34430006 0 -3297.91195657 0 -28311.16750609 0 238
0.01650000 0.01653350 70670.22324287 0 -129.95333640 0 48971.51644533 0 2642.84368241 0 -1222.76009875 0 315
0.01750000 0.01747870 70926.54080434 0 -2085.87704526 0 59070.93856245 0 16349.86615728 0 -6332.54107998 0 297
0.01850000 0.01844180 75919.46493452 0 2502.60658820 0 43945.42963628 0 14844.45799550 0 -2018.33165585 0 388
0.01950000 0.01947590 72077.80704757 0 2409.17434511 0 52240.86856976 0 4584.63498812 0 12746.55809274 0 399
0.02050000 0.02045430 68105.16212465 0 3013.48930203 0 48081.78062615 0 9059.57803843 0 30786.61175297 0 462
0.02150000 0.02154770 68035.39849585 0 2208.30167718 0 52332.81459246 0 9433.90593543 0 28763.02286976 0 571
0.02250000 0.02255340 64454.38373718 0 1434.39122772 0 39264.05722837 0 10843.99635064 0 39710.47790554 0 510
0.02350000 0.02348930 64249.19659363 0 44.78270409 0 39963.46810793 0 18467.50839061 0 40128.28329458 0 555
0.02450000 0.02439640 63557.99319982 0 -1562.05090460 0 36427.26178493 0 10517.91516036 0 35624.03730194 0 592
0.02550000 0.02547300 65104.54970228 0 -858.48415355 0 20394.27112445 0 9408.04126415 0 37901.61459525 0 837
0.02650000 0.02652900 64249.97297742 0 -1033.26810801 0 16780.87007069 0 10764.42810373 0 31652.50149872 0 723
0.02750000 0.02749970 69407.04682243 0 -3348.08853156 0 9965.59573474 0 1738.34548009 0 27352.22261795 0 826
0.02850000 0.02848090 66534.20498891 0 -404.87194428 0 7911.97189020 0 -1248.24766934 0 12119.90546517 0 831
0.02950000 0.02946900 71325.26933463 0 2166.62095905 0 5192.75422560 0 -9235.24041569 0 11417.49996244 0 996
0.03050000 0.03053250 66138.13834589 0 247.51115110 0 12239.69039221 0 -5825.34064354 0 -2353.58526600 0 1041
0.03150000 0.03150510 66702.68027055 0 2998.76019248 0 12961.39457763 0 1608.19028390 0 -6711.84892441 0 1036
0.03250000 0.03246190 63781.92446620 0 1055.53701325 0 16183.83093897 0 -5144.88461957 0 -3102.40742796 0 1059
0.03350000 0.03345080 64099.57634680 0 1605.94986212 0 10016.85924703 0 7056.58550796 0 -7246.11188141 0 1302
0.03450000 0.03451200 59575.92075950 0 345.79801109 0 13516.61989686 0 4958.51923725 0 224.05216043 0 1339
0.03550000 0.03553350 58853.55110226 0 2952.17716530 0 11883.10841033 0 -3218.47680403 0 -2367.44926219 0 1365
0.03650000 0.03647120 51698.50903899 0 4119.01544904 0 13834.71542533 0 -2992.90404049 0 2654.94417828 0 1308
0.03750000 0.03744890 49754.77677382 0 3104.86967369 0 18039.38818841 0 67.66151425 0 1797.65011017 0 1579
0.03850000 0.03847530 46486.64468105 0 -472.44506169 0 18647.29669314 0 1585.14277664 0 4128.46514884 0 1662
0.03950000 0.03950240 48237.39011933 0 110.95855251 0 16745.82188833 0 4775.23720768 0 2524.12351028 0 1683
0.04050000 0.04050350 45824.27839931 0 468.66740000 0 13941.41273998 0 1805.44722163 0 2401.49923682 0 1822
0.04150000 0.04152450 46940.94010805 0 764.49735061 0 14106.89339844 0 -395.19487494 0 9950.02369422 0 1887
0.04250000 0.04250150 45884.61451071 0 458.52560952 0 13533.03486834 0 -21.75649193 0 735.01584000 0 1920
0.04350000 0.04349210 45041.12898279 0 1029.00687015 0 16279.99161651 0 1430.28748485 0 8024.04843536 0 2005
0.04450000 0.04448520 43562.89425353 0 1297.50367499 0 15656.55543605 0 617.57891935 0 3295.89335872 0 2151
0.04550000 0.04548030 43463.73895282 0 199.98869953 0 14097.02223316 0 2801.11506286 0 6325.99727378 0 2274
0.04650000 0.04648670 41518.45392007 0 810.13097133 0 16737.72531456 0 134.53954634 0 2660.07940247 0 2311
0.04750000 0.04749250 40528.12094456 0 1398.89939749 0 12678.56905545 0 -489.38242854 0 3447.80948332 0 2568
0.04850000 0.04851840 38230.46858477 0 868.43517545 0 14049.99555810 0 1849.96728618 0 4566.16814520 0 2493
0.04950000 0.04949480 38153.38476598 0 555.59021961 0 13996.20325290 0 1340.37115119 0 2190.54467086 0 2644
0.05050000 0.05050630 36748.13011264 0 588.51111039 0 10942.10907884 0 2184.91034282 0 4512.91930866 0 2829
0.05150000 0.05149060 36470.62836499 0 261.72230175 0 11795.48795443 0 1220.35330902 0 3357.83769368 0 2784
0.05250000 0.05249300 35795.95085463 0 154.29185899 0 9265.91866645 0 1542.08675009 0 4829.22915442 0 3055
0.05350000 0.05348950 35512.68168457 0 356.53539886 0 8959.25816203 0 585.43663060 0 3180.98855834 0 3009
0.05450000 0.05448610 35762.34452788 0 -185.01225629 0 10426.47933272 0 917.55586849 0 7552.60601788 0 3336
0.05550000 0.05550870 35491.94114628 0 -400.01400001 0 7312.68124549 0 824.80573401 0 4740.83231475 0 3349
0.05650000 0.05647670 36780.07275985 0 -81.92778815 0 12356.03704820 0 744.85594993 0 7528.75994444 0 3324
0.05750000 0.05747970 35962.87336870 0 655.46755725 0 6144.06837024 0 -435.67885292 0 5254.47673661 0 3639
0.05850000 0.05849280 36152.20010061 0 1011.17666193 0 13509.85426672 0 -1545.12573805 0 6946.10609516 0 3846
0.05950000 0.05951020 34420.30969714 0 1082.36218218 0 11712.74762520 0 -2742.49808699 0 3497.28731291 0 3787
0.06050000 0.06049470 33677.97588540 0 1039.98160953 0 15034.56111119 0 -965.64951670 0 1471.70201426 0 3930
0.06150000 0.06148310 32010.96898408 0 888.80637688 0 15145.91672855 0 344.89186030 0 2545.92880348 0 4083
0.06250000 0.06249100 31622.88800286 0 612.61006312 0 15929.73161688 0 215.04056291 0 2501.79693082 0 4303
0.06350000 0.06350600 31111.14017567 0 520.11724441 0 15807.50662652 0 308.28425565 0 1287.74342167 0 4470
0.06450000 0.06451750 30026.64293808 0 -253.77767737 0 12797.24486280 0 2977.67582708 0 1223.08174347 0 4479
0.06550000 0.06550280 30220.84979664 0 -254.31670954 0 12879.20880825 0 2984.82964911 0 2570.78417584 0 4636
0.06650000 0.06648880 30699.43494495 0 84.94958475 0 11108.38830349 0 1252.50668897 0 4075.71541615 0 4653
0.06750000 0.06749660 30109.93782716 0 409.91400241 0 10381.83726501 0 1100.31439357 0 3325.93941126 0 5220
0.06850000 0.06852730 29598.85547178 0 104.66806925 0 9217.86051008 0 856.19049402 0 4326.67592950 0 5029
0.06950000 0.06949320 28771.56309141 0 458.92932908 0 10690.56073206 0 435.96944228 0 5049.95506489 0 5040
0.07050000 0.07048030 28899.22276829 0 526.69432420 0 8290.88045154 0 835.86254825 0 5874.48573722 0 5475
0.07150000 0.07148790 28153.89433337 0 212.35649325 0 9852.56534664 0 -258.60345716 0 5645.35269946 0 5509
0.07250000 0.07249820 27849.99553699 0 552.27727908 0 9243.17062151 0 896.21751468 0 4954.45985916 0 5916
0.07350000 0.07351270 26961.92339734 0 582.49746340 0 8384.31269463 0 -327.96225728 0 4621.91250107 0 5721
0.07450000 0.07449140 27093.35408118 0 -161.71519710 0 10392.19644295 0 821.97082407 0 4774.95992775 0 6028
0.07550000 0.07549160 26122.65252427 0 387.75933651 0 6946.20591593 0 258.47701752 0 4064.35803048 0 6183
0.07650000 0.07648840 26139.51114363 0 741.50308109 0 9103.80973186 0 -147.28554987 0 2571.33873569 0 6330
0.07750000 0.07749960 24927.24331719 0 493.65919409 0 7281.45952608 0 -850.20457502 0 2191.87561450 0 6583
0.07850000 0.07848650 24540.93692748 0 549.38247668 0 10818.43114167 0 -451.06567045 0 651.60671159 0 6549
0.07950000 0.07947320 23468.75091850 0 557.78405836 0 8253.73603296 0 -879.62064757 0 -532.49280196 0 6828
0.08050000 0.08048110 23245.59603590 0 209.86873777 0 8809.53809443 0 70.02626835 0 -1642.24025853 0 7147
0.08150000 0.08149960 22834.77810094 0 -79.34298470 0 9272.71757018 0 -176.29013901 0 -2177.42378488 0 7386
0.08250000 0.08250610 22983.95469989 0 214.77991978 0 8085.59348722 0 509.90779762 0 -4596.36947449 0 7227
0.08350000 0.08350160 22839.43640366 0 329.62482770 0 8393.96203598 0 -488.81234102 0 -5088.21969436 0 7798
0.08450000 0.08449610 22059.83617017 0 257.64185039 0 8206.55408114 0 -404.24529165 0 -4625.35077212 0 7371
0.08550000 0.08548940 22451.68815835 0 -175.19876523 0 8002.68679004 0 902.38200195 0 -5071.20579824 0 8256
0.08650000 0.08650700 22825.01784763 0 -183.06020563 0 7140.08003858 0 553.21559434 0 -4905.83605174 0 8037
0.08750000 0.08749060 22357.74572020 0 63.98888620 0 6277.78384065 0 863.39200819 0 -4474.36630806 0 8155
0.08850000 0.08849210 22345.43449158 0 233.26672686 0 6794.67798322 0 527.85668164 0 -2544.74204541 0 8718
0.08950000 0.08949900 21737.52598685 0 571.16004188 0 7752.68011963 0 -445.37144993 0 -4078.74331292 0 8571
0.09050000 0.09049190 21516.14569577 0 548.63493000 0 7023.88865936 0 -0.09519841 0 -2275.19268597 0 8932
0.09150000 0.09150830 20549.65879370 0 290.04034579 0 7121.03645342 0 384.24897267 0 -2531.61006822 0 9285
0.09250000 0.09250820 19831.94743918 0 567.98463220 0 7073.22230338 0 -325.13732942 0 -2276.41271764 0 9204
0.09350000 0.09350330 19572.08069468 0 670.06579067 0 7329.56204725 0 -178.68140108 0 -2539.47372686 0 9349
0.09450000 0.09448040 18369.24038565 0 342.86549862 0 6508.24782204 0 356.12502457 0 -3558.99873273 0 9564
0.09550000 0.09549270 18172.03890391 0 181.64164154 0 6156.69015237 0 946.40518087 0 -2244.12624332 0 10155
0.09650000 0.09649430 17936.24005679 0 -104.48772639 0 5759.81385197 0 930.56362427 0 -2432.54349708 0 9913
0.09750000 0.09749140 17553.15011420 0 245.70994071 0 4298.59301883 0 647.69262819 0 -2991.12944898 0 10476
0.09850000 0.09850240 17225.18342044 0 252.19163621 0 4316.02838043 0 189.23467497 0 -2170.71361072 0 10575
0.09950000 0.09950330 16974.96601729 0 223.65287734 0 4314.27597131 0 -62.19799063 0 -1971.57116952 0 10882
0.10050000 0.10051200 16792.73765143 0 220.42201167 0 4365.60603079 0 54.30815677 0 -1879.34786689 0 10875
0.10150000 0.10150300 16827.89674575 0 14.93385304 0 4321.19687821 0 8.77046381 0 -2462.42318166 0 11118
0.10250000 0.10250800 16655.98319305 0 200.29592569 0 4770.22398666 0 -308.31531101 0 -1450.11854500 0 11575
0.10350000 0.10349800 16371.82672724 0 226.87265182 0 4918.28037472 0 219.29403694 0 -664.83074571 0 11364
0.10450000 0.10450100 16334.22756959 0 -33.16412073 0 4635.73213246 0 449.31326133 0 -951.36849151 0 12093
0.10550000 0.10551000 16561.04254718 0 50.29170162 0 5275.25054850 0 661.56660645 0 20.91145364 0 12067
0.10650000 0.10649700 16164.97590416 0 255.83509441 0 4911.44819740 0 267.88346165 0 779.55919606 0 12054
0.10750000 0.10749900 15642.02596805 0 534.58127435 0 5456.22560910 0 -461.71432864 0 900.36451322 0 12807
0.10850000 0.10850100 15605.86866600 0 149.53928109 0 5657.58628970 0 -71.76603350 0 1701.38961186 0 12736
0.10950000 0.10950300 15041.32674133 0 -18.81588289 0 5424.14986753 0 864.95697608 0 1255.01329948 0 12933
0.11050000 0.11050200 15208.36016737 0 317.06182892 0 5363.94685049 0 -223.08722630 0 1467.93100729 0 13428
0.11150000 0.11150900 14656.46220723 0 338.93366930 0 5903.72213237 0 -318.22418636 0 409.46924541 0 13453
0.11250000 0.11250000 14314.74242925 0 465.43209785 0 6119.41263942 0 -320.87387331 0 667.14215115 0 13668
0.11350000 0.11349100 13874.08917450 0 -89.25141640 0 5483.14394410 0 514.25443770 0 1164.05439331 0 13791
0.11450000 0.11448600 14040.12439282 0 -196.55597408 0 5686.53431373 0 728.05500479 0 472.74230576 0 14205
0.11550000 0.11549300 14179.31891452 0 -27.18518919 0 4681.82714698 0 756.44070514 0 1252.66196573 0 14776
0.11650000 0.11649800 14182.86809754 0 -15.59644115 0 4436.76715041 0 230.94533933 0 449.35318964 0 14553
0.11750000 0.11747300 14339.80853436 0 -141.53809162 0 4261.75915376 0 -8.27251343 0 947.14496371 0 14568
0.11850000 0.11849100 14232.22392396 0 162.66682180 0 3908.17179505 0 281.50677886 0 703.04102832 0 16015
0.11950000 0.11950300 14047.22275886 0 273.62315607 0 3820.45151839 0 -521.04890495 0 74.40429652 0 15270
0.12050000 0.12050700 13866.65807255 0 271.70105164 0 4363.39888260 0 -43.31788971 0 972.74677363 0 15999
0.12150000 0.12150000 13454.62010592 0 292.33067796 0 4579.63285830 0 -225.63709248 0 -157.98744581 0 15670
0.12250000 0.12250700 13200.07713596 0 5.21853017 0 4793.78168898 0 148.01424151 0 1058.87768177 0 16887
0.12350000 0.12352200 13389.62569180 0 -90.01848358 0 4193.51501894 0 309.61630841 0 -69.76884167 0 16407
0.12450000 0.12449800 13473.91878861 0 -78.03255978 0 4534.12567722 0 448.34056336 0 730.24107971 0 16306
0.12550000 0.12549900 13533.92216410 0 78.16532140 0 4462.36563297 0 -182.68421405 0 152.97533391 0 17523
0.12650000 0.12650100 13613.00239834 0 199.34762835 0 4495.19557593 0 -205.76499490 0 598.90578017 0 17154
0.12750000 0.12750600 13068.75736409 0 157.94862662 0 5035.54760005 0 -345.34549026 0 247.07193970 0 18007
0.12850000 0.12850300 13205.40091049 0 291.17941172 0 5080.91059557 0 -249.73160873 0 191.32314736 0 17496
0.12950000 0.12949900 12665.59235502 0 209.73897077 0 5410.47442169 0 427.54456908 0 728.55299954 0 18405
0.13050000 0.13049000 12561.33510371 0 157.98522757 0 4885.74989407 0 308.14450657 0 499.68282315 0 18100
0.13150000 0.13148800 12237.47215282 0 161.83941851 0 4717.81808108 0 555.10442518 0 1598.07511228 0 19059
0.13250000 0.13249300 12090.29196932 0 91.62415617 0 4506.35332006 0 570.46018736 0 1129.93787149 0 18957
0.13350000 0.13349100 11989.36207709 0 8.96892969 0 3662.51287385 0 313.58030220 0 1483.59177739 0 19468
0.13450000 0.13450700 11984.14921452 0 -65.41166495 0 3517.58420333 0 775.80482589 0 1565.69990839 0 19953
0.13550000 0.13551000 11791.82785944 0 61.61880833 0 2459.82784157 0 202.48643709 0 1412.38629298 0 19956
0.13650000 0.13649900 11687.79243207 0 124.71274584 0 2767.67510407 0 189.18365547 0 1352.06127278 0 19723
0.13750000 0.13749600 11657.84620031 0 69.02451144 0 2204.09811354 0 -232.26962825 0 446.09348686 0 20946
0.13850000 0.13851100 11243.81181823 0 182.29934952 0 2539.79537157 0 -217.58488349 0 679.18275456 0 20955
0.13950000 0.13949800 11295.38588404 0 108.59634938 0 2210.03190390 0 -249.85583013 0 -103.83412215 0 20506
0.14050000 0.14048300 11219.07844904 0 37.74445233 0 2510.43697325 0 -28.86117996 0 -134.38094222 0 21447
0.14150000 0.14148400 11259.45040593 0 28.93049994 0 2475.81025637 0 74.57232815 0 -696.82219419 0 21771
0.14250000 0.14249400 11245.69732171 0 -40.67530113 0 2310.28523312 0 168.77141660 0 -314.46094324 0 22470
0.14350000 0.14350900 11144.32378160 0 143.54005266 0 2270.88930156 0 117.94267923 0 -760.93042167 0 22519
0.14450000 0.14449900 11103.95182471 0 134.22344723 0 2030.04395983 0 -0.86569010 0 -436.42418136 0 22218
0.14550000 0.14550500 10824.36493204 0 142.25125558 0 1974.13323601 0 213.02861978 0 -440.18520624 0 23559
0.14650000 0.14650700 10501.38927691 0 231.18712743 0 2203.08881461 0 288.74378487 0 -79.32191142 0 23044
0.14750000 0.14750500 10167.75498151 0 327.33227729 0 1913.25365596 0 -140.95136730 0 23.36560279 0 23649
0.14850000 0.14849900 9960.42723696 0 295.73789367 0 2536.44583009 0 -55.28717672 0 139.52282113 0 23640
0.14950000 0.14949500 9326.75388171 0 214.43054708 0 2292.80550673 0 -156.09750585 0 149.98625633 0 24457
0.15050000 0.15050000 9310.93783487 0 97.60774601 0 2528.39362110 0 76.66501519 0 43.59062225 0 24591
0.15150000 0.15149900 9290.55221488 0 -99.23671010 0 2227.58926867 0 199.49403215 0 385.86717831 0 25020
0.15250000 0.15250500 9425.74281448 0 -93.23781441 0 2195.09206161 0 167.67227898 0 -48.57933172 0 25297
0.15350000 0.15350100 9548.66655025 0 45.58038298 0 1864.92931086 0 17.21198490 0 -107.24133785 0 25452
0.15450000 0.15450400 9467.27934705 0 179.15499518 0 2441.71591695 0 -221.04200958 0 271.47257298 0 26061
0.15550000 0.15549900 9129.87404469 0 218.75056829 0 2542.50162362 0 -328.78522409 0 243.22883995 0 26128
0.15650000 0.15649500 9210.46268171 0 -12.46406531 0 2891.02030533 0 448.80417539 0 980.28324195 0 26331
0.15750000 0.15749700 9064.46925628 0 -67.22108282 0 2559.10514545 0 415.97423242 0 908.20044387 0 27345
0.15850000 0.15849900 9411.92318308 0 -77.07294942 0 2076.15006554 0 468.44779431 0 1245.37504933 0 26980
0.15950000 0.15949700 9361.04786268 0 -92.23483747 0 2228.52092922 0 217.77121560 0 1356.81939627 0 27777
0.16050000 0.16050000 9383.47426291 0 165.56384244 0 2137.46220227 0 -214.62907950 0 1085.32020441 0 28224
0.16150000 0.16150500 9136.99459313 0 315.91610827 0 2076.27206871 0 -548.81682563 0 688.58698045 0 28075
0.16250000 0.16249700 8768.86667522 0 191.54164394 0 2482.65352489 0 -367.87947510 0 302.42366719 0 28590
0.16350000 0.16349900 8558.00083884 0 55.08797883 0 2489.25278707 0 154.07003505 0 107.68609485 0 29163
0.16450000 0.16449100 8612.73589578 0 -19.36678264 0 2244.09296973 0 432.16516173 0 -107.27594239 0 28996
0.16550000 0.16550500 8565.18793446 0 32.63207601 0 1734.37483158 0 455.73284612 0 115.95624585 0 30777
0.16650000 0.16650700 8474.50630821 0 88.20163461 0 1744.58982397 0 74.37313026 0 172.30950843 0 29211
0.16750000 0.16749900 8408.32513602 0 35.89044785 0 1234.17294041 0 206.25300757 0 419.02320246 0 30922
0.16850000 0.16850800 8273.45618113 0 46.73364564 0 1780.27020455 0 -108.75506441 0 427.35490961 0 30867
0.16950000 0.16949900 8207.92938956 0 242.09531963 0 1579.35317184 0 -351.87709614 0 861.68507298 0 30852
0.17050000 0.17049200 8266.90128374 0 47.91108711 0 1982.95073758 0 -128.83645287 0 314.50419890 0 31257
0.17150000 0.17149500 8099.02492673 0 44.92555871 0 2120.41503256 0 13.98843942 0 297.23964173 0 32608
0.17250000 0.17250900 8070.79783049 0 48.58265908 0 2344.40175493 0 -99.98902599 0 563.09008698 0 32361
0.17350000 0.17350400 8131.30030985 0 89.69240239 0 2441.23899549 0 -169.15739026 0 315.95381834 0 32508
0.17450000 0.17449800 7917.65058303 0 153.33690693 0 2713.33933022 0 -90.71512166 0 479.14192640 0 32791
0.17550000 0.17549800 7913.74648171 0 72.91508151 0 2786.72978042 0 -161.66861408 0 180.87080335 0 33633
0.17650000 0.17650100 7818.05163444 0 -9.86484330 0 2774.21891027 0 342.21666360 0 672.75762417 0 33984
0.17750000 0.17750300 7964.10051585 0 -59.47066530 0 3008.77554333 0 213.85380484 0 560.84633784 0 34069
0.17850000 0.17849800 8063.10053981 0 -73.71131853 0 2063.56155700 0 305.08999093 0 791.61643626 0 34536
