### header ###
fiducial parameters:
Omega_m = 0.31
Omega_nu = 0
Omega_de = 0.69
Omega_k = 0
H_0 = 100
w_de = -1
zeff = 0
beta = 0
fgrowth = 0
b_1 = 2
gamma = 0.55
Lx = 3500 Ly = 3500 Lz = 3500
nx = 700 ny = 700 nz = 700
xoffset = 1379.75464 yoffset = 22.6059522 zoffset = 368.141391
bins = 400 dk = 0.001
kx_ny = 0.628318531 ky_ny = 0.628318531 kz_ny = 0.628318531
############################
A(data) = 3.32534041 (not used)
A(ran) = 3.328157 (used)
Ngal = 186587
weighted Ngal = 0
Nran = 9399747
weighted Nran = 0
SN(data) = 6650.89891
SN(ran) = 132.378719
SN(data+ran) = 6783.27763
############################
13 columns: k_central k_mean P_0(k) sigma^{lin}_{P_0(k)} P^img_1(k) sigma^{lin}_{P_1(k)} P_2(k) sigma^{lin}_{P_2(k)} P^img_3(k) sigma^{lin}_{P_3(k)} P_4(k) sigma^{lin}_{P_4(k)} N_modes
### header ###
0.00050000 0 0 0 0 0 0 0 0 0 0 0 0
0.00150000 0.00179520 21434.73631017 0 -27708.69368787 0 -38116.78381605 0 27748.73290885 0 21065.95401164 0 3
0.00250000 0.00253879 26839.03293516 0 -16992.60102043 0 -1945.76195422 0 -45564.96621466 0 -3617.37170227 0 6
0.00350000 0.00331552 37758.42724265 0 -2091.73319725 0 -31791.58510845 0 -4276.41062493 0 -9775.49261904 0 7
0.00450000 0.00420575 51309.87349793 0 -10256.26273316 0 -11072.54155496 0 -19612.00900369 0 823.48920893 0 24
0.00550000 0.00557378 78505.82115088 0 -17404.08442721 0 -26936.85729224 0 2521.77217653 0 4110.31995063 0 45
0.00650000 0.00659388 84009.49490053 0 -12115.80172230 0 -792.19650586 0 -4719.59267259 0 -10705.14565605 0 40
0.00750000 0.00754703 108968.68086493 0 -13859.67061847 0 -30176.92865672 0 -2701.42738469 0 -2746.40218832 0 57
0.00850000 0.00846663 112543.48455331 0 42.57222854 0 -21390.48243434 0 -16955.33459869 0 -10086.58960224 0 75
0.00950000 0.00948925 116883.46991915 0 8083.66361895 0 -9819.56903571 0 -27838.01704428 0 -7373.67173751 0 112
0.01050000 0.01054430 102807.85369610 0 8838.78558078 0 22160.76606240 0 -28940.81475684 0 -9761.83935560 0 105
0.01150000 0.01145670 86355.50487901 0 12723.71022703 0 30710.30431796 0 -5040.72718903 0 -4455.41145248 0 144
0.01250000 0.01249090 85430.72087747 0 5954.74163833 0 42694.67535643 0 -3768.45598710 0 -11177.93010836 0 169
0.01350000 0.01339930 77564.73308982 0 2909.58696902 0 49747.67840777 0 14381.17869897 0 -570.42247729 0 180
0.01450000 0.01448870 75062.89179421 0 2622.01441454 0 36840.29795928 0 21366.08180106 0 5376.04734636 0 267
0.01550000 0.01550050 74348.72962272 0 -1511.82996482 0 43675.35899059 0 5293.28483474 0 3009.68502148 0 238
0.01650000 0.01653350 78007.71549593 0 1715.05396650 0 24846.27757947 0 21734.08771580 0 18643.74751011 0 315
0.01750000 0.01747870 74978.48778544 0 -1019.99527263 0 34271.24401016 0 572.02848260 0 16319.25445371 0 297
0.01850000 0.01844180 69823.52126784 0 5823.78787597 0 34508.15197697 0 -9615.92356855 0 21718.44912810 0 388
0.01950000 0.01947590 67672.60544367 0 7040.92473787 0 48354.06951123 0 -1262.43331024 0 24055.58614903 0 399
0.02050000 0.02045430 60536.75115112 0 -1159.46263777 0 45436.08650612 0 6331.64269303 0 21438.50731713 0 462
0.02150000 0.02154770 67762.33322698 0 -3195.68439430 0 42741.25838361 0 15489.85474592 0 12072.98970208 0 571
0.02250000 0.02255340 72732.85313933 0 -3105.92333740 0 29439.80770755 0 10466.75146884 0 14355.00347418 0 510
0.02350000 0.02348930 70053.10904467 0 977.39398515 0 35592.31647866 0 363.76464103 0 18274.85429962 0 555
0.02450000 0.02439640 71356.99015790 0 2805.14116736 0 34682.50559300 0 1062.87716739 0 15058.51809660 0 592
0.02550000 0.02547300 68390.53862213 0 3099.26861923 0 31012.42852283 0 -44.96016325 0 8859.68139583 0 837
0.02650000 0.02652900 61966.18461381 0 3484.92062831 0 33444.72801358 0 4295.90894917 0 9213.34639292 0 723
0.02750000 0.02749970 62403.84324539 0 -628.44274676 0 38836.71340996 0 1340.00514169 0 17650.75264734 0 826
0.02850000 0.02848090 61316.68412052 0 720.26122070 0 30915.04781363 0 9667.32017521 0 7636.94347947 0 831
0.02950000 0.02946900 61504.34717289 0 1126.92106592 0 19073.53139186 0 8475.64870150 0 15032.12104787 0 996
0.03050000 0.03053250 59888.24886556 0 848.16823126 0 25225.48560313 0 -295.10569544 0 14494.75255572 0 1041
0.03150000 0.03150510 57688.97542270 0 1585.90806923 0 24920.69951099 0 668.16586863 0 7380.18227012 0 1036
0.03250000 0.03246190 53136.14998742 0 2404.37185683 0 23626.13500320 0 -888.37936580 0 14390.05165653 0 1059
0.03350000 0.03345080 52542.99277463 0 790.66924804 0 17012.45426297 0 2927.46597850 0 117.12747625 0 1302
0.03450000 0.03451200 54529.86979594 0 -2165.30110661 0 20767.60081373 0 7391.30674066 0 12180.79613642 0 1339
0.03550000 0.03553350 53264.80787202 0 992.47801300 0 11935.12612401 0 2081.51820486 0 1332.57403974 0 1365
0.03650000 0.03647120 52310.29946266 0 1800.98856045 0 12854.91908693 0 -541.92697409 0 5255.04238766 0 1308
0.03750000 0.03744890 50886.52251041 0 1607.73554483 0 11225.62225524 0 3393.09660878 0 1673.16251562 0 1579
0.03850000 0.03847530 47590.66242528 0 309.74163893 0 12328.64179174 0 804.85156158 0 8125.84344095 0 1662
0.03950000 0.03950240 46419.32111558 0 707.11926143 0 9485.50218363 0 2744.79396476 0 1083.58110473 0 1683
0.04050000 0.04050350 46247.62938682 0 1784.25194426 0 9258.60956766 0 -1354.11314421 0 -374.60074045 0 1822
0.04150000 0.04152450 42613.48779477 0 2441.76028174 0 13735.33830068 0 -6023.36287385 0 878.61689425 0 1887
0.04250000 0.04250150 40716.00582086 0 1941.84676169 0 11725.50250169 0 -814.53306740 0 -5323.82999113 0 1920
0.04350000 0.04349210 39813.84786110 0 -303.42852963 0 16231.52308585 0 -515.40570394 0 -1338.67419806 0 2005
0.04450000 0.04448520 39207.60303591 0 -721.90493609 0 11820.22132363 0 4117.79541738 0 -5538.61102003 0 2151
0.04550000 0.04548030 41810.59604768 0 -619.24481713 0 11551.92526945 0 3004.02851103 0 -1017.98222038 0 2274
0.04650000 0.04648670 40983.63640322 0 373.31527072 0 8973.41052934 0 1068.57249702 0 -2718.07527131 0 2311
0.04750000 0.04749250 40078.04017240 0 1238.05485935 0 10511.41571895 0 -2094.28417255 0 -1364.63869012 0 2568
0.04850000 0.04851840 39034.13671564 0 975.02823284 0 13839.15190411 0 -1848.14832988 0 -2049.43137209 0 2493
0.04950000 0.04949480 37619.34363292 0 1714.39958588 0 14687.07391081 0 -2150.83818579 0 -3253.10352090 0 2644
0.05050000 0.05050630 36556.58514134 0 735.13007933 0 18191.44849857 0 -616.77369845 0 -428.43519219 0 2829
0.05150000 0.05149060 36028.42234267 0 -84.13970555 0 17627.46113375 0 965.25023361 0 -3121.31791876 0 2784
0.05250000 0.05249300 36883.55362738 0 -411.06748689 0 16846.64086859 0 793.17585856 0 -3909.71347143 0 3055
0.05350000 0.05348950 35876.47294448 0 82.67045469 0 17204.66470608 0 1296.62747043 0 -5814.41581455 0 3009
0.05450000 0.05448610 36759.22130959 0 774.45613635 0 16141.12983072 0 -654.05010228 0 -2724.86308385 0 3336
0.05550000 0.05550870 35480.40630146 0 767.80252730 0 15283.44757071 0 -219.38054828 0 -5292.53063334 0 3349
0.05650000 0.05647670 34780.99542190 0 549.37914932 0 16319.36536568 0 1406.86287690 0 -3839.76129228 0 3324
0.05750000 0.05747970 34286.21712604 0 367.19403913 0 15357.20403042 0 1788.87697338 0 -5702.61654931 0 3639
0.05850000 0.05849280 32895.38102873 0 -326.34626988 0 12246.78875826 0 3283.64867729 0 -2106.90595468 0 3846
0.05950000 0.05951020 33945.82829170 0 -90.77379410 0 11318.56648566 0 2926.82268908 0 -631.87214486 0 3787
0.06050000 0.06049470 32264.40283435 0 495.10770441 0 9004.01114172 0 -119.25920431 0 -175.67679582 0 3930
0.06150000 0.06148310 32816.18988252 0 890.62866054 0 10511.62645169 0 1253.67126465 0 1545.73575389 0 4083
0.06250000 0.06249100 31432.78488717 0 697.01407189 0 9762.95956649 0 -776.85516225 0 1520.63637519 0 4303
0.06350000 0.06350600 30270.64927094 0 705.97908639 0 9290.04201982 0 485.24097560 0 2113.81577038 0 4470
0.06450000 0.06451750 30336.86371672 0 -26.21848047 0 11446.44798647 0 867.33825607 0 4298.31573891 0 4479
0.06550000 0.06550280 29731.83892319 0 -400.15707646 0 9020.13774208 0 1565.66663480 0 1878.64912148 0 4636
0.06650000 0.06648880 30821.88175926 0 -43.14453430 0 9656.05151911 0 1509.65609021 0 3973.26602994 0 4653
0.06750000 0.06749660 30056.70008181 0 713.52997327 0 8369.98286817 0 -1862.17869402 0 1726.41135217 0 5220
0.06850000 0.06852730 29168.73885413 0 1168.84579039 0 11449.88625753 0 -1209.90540149 0 4623.79800455 0 5029
0.06950000 0.06949320 28404.44447243 0 539.27506890 0 11408.84882882 0 -992.40370198 0 -777.28882805 0 5040
0.07050000 0.07048030 28118.29159116 0 567.30696006 0 13423.23201856 0 187.92591373 0 2557.02000043 0 5475
0.07150000 0.07148790 27495.63179449 0 188.08673609 0 11942.44631400 0 534.75762438 0 -543.03942114 0 5509
0.07250000 0.07249820 27476.99858362 0 -15.62306002 0 12689.21660452 0 796.75166045 0 1273.81287831 0 5916
0.07350000 0.07351270 27481.21323846 0 177.90612641 0 11779.29480689 0 297.45592007 0 -271.76427146 0 5721
0.07450000 0.07449140 26921.21870454 0 845.07156908 0 11125.13601088 0 -430.56026553 0 -1693.90305392 0 6028
0.07550000 0.07549160 25159.71480523 0 1043.54410199 0 12650.95197505 0 -1464.50382744 0 -404.38614985 0 6183
0.07650000 0.07648840 24977.15370346 0 343.60971793 0 12844.49336180 0 692.09956253 0 -1023.84946356 0 6330
0.07750000 0.07749960 24457.19839053 0 -379.79031150 0 11798.48257761 0 1726.07861626 0 -1164.50913238 0 6583
0.07850000 0.07848650 24810.34210136 0 -216.51680122 0 9626.72639438 0 2059.22489900 0 -992.28502617 0 6549
0.07950000 0.07947320 24996.11965024 0 147.40089832 0 8345.22731658 0 864.87268299 0 -1161.63651237 0 6828
0.08050000 0.08048110 24365.47419176 0 106.85236958 0 7987.00383755 0 1248.00366301 0 -1291.08187195 0 7147
0.08150000 0.08149960 24189.56780817 0 254.20801581 0 6309.31611357 0 523.40578430 0 480.50503451 0 7386
0.08250000 0.08250610 23584.21027873 0 203.69315931 0 6542.53071180 0 1193.87862190 0 -723.57637947 0 7227
0.08350000 0.08350160 23416.06773300 0 191.85441569 0 5838.77208304 0 593.62969778 0 -105.16928044 0 7798
0.08450000 0.08449610 22681.94140699 0 419.72527523 0 5410.52987768 0 -848.61298826 0 594.96175053 0 7371
0.08550000 0.08548940 21935.94750026 0 942.38129462 0 6010.68563574 0 -381.37968002 0 -365.85533165 0 8256
0.08650000 0.08650700 21229.99281450 0 379.51968629 0 7166.73218485 0 -18.12711956 0 1501.92552594 0 8037
0.08750000 0.08749060 21145.47789376 0 -21.81383342 0 6395.84963216 0 641.23422420 0 -70.94572858 0 8155
0.08850000 0.08849210 20815.73660849 0 253.57581759 0 6527.25813360 0 1132.91031228 0 1335.86812523 0 8718
0.08950000 0.08949900 20268.71877500 0 503.67343581 0 6618.13940140 0 -969.68671239 0 1588.56995650 0 8571
0.09050000 0.09049190 20097.13795821 0 468.90696986 0 7112.56277896 0 342.72020394 0 2500.72108472 0 8932
0.09150000 0.09150830 19249.99233530 0 43.63964534 0 7565.94872781 0 553.01706192 0 2533.76176043 0 9285
0.09250000 0.09250820 19555.11116335 0 -207.19686843 0 5323.68580557 0 1305.98844065 0 2793.39558979 0 9204
0.09350000 0.09350330 19492.66772453 0 -3.59033136 0 5941.67620833 0 1726.28934901 0 3779.82446397 0 9349
0.09450000 0.09448040 19531.04326597 0 242.93714148 0 4361.48010553 0 -406.91050628 0 1922.62571738 0 9564
0.09550000 0.09549270 18706.08003696 0 947.47880874 0 5398.27410505 0 -843.75393488 0 2416.77181502 0 10155
0.09650000 0.09649430 17303.37635892 0 851.92371055 0 6016.27559900 0 -1239.29707340 0 1660.25236238 0 9913
0.09750000 0.09749140 16417.07881079 0 302.49354173 0 5996.65527160 0 -44.17668109 0 2343.91374226 0 10476
0.09850000 0.09850240 16479.41133764 0 27.69593881 0 6181.16842403 0 1085.25143899 0 474.81525047 0 10575
0.09950000 0.09950330 15938.27183853 0 387.83142929 0 5534.67364512 0 481.26699974 0 807.79183789 0 10882
0.10050000 0.10051200 15653.22807697 0 145.40004639 0 5356.44920136 0 183.52825414 0 933.55492009 0 10875
0.10150000 0.10150300 15545.86529051 0 -144.41958458 0 4798.01852621 0 299.59652109 0 1015.47560987 0 11118
0.10250000 0.10250800 15889.69239590 0 -234.63094408 0 4226.21186754 0 537.42062077 0 1225.35543884 0 11575
0.10350000 0.10349800 15900.22903300 0 -73.05261235 0 4333.56356281 0 -268.77963036 0 94.19531744 0 11364
0.10450000 0.10450100 16582.33764532 0 -167.43160001 0 3346.15866329 0 -56.23015029 0 -28.66187115 0 12093
0.10550000 0.10551000 16267.45856396 0 144.95861675 0 3901.88308638 0 -656.10197371 0 -1136.23767136 0 12067
0.10650000 0.10649700 16133.80964073 0 448.58235145 0 3988.96007363 0 -757.42449431 0 -1456.28525050 0 12054
0.10750000 0.10749900 15837.45285828 0 134.70147782 0 5102.02823456 0 -257.44553620 0 -2073.47708708 0 12807
0.10850000 0.10850100 15753.04884950 0 72.41997047 0 4477.93767348 0 634.93442434 0 -1458.38148672 0 12736
0.10950000 0.10950300 15552.74183261 0 7.64693665 0 4607.68249538 0 815.39928988 0 -1417.16659886 0 12933
0.11050000 0.11050200 15419.09290939 0 200.16283132 0 3978.39016293 0 533.80156320 0 -639.35204808 0 13428
0.11150000 0.11150900 15131.60908449 0 221.94150565 0 3591.68449014 0 346.23722249 0 -332.08929166 0 13453
0.11250000 0.11250000 14935.62763442 0 193.88743209 0 3748.22564386 0 -28.49639050 0 -69.71005832 0 13668
0.11350000 0.11349100 14567.17807180 0 210.73828761 0 3618.95774343 0 -156.78405094 0 233.21016175 0 13791
0.11450000 0.11448600 14315.51881304 0 273.18283555 0 4187.10430711 0 -642.21468601 0 -726.60760359 0 14205
0.11550000 0.11549300 14154.25280941 0 232.48590659 0 4813.39092518 0 -380.93603214 0 -305.86526560 0 14776
0.11650000 0.11649800 14056.76118824 0 64.15004129 0 4727.14577771 0 23.18525992 0 -1103.16150382 0 14553
0.11750000 0.11747300 13941.52365195 0 -19.30234278 0 4615.13577973 0 456.42493681 0 -162.96739324 0 14568
0.11850000 0.11849100 13956.38585586 0 -74.16273025 0 4184.88606772 0 692.51880977 0 -231.22594662 0 16015
0.11950000 0.11950300 14270.59946540 0 -2.95483905 0 4495.21775833 0 727.17769111 0 404.78099646 0 15270
0.12050000 0.12050700 14031.80599510 0 202.66722360 0 4001.85913568 0 176.40992394 0 898.97700448 0 15999
0.12150000 0.12150000 13732.34367750 0 37.22460793 0 3730.41318157 0 360.99295091 0 1172.08441990 0 15670
0.12250000 0.12250700 13713.59955466 0 110.88546152 0 3525.25931161 0 289.14306796 0 1806.74489167 0 16887
0.12350000 0.12352200 13387.74018832 0 206.32066387 0 3929.22288686 0 468.63856289 0 1807.54345785 0 16407
0.12450000 0.12449800 13394.17308255 0 137.38111100 0 3361.84161578 0 183.32750348 0 2313.23549151 0 16306
0.12550000 0.12549900 12982.80058774 0 329.38082137 0 3459.94325279 0 -23.84917897 0 2196.01263096 0 17523
0.12650000 0.12650100 12457.63241224 0 427.24399764 0 3920.17247015 0 -728.47536116 0 2870.83432688 0 17154
0.12750000 0.12750600 12280.50599698 0 36.95043354 0 4366.39350577 0 101.55388297 0 2181.87135485 0 18007
0.12850000 0.12850300 12409.38570552 0 -113.30988626 0 3918.68624976 0 309.97122671 0 1650.25919393 0 17496
0.12950000 0.12949900 12608.13995483 0 -41.12382913 0 4286.42597578 0 -53.42263560 0 1825.71083845 0 18405
0.13050000 0.13049000 12398.07268463 0 165.37307386 0 4270.51010816 0 -675.02022835 0 871.06489824 0 18100
0.13150000 0.13148800 12553.90400175 0 165.02702851 0 4569.44004830 0 -175.09450798 0 976.28486545 0 19059
0.13250000 0.13249300 12182.34890399 0 137.55413367 0 4648.37609698 0 -358.66712691 0 -304.88480379 0 18957
0.13350000 0.13349100 11871.57356550 0 282.31532712 0 4735.35326345 0 87.15606747 0 580.43450077 0 19468
0.13450000 0.13450700 11870.13170990 0 -10.52574555 0 4602.66927436 0 404.65788418 0 326.39950763 0 19953
0.13550000 0.13551000 11930.24599736 0 -273.43793308 0 3991.07849224 0 1078.17858270 0 400.51532212 0 19956
0.13650000 0.13649900 12037.16513594 0 -125.85070265 0 3172.84761978 0 881.63591806 0 254.46644070 0 19723
0.13750000 0.13749600 11903.51621271 0 264.43631764 0 2836.50707233 0 -321.90646375 0 342.90764517 0 20946
0.13850000 0.13851100 11768.64725782 0 255.43026572 0 2462.06826335 0 45.42810084 0 870.23416759 0 20955
0.13950000 0.13949800 11125.57965876 0 273.53775386 0 3093.35701125 0 100.95218553 0 439.48646083 0 20506
0.14050000 0.14048300 10882.70462799 0 341.62217544 0 2387.38014310 0 -80.66516628 0 737.06660231 0 21447
0.14150000 0.14148400 10477.46556509 0 154.55915683 0 2797.86534216 0 320.19065558 0 652.09250601 0 21771
0.14250000 0.14249400 10293.16314540 0 94.23690943 0 2684.86822765 0 140.56095716 0 790.38531340 0 22470
0.14350000 0.14350900 10276.27125245 0 67.48083865 0 2340.84148071 0 82.91069002 0 701.74557651 0 22519
0.14450000 0.14449900 10265.61261218 0 74.68845299 0 2433.34206326 0 98.42938188 0 968.52657319 0 22218
0.14550000 0.14550500 9980.51339463 0 154.44602662 0 2506.57723671 0 -328.01327679 0 371.52515153 0 23559
0.14650000 0.14650700 9951.92028890 0 96.37684497 0 2521.41725822 0 -192.61194444 0 129.88457098 0 23044
0.14750000 0.14750500 9835.70672727 0 -121.37429556 0 2447.22824184 0 198.93281758 0 97.53898059 0 23649
0.14850000 0.14849900 9912.04743587 0 38.06798255 0 2464.36414112 0 161.77176221 0 -251.14906370 0 23640
0.14950000 0.14949500 9988.87615713 0 123.09897669 0 2200.02764426 0 -167.34619779 0 -355.43071564 0 24457
0.15050000 0.15050000 9753.88696739 0 140.92253018 0 2431.52310696 0 -243.21220316 0 -645.31356644 0 24591
0.15150000 0.15149900 9717.36365584 0 97.84409941 0 2461.60243308 0 -30.80313764 0 -314.73711404 0 25020
0.15250000 0.15250500 9500.63057627 0 67.40619489 0 2465.99454707 0 -44.19065600 0 -691.30765106 0 25297
0.15350000 0.15350100 9687.31760330 0 -23.98116422 0 2612.50925876 0 193.71108206 0 -216.69093302 0 25452
0.15450000 0.15450400 9656.22897826 0 28.30584373 0 2612.06561088 0 356.73614952 0 -695.47572288 0 26061
0.15550000 0.15549900 9674.15235253 0 131.29980771 0 2609.43699721 0 -463.62866923 0 -126.30544173 0 26128
0.15650000 0.15649500 9368.42350865 0 193.10993919 0 3045.22121650 0 -196.31751334 0 -188.39728960 0 26331
0.15750000 0.15749700 9495.97227355 0 107.29269009 0 3305.52051768 0 -30.01643904 0 -109.89246666 0 27345
0.15850000 0.15849900 9273.47177158 0 -91.22198936 0 3367.28739348 0 125.14752077 0 -4.07873222 0 26980
0.15950000 0.15949700 9449.91053263 0 -32.90414307 0 3164.00793581 0 224.65552155 0 -196.13339947 0 27777
0.16050000 0.16050000 9495.25134575 0 -92.36072255 0 2604.26849943 0 370.01231227 0 164.32828310 0 28224
0.16150000 0.16150500 9461.63392780 0 89.26062210 0 2720.69279379 0 207.53514994 0 -454.51059622 0 28075
0.16250000 0.16249700 9589.54870221 0 101.99863997 0 2526.14210812 0 -267.75480377 0 -160.20457608 0 28590
0.16350000 0.16349900 9149.99347595 0 259.95325583 0 2703.16870261 0 -181.31334211 0 -238.71250456 0 29163
0.16450000 0.16449100 8944.42923171 0 240.53589734 0 2766.55489317 0 -353.11931020 0 -692.90700166 0 28996
0.16550000 0.16550500 8584.98572101 0 204.65698433 0 2783.13623261 0 -17.24259660 0 -1064.85140044 0 30777
0.16650000 0.16650700 8593.12665957 0 122.62427346 0 3061.74709995 0 114.76283306 0 -811.61386436 0 29211
0.16750000 0.16749900 8257.28521598 0 26.29046233 0 2616.72391360 0 231.79381590 0 -339.97069622 0 30922
0.16850000 0.16850800 8381.29588906 0 -64.53923139 0 2703.25743219 0 668.86350492 0 -403.35023206 0 30867
0.16950000 0.16949900 8439.03666037 0 -22.14246559 0 1906.92058250 0 253.78433209 0 -75.65782360 0 30852
0.17050000 0.17049200 8376.65976874 0 70.49830969 0 2079.44415103 0 56.89806217 0 -316.72022005 0 31257
0.17150000 0.17149500 8310.20131662 0 165.33536379 0 2105.51955506 0 -169.56776454 0 82.06753723 0 32608
0.17250000 0.17250900 8029.11711236 0 131.89318675 0 2434.25154141 0 -257.37011606 0 8.56482192 0 32361
0.17350000 0.17350400 8033.38722319 0 91.48729079 0 2334.78568718 0 70.21470778 0 -325.65307008 0 32508
0.17450000 0.17449800 7971.44288823 0 -57.01640524 0 2415.20795625 0 235.91641381 0 96.75095104 0 32791
0.17550000 0.17549800 8031.14680140 0 -48.23406276 0 2014.89338480 0 319.22572144 0 -284.71324390 0 33633
0.17650000 0.17650100 8195.85107609 0 -19.86078455 0 1965.60410556 0 134.50072715 0 107.84602991 0 33984
0.17750000 0.17750300 8043.67985396 0 94.79490755 0 1594.78102679 0 93.35183191 0 201.15327521 0 34069
0.17850000 0.17849800 7966.88440629 0 132.47325635 0 1869.84271111 0 91.75403408 0 407.82331179 0 34536
