### header ###
fiducial parameters:
Omega_m = 0.31
Omega_nu = 0
Omega_de = 0.69
Omega_k = 0
H_0 = 100
w_de = -1
zeff = 0
beta = 0
fgrowth = 0
b_1 = 2
gamma = 0.55
Lx = 3500 Ly = 3500 Lz = 3500
nx = 700 ny = 700 nz = 700
xoffset = 1379.75464 yoffset = 22.6059522 zoffset = 368.141391
bins = 400 dk = 0.001
kx_ny = 0.628318531 ky_ny = 0.628318531 kz_ny = 0.628318531
############################
A(data) = 3.35078077 (not used)
A(ran) = 3.35872554 (used)
Ngal = 188722
weighted Ngal = 0
Nran = 9399747
weighted Nran = 0
SN(data) = 6604.62377
SN(ran) = 133.594594
SN(data+ran) = 6738.21836
############################
13 columns: k_central k_mean P_0(k) sigma^{lin}_{P_0(k)} P^img_1(k) sigma^{lin}_{P_1(k)} P_2(k) sigma^{lin}_{P_2(k)} P^img_3(k) sigma^{lin}_{P_3(k)} P_4(k) sigma^{lin}_{P_4(k)} N_modes
### header ###
0.00050000 0 0 0 0 0 0 0 0 0 0 0 0
0.00150000 0.00179520 51008.96932472 0 -35659.08548429 0 -19634.08048562 0 22229.30965954 0 158449.94872200 0 3
0.00250000 0.00253879 65659.88593348 0 -27855.54113546 0 -19300.56819339 0 -21186.62623443 0 -84739.85021957 0 6
0.00350000 0.00331552 79089.10719839 0 -8140.78328324 0 -10266.82155265 0 -21793.20379553 0 65394.69541445 0 7
0.00450000 0.00420575 88855.57158311 0 -2210.65301093 0 -16129.15133801 0 -21898.68107851 0 2169.77085898 0 24
0.00550000 0.00557378 97547.74263143 0 -5795.41659417 0 -5673.54652211 0 -3374.23048277 0 15691.82544235 0 45
0.00650000 0.00659388 98895.21214867 0 3585.86161174 0 -53110.52932247 0 -8892.24515007 0 -39395.48791221 0 40
0.00750000 0.00754703 95384.40466668 0 12240.35586403 0 24658.61452711 0 -44642.62227644 0 -1647.91895137 0 57
0.00850000 0.00846663 71515.59427426 0 21170.32217492 0 33306.86443551 0 -16856.84476979 0 -8185.69153968 0 75
0.00950000 0.00948925 63892.94734766 0 9455.42285751 0 60131.92246251 0 7997.88430176 0 11603.16659935 0 112
0.01050000 0.01054430 54478.62846604 0 -4718.19518177 0 39630.95402342 0 36904.51598961 0 6176.08865583 0 105
0.01150000 0.01145670 65405.34296352 0 -12151.73720041 0 34279.45149590 0 37960.95249893 0 12836.72952393 0 144
0.01250000 0.01249090 75734.68559337 0 -6117.33858560 0 14500.85271405 0 15665.87204149 0 15363.52601268 0 169
0.01350000 0.01339930 90333.91722434 0 -3925.74025102 0 -3099.90081745 0 1087.44084127 0 14433.19641266 0 180
0.01450000 0.01448870 86649.53251011 0 1417.56588195 0 13556.77002981 0 -10005.37985819 0 26411.80002871 0 267
0.01550000 0.01550050 89158.13943586 0 5356.30501580 0 27460.47270017 0 -20560.41725474 0 -19369.99908628 0 238
0.01650000 0.01653350 79238.17288537 0 8022.66203574 0 44614.22881226 0 -21409.78111703 0 4452.05081980 0 315
0.01750000 0.01747870 75824.08064077 0 9389.66315080 0 65541.98650992 0 -10242.09927465 0 -1513.74874189 0 297
0.01850000 0.01844180 67943.00882527 0 1609.97596661 0 64434.41958267 0 10890.71247219 0 -4617.47602229 0 388
0.01950000 0.01947590 77711.80236136 0 -2158.11401099 0 71346.89716868 0 29227.74402190 0 14480.44491166 0 399
0.02050000 0.02045430 75021.63254156 0 -2823.59691908 0 60490.38994788 0 17631.34305268 0 34306.07036858 0 462
0.02150000 0.02154770 81058.57104048 0 -3025.52325072 0 46779.67410443 0 27304.08682320 0 42361.82853601 0 571
0.02250000 0.02255340 86110.61125040 0 -4889.74272497 0 43064.12312677 0 22268.68340870 0 49779.06649513 0 510
0.02350000 0.02348930 85361.06816064 0 2217.59610022 0 35162.64350889 0 4849.67023040 0 61146.87789525 0 555
0.02450000 0.02439640 85892.33649446 0 2695.37159116 0 31064.33532455 0 8505.98312515 0 59914.09135445 0 592
0.02550000 0.02547300 78906.43518465 0 3422.38845992 0 31179.90559675 0 6957.44129844 0 61137.11764193 0 837
0.02650000 0.02652900 76673.22267912 0 2681.72941891 0 26440.63714078 0 6317.52359931 0 51282.92188934 0 723
0.02750000 0.02749970 70041.57419984 0 2113.25011933 0 31205.85899761 0 6824.54657660 0 52971.77844865 0 826
0.02850000 0.02848090 68245.24394211 0 2883.22319387 0 18316.66811211 0 5280.11958396 0 40581.13686597 0 831
0.02950000 0.02946900 63188.87816538 0 2519.02155968 0 17771.42487014 0 2439.90805185 0 45209.71517641 0 996
0.03050000 0.03053250 59438.94447719 0 3210.92369890 0 15347.66560104 0 4590.61314328 0 31116.13121430 0 1041
0.03150000 0.03150510 58081.82561860 0 1330.96581618 0 15522.35195298 0 472.18220032 0 32694.85218791 0 1036
0.03250000 0.03246190 51137.29447341 0 3072.58319937 0 15109.64851453 0 711.21967695 0 20221.35936403 0 1059
0.03350000 0.03345080 51498.09111014 0 895.84152311 0 9971.15242441 0 -2651.32844808 0 18478.04502771 0 1302
0.03450000 0.03451200 45290.68091413 0 1200.28933374 0 12388.20151935 0 3566.57402025 0 12212.51695969 0 1339
0.03550000 0.03553350 48998.13531801 0 1654.39621039 0 14948.93707075 0 -558.43732986 0 13819.07683764 0 1365
0.03650000 0.03647120 43059.24300012 0 1184.21818936 0 8687.70129595 0 1144.55606907 0 5002.80638666 0 1308
0.03750000 0.03744890 42172.39089214 0 2086.37614913 0 17422.05216627 0 295.37188417 0 10959.10079257 0 1579
0.03850000 0.03847530 40868.62069087 0 1005.86508771 0 12007.44072812 0 -1311.43421835 0 12939.32309570 0 1662
0.03950000 0.03950240 40401.23765147 0 -82.49044457 0 12752.76916304 0 3702.77391877 0 4808.06715065 0 1683
0.04050000 0.04050350 38475.80586126 0 1128.06345921 0 14605.66452521 0 -424.26379302 0 6115.77472683 0 1822
0.04150000 0.04152450 37750.33066888 0 1974.18869200 0 10773.92216832 0 -2429.92597460 0 5106.78635805 0 1887
0.04250000 0.04250150 35610.17330575 0 983.59618248 0 16005.15175613 0 1905.45654451 0 4643.56251751 0 1920
0.04350000 0.04349210 35692.35907514 0 -836.10544546 0 11963.51958820 0 3945.26075765 0 7029.57844339 0 2005
0.04450000 0.04448520 35780.42317891 0 -303.78122969 0 9507.40729761 0 4131.30449526 0 6282.71942329 0 2151
0.04550000 0.04548030 35818.46598444 0 55.15164230 0 7740.26907024 0 1046.88587963 0 5875.37303297 0 2274
0.04650000 0.04648670 34895.78931031 0 814.93678697 0 8456.18365085 0 1261.09127541 0 11876.12095625 0 2311
0.04750000 0.04749250 33361.10038859 0 617.82847128 0 6091.48500551 0 185.22964375 0 8387.89515124 0 2568
0.04850000 0.04851840 34888.80185624 0 -390.15725329 0 6500.27325143 0 4595.45999634 0 10213.90545201 0 2493
0.04950000 0.04949480 33305.53349188 0 -411.39689544 0 6261.95670260 0 -343.42005847 0 8392.53127157 0 2644
0.05050000 0.05050630 33690.39802598 0 1285.12589919 0 6722.14155518 0 -1771.47488537 0 13272.83538794 0 2829
0.05150000 0.05149060 34025.68490973 0 -153.25372295 0 8006.96799206 0 -1411.86500672 0 8277.42682964 0 2784
0.05250000 0.05249300 34342.11675866 0 -761.01249653 0 11536.95215357 0 -1483.99106048 0 8002.05459181 0 3055
0.05350000 0.05348950 35260.91151385 0 525.70498943 0 9390.36189621 0 398.14402421 0 3813.33096995 0 3009
0.05450000 0.05448610 35159.42706177 0 5.39807446 0 13079.73764907 0 -1959.65922399 0 3794.07665205 0 3336
0.05550000 0.05550870 34976.75504804 0 463.52773934 0 12278.84231744 0 -1048.44973840 0 2319.77929771 0 3349
0.05650000 0.05647670 35184.82590279 0 244.13166339 0 15356.09491072 0 599.88402374 0 180.36726301 0 3324
0.05750000 0.05747970 33467.35405535 0 824.87117207 0 11988.69660527 0 -363.91437219 0 -1358.80472052 0 3639
0.05850000 0.05849280 33710.36218049 0 900.11274305 0 12735.35598383 0 184.65179239 0 -2174.78408000 0 3846
0.05950000 0.05951020 31768.07177092 0 131.77340182 0 13496.54483038 0 1942.09076803 0 21.24030763 0 3787
0.06050000 0.06049470 32477.79746363 0 510.94482453 0 11957.75216579 0 218.40785030 0 208.08305507 0 3930
0.06150000 0.06148310 30712.07890948 0 1068.79210272 0 13247.21472299 0 -512.35784302 0 -1643.16082788 0 4083
0.06250000 0.06249100 29644.32937927 0 838.50890784 0 11273.53622605 0 370.16204343 0 -827.48093072 0 4303
0.06350000 0.06350600 28652.77637210 0 397.26449229 0 15211.02205464 0 612.37382062 0 701.06014054 0 4470
0.06450000 0.06451750 28604.97331325 0 73.17317366 0 11968.06697895 0 603.60401120 0 -577.05723130 0 4479
0.06550000 0.06550280 29356.95646634 0 -174.32699715 0 12800.23948597 0 2046.41456652 0 1692.59429268 0 4636
0.06650000 0.06648880 29001.48360415 0 -419.96817244 0 10916.77678501 0 1705.74845226 0 2449.37993405 0 4653
0.06750000 0.06749660 29609.05937298 0 -234.72300102 0 9758.35671976 0 1859.81626907 0 3681.26808789 0 5220
0.06850000 0.06852730 29635.45642171 0 63.85734461 0 9252.45395336 0 348.11607125 0 2781.17309075 0 5029
0.06950000 0.06949320 30036.95775124 0 153.05297229 0 7980.31584579 0 1009.08264395 0 3870.91646451 0 5040
0.07050000 0.07048030 28340.22644210 0 572.95016107 0 8272.69088854 0 -214.54922289 0 3844.90760766 0 5475
0.07150000 0.07148790 28799.73473166 0 419.60992678 0 7337.40352349 0 -257.46882772 0 2916.36369035 0 5509
0.07250000 0.07249820 27434.18656340 0 214.27416120 0 8382.41609995 0 845.10262443 0 3074.45761165 0 5916
0.07350000 0.07351270 26892.93615232 0 828.16747581 0 7838.41507204 0 -247.38582057 0 884.19243895 0 5721
0.07450000 0.07449140 26146.83133362 0 484.34702513 0 7212.98247613 0 -746.29225994 0 156.33596658 0 6028
0.07550000 0.07549160 26330.61246705 0 -268.13966830 0 7516.98109328 0 565.85623150 0 -220.94440705 0 6183
0.07650000 0.07648840 26584.71178913 0 -56.37821777 0 6480.91911275 0 777.05147643 0 -1197.17270739 0 6330
0.07750000 0.07749960 25420.13610957 0 440.49243240 0 6139.13278760 0 -633.41603947 0 -3239.76081097 0 6583
0.07850000 0.07848650 25408.15761687 0 674.51114241 0 7329.98351273 0 -301.06832292 0 -2173.74150749 0 6549
0.07950000 0.07947320 24377.56359644 0 530.28676289 0 6288.22065698 0 -604.91277244 0 -3644.30112846 0 6828
0.08050000 0.08048110 23834.42768188 0 400.44101110 0 7744.68336663 0 100.17968367 0 -1891.79218987 0 7147
0.08150000 0.08149960 23441.79930992 0 276.95162428 0 7182.20440459 0 699.96543940 0 -3767.97906563 0 7386
0.08250000 0.08250610 22951.34658087 0 371.40536661 0 7961.09480148 0 -532.79670076 0 -3238.87351521 0 7227
0.08350000 0.08350160 22882.47024782 0 276.02661845 0 6518.27426408 0 392.43094866 0 -3360.44412496 0 7798
0.08450000 0.08449610 22301.84608758 0 128.99838435 0 7436.49227703 0 -44.98933309 0 -2250.49259037 0 7371
0.08550000 0.08548940 22138.47275653 0 17.34042096 0 6006.69280484 0 688.50823295 0 -3463.15969990 0 8256
0.08650000 0.08650700 21869.62214251 0 292.09776283 0 6805.09261716 0 435.17531258 0 -2284.68675056 0 8037
0.08750000 0.08749060 21865.40748766 0 690.04990933 0 6007.36936785 0 -643.46910039 0 -3604.30627226 0 8155
0.08850000 0.08849210 20524.14904072 0 475.32100905 0 6921.73873546 0 -276.98711611 0 -2402.60835651 0 8718
0.08950000 0.08949900 20081.61028248 0 617.32714918 0 7617.15678412 0 231.40007841 0 -2102.05910161 0 8571
0.09050000 0.09049190 19389.29776897 0 68.83052641 0 6973.66771957 0 929.46559577 0 -1078.58673874 0 8932
0.09150000 0.09150830 19163.59191108 0 277.61598697 0 7346.63139935 0 499.68504139 0 -1925.01032473 0 9285
0.09250000 0.09250820 19113.45970087 0 325.11847438 0 6059.08761922 0 265.95137514 0 -832.33887498 0 9204
0.09350000 0.09350330 18441.77681369 0 16.80227608 0 6915.73839791 0 490.12886610 0 -87.20952704 0 9349
0.09450000 0.09448040 18739.68636372 0 162.72671427 0 6496.60206524 0 85.39545087 0 -655.94447871 0 9564
0.09550000 0.09549270 18717.72579376 0 83.03036403 0 6007.79083334 0 315.34823899 0 195.04646217 0 10155
0.09650000 0.09649430 18131.77785898 0 326.61245861 0 6850.07851198 0 -388.22294854 0 -434.92132417 0 9913
0.09750000 0.09749140 18031.29161463 0 264.98865925 0 5694.85271144 0 -186.67149936 0 -170.10236024 0 10476
0.09850000 0.09850240 17493.14673871 0 268.85061402 0 6963.27526803 0 85.05739119 0 -619.79050402 0 10575
0.09950000 0.09950330 16988.27545362 0 579.73797360 0 6441.52318119 0 -62.32376480 0 -953.52240196 0 10882
0.10050000 0.10051200 16526.32710073 0 452.67943960 0 7737.82900691 0 -227.71336454 0 -907.33865786 0 10875
0.10150000 0.10150300 15991.17684798 0 364.94474438 0 7064.26061625 0 -83.67875541 0 -801.89908495 0 11118
0.10250000 0.10250800 15251.83765941 0 315.64104659 0 7137.61779286 0 823.52026429 0 -234.09967575 0 11575
0.10350000 0.10349800 15250.28489184 0 0.17081442 0 6782.49984897 0 543.64943697 0 267.42095874 0 11364
0.10450000 0.10450100 15187.39780514 0 -185.27289942 0 6075.10330762 0 1631.02705842 0 457.45309077 0 12093
0.10550000 0.10551000 15459.24304234 0 -250.91282120 0 4769.56960604 0 759.92666834 0 889.98648024 0 12067
0.10650000 0.10649700 15639.69681669 0 -72.27789224 0 4366.51550894 0 730.30873601 0 2317.53887592 0 12054
0.10750000 0.10749900 15427.74404301 0 172.35276410 0 4094.84773089 0 428.72356332 0 1839.98520892 0 12807
0.10850000 0.10850100 15151.46232703 0 229.08201825 0 4201.45631596 0 -300.18102716 0 2421.28593218 0 12736
0.10950000 0.10950300 15048.20328344 0 263.30723379 0 4308.71928164 0 355.41296973 0 2509.71604544 0 12933
0.11050000 0.11050200 15057.18715297 0 -23.41617864 0 4377.16305801 0 315.96490954 0 3436.19700012 0 13428
0.11150000 0.11150900 14881.28076937 0 -35.69335728 0 3931.25257590 0 341.24507475 0 2857.30306660 0 13453
0.11250000 0.11250000 14924.53643747 0 113.81231748 0 4068.29540540 0 -298.65598758 0 2726.77076972 0 13668
0.11350000 0.11349100 14968.90122526 0 156.12967032 0 4369.42140254 0 -419.71529315 0 2545.08587251 0 13791
0.11450000 0.11448600 14569.06357528 0 45.52337423 0 4449.98785717 0 103.68805109 0 2271.44386141 0 14205
0.11550000 0.11549300 14512.38755887 0 107.55022769 0 4281.93404101 0 402.00486987 0 2530.46767493 0 14776
0.11650000 0.11649800 14682.19378415 0 -199.31546388 0 3330.90826749 0 838.32701221 0 1506.43964310 0 14553
0.11750000 0.11747300 14579.48930041 0 68.05225712 0 3170.06372935 0 468.58976163 0 2234.44362839 0 14568
0.11850000 0.11849100 14491.86884452 0 -2.73934819 0 2567.80064386 0 273.54662681 0 1224.15758957 0 16015
0.11950000 0.11950300 14490.09425301 0 230.45289019 0 2626.06270143 0 -750.29285467 0 803.42079718 0 15270
0.12050000 0.12050700 13942.52185967 0 536.99250056 0 3003.27430964 0 -689.32898153 0 416.36131520 0 15999
0.12150000 0.12150000 13356.13027702 0 238.27772964 0 3376.61509011 0 -853.07164943 0 -356.06402299 0 15670
0.12250000 0.12250700 13499.98310144 0 -49.30380871 0 3576.78901264 0 158.75717488 0 -660.61054527 0 16887
0.12350000 0.12352200 13579.06333568 0 -30.14853519 0 3752.44029870 0 121.51071729 0 -1570.25839034 0 16407
0.12450000 0.12449800 13320.19479891 0 210.72054170 0 3426.91366827 0 -436.35763417 0 -1914.52914361 0 16306
0.12550000 0.12549900 13355.02115732 0 373.34521695 0 4551.99359550 0 -365.98953514 0 -1234.64986188 0 17523
0.12650000 0.12650100 12977.92046108 0 44.79235344 0 4528.54680516 0 -505.88280224 0 -1554.49779948 0 17154
0.12750000 0.12750600 13095.26532480 0 64.19307514 0 5019.28790533 0 473.73718613 0 -220.80687620 0 18007
0.12850000 0.12850300 13023.83801645 0 136.47606933 0 4793.37131469 0 363.17015287 0 -819.39544814 0 17496
0.12950000 0.12949900 12840.27870696 0 -145.74830998 0 4787.94771938 0 1120.68781324 0 871.32775961 0 18405
0.13050000 0.13049000 13122.77149323 0 -106.83806193 0 4483.98237582 0 418.32002058 0 873.80996949 0 18100
0.13150000 0.13148800 13296.01598956 0 103.66331772 0 4220.22262119 0 209.24097603 0 2080.25380841 0 19059
0.13250000 0.13249300 12928.56463467 0 225.60603712 0 4143.84863901 0 75.43888337 0 2220.83472973 0 18957
0.13350000 0.13349100 12739.45972670 0 151.69208242 0 4147.86365230 0 -102.19606327 0 1998.02367424 0 19468
0.13450000 0.13450700 12746.11444487 0 169.08529748 0 4966.94854693 0 -44.29480234 0 1790.74029447 0 19953
0.13550000 0.13551000 12486.69134825 0 254.58511651 0 4480.69938152 0 -246.80353273 0 1775.26807473 0 19956
0.13650000 0.13649900 11969.39792258 0 163.52306221 0 4727.25668968 0 191.57159017 0 1591.86404199 0 19723
0.13750000 0.13749600 12025.96302702 0 34.24218507 0 4369.67650007 0 -102.98342734 0 976.12404310 0 20946
0.13850000 0.13851100 11897.63787833 0 61.35838702 0 4170.77806520 0 557.21507996 0 730.19893316 0 20955
0.13950000 0.13949800 11827.98516149 0 151.93165228 0 4287.59055146 0 -151.57784309 0 733.99988636 0 20506
0.14050000 0.14048300 11431.47487059 0 222.03356259 0 3683.24232094 0 -117.48904927 0 -27.79587050 0 21447
0.14150000 0.14148400 11285.73654269 0 168.82687259 0 4225.84585805 0 18.82375764 0 326.99510491 0 21771
0.14250000 0.14249400 11085.32970504 0 111.92015928 0 3844.45286859 0 168.39764326 0 4.46868762 0 22470
0.14350000 0.14350900 11013.41438402 0 -2.96407802 0 3650.10182446 0 517.21356905 0 242.07091899 0 22519
0.14450000 0.14449900 10961.16375520 0 55.40574162 0 3125.66566796 0 367.40144451 0 -53.90598997 0 22218
0.14550000 0.14550500 10897.99938858 0 39.45704406 0 2781.52800905 0 389.09915310 0 373.34299871 0 23559
0.14650000 0.14650700 10823.41108910 0 25.49189615 0 2697.43455379 0 286.73295086 0 468.12504047 0 23044
0.14750000 0.14750500 10723.26867186 0 94.01142540 0 2190.53357967 0 37.67857062 0 459.84435283 0 23649
0.14850000 0.14849900 10550.01308433 0 62.14741477 0 2380.13759150 0 113.89771970 0 436.96321353 0 23640
0.14950000 0.14949500 10536.99201911 0 112.30280558 0 1806.77816526 0 34.10310146 0 404.53144453 0 24457
0.15050000 0.15050000 10296.29086294 0 109.54675405 0 2214.36856191 0 3.33830610 0 -21.20736677 0 24591
0.15150000 0.15149900 10171.28198214 0 144.33196413 0 1730.00489998 0 -103.23774849 0 -28.87759493 0 25020
0.15250000 0.15250500 10042.38009121 0 98.32545736 0 2111.59753099 0 94.47137733 0 -371.41645780 0 25297
0.15350000 0.15350100 9799.59379001 0 176.94008315 0 1991.30240889 0 -162.65240325 0 -510.53888672 0 25452
0.15450000 0.15450400 9597.95582949 0 229.37038937 0 2006.24225118 0 -162.76775169 0 -731.93359637 0 26061
0.15550000 0.15549900 9323.48197861 0 238.82119829 0 2504.03735261 0 -448.16532245 0 -613.02598300 0 26128
0.15650000 0.15649500 9050.42780095 0 224.10872554 0 2541.54778069 0 -414.23735098 0 -1182.55450982 0 26331
0.15750000 0.15749700 9009.55674019 0 49.15197022 0 2707.32790147 0 240.08559474 0 -1268.08982068 0 27345
0.15850000 0.15849900 8915.90267316 0 -12.01276450 0 2642.11166341 0 24.01255230 0 -999.24031578 0 26980
0.15950000 0.15949700 8892.68879795 0 45.24931075 0 2640.48125746 0 243.14454686 0 -1232.13216017 0 27777
0.16050000 0.16050000 8893.06589865 0 79.74404238 0 2519.40975158 0 111.48538436 0 -739.22162188 0 28224
0.16150000 0.16150500 8813.13164224 0 71.50827408 0 2362.50258835 0 102.93839708 0 -510.10854828 0 28075
0.16250000 0.16249700 8645.45492678 0 160.51512959 0 2411.88059716 0 276.43921098 0 -647.08261235 0 28590
0.16350000 0.16349900 8551.55685341 0 83.63505609 0 2580.81061788 0 46.93406357 0 107.22536653 0 29163
0.16450000 0.16449100 8409.86681240 0 64.87174548 0 2359.88506587 0 183.26650189 0 17.41861390 0 28996
0.16550000 0.16550500 8376.24939445 0 68.47505354 0 2302.94286074 0 354.95823065 0 566.30986146 0 30777
0.16650000 0.16650700 8274.39893287 0 18.37245683 0 2281.83631295 0 114.05632382 0 766.76439126 0 29211
0.16750000 0.16749900 8431.31718730 0 -35.79140346 0 2173.49750116 0 288.65727354 0 919.18849268 0 30922
0.16850000 0.16850800 8266.32454150 0 138.48468510 0 2320.38931354 0 -106.93255893 0 1045.79561497 0 30867
0.16950000 0.16949900 8140.75000965 0 212.35760237 0 2241.71945358 0 -338.20054118 0 932.06648146 0 30852
0.17050000 0.17049200 7985.37343160 0 104.21410656 0 2734.88952589 0 -27.82459670 0 1399.15449502 0 31257
0.17150000 0.17149500 7942.99396806 0 -46.03612026 0 2679.42244995 0 104.22009580 0 959.88874900 0 32608
0.17250000 0.17250900 8066.18389256 0 -34.35675714 0 2605.05597441 0 364.33472855 0 1115.17548836 0 32361
0.17350000 0.17350400 8094.10043528 0 42.58065785 0 2490.36190677 0 -9.65729373 0 977.80768679 0 32508
0.17450000 0.17449800 8054.05012310 0 68.50610889 0 2305.17219132 0 -216.03322504 0 1090.00179864 0 32791
0.17550000 0.17549800 8020.98726500 0 72.25160610 0 2550.74238296 0 -111.09830159 0 795.14121865 0 33633
0.17650000 0.17650100 8048.74853096 0 62.27296712 0 2299.89278158 0 221.64980717 0 706.38724244 0 33984
0.17750000 0.17750300 7950.79107952 0 -17.98293400 0 2460.93696127 0 176.73822337 0 919.25060339 0 34069
0.17850000 0.17849800 7892.95048743 0 22.87825559 0 2014.42755452 0 101.62120653 0 715.39218524 0 34536
