### header ###
fiducial parameters:
Omega_m = 0.31
Omega_nu = 0
Omega_de = 0.69
Omega_k = 0
H_0 = 100
w_de = -1
zeff = 0
beta = 0
fgrowth = 0
b_1 = 2
gamma = 0.55
Lx = 3500 Ly = 3500 Lz = 3500
nx = 700 ny = 700 nz = 700
xoffset = 1379.75464 yoffset = 22.6059522 zoffset = 368.141391
bins = 400 dk = 0.001
kx_ny = 0.628318531 ky_ny = 0.628318531 kz_ny = 0.628318531
############################
A(data) = 3.37796096 (not used)
A(ran) = 3.38137324 (used)
Ngal = 189855
weighted Ngal = 0
Nran = 9399747
weighted Nran = 0
SN(data) = 6650.35422
SN(ran) = 134.495415
SN(data+ran) = 6784.84963
############################
13 columns: k_central k_mean P_0(k) sigma^{lin}_{P_0(k)} P^img_1(k) sigma^{lin}_{P_1(k)} P_2(k) sigma^{lin}_{P_2(k)} P^img_3(k) sigma^{lin}_{P_3(k)} P_4(k) sigma^{lin}_{P_4(k)} N_modes
### header ###
0.00050000 0 0 0 0 0 0 0 0 0 0 0 0
0.00150000 0.00179520 2655.55419412 0 1134.11925274 0 10328.82134359 0 -15140.48204205 0 -44253.32126356 0 3
0.00250000 0.00253879 18802.46253844 0 -4521.54825988 0 -10783.49387129 0 14971.89584844 0 34310.83958327 0 6
0.00350000 0.00331552 27739.63812735 0 -17344.52469960 0 -31274.06985884 0 46714.01421849 0 55258.00687559 0 7
0.00450000 0.00420575 41971.08566752 0 -24004.34481913 0 -36133.12324186 0 -3196.23895414 0 9655.17531455 0 24
0.00550000 0.00557378 72356.86156278 0 -12250.11611734 0 -43847.38345526 0 -22784.42406679 0 -20126.97327800 0 45
0.00650000 0.00659388 89932.74863072 0 -10727.76060662 0 -91050.63037114 0 6227.07488820 0 -20150.15387962 0 40
0.00750000 0.00754703 77624.29281743 0 -834.58595148 0 -38261.19120031 0 -50876.42952119 0 9444.23183979 0 57
0.00850000 0.00846663 77947.26847257 0 4452.12845818 0 -36631.00707286 0 -27992.73924171 0 -43542.37553918 0 75
0.00950000 0.00948925 77695.05465396 0 3457.00408559 0 -4895.83179210 0 -25667.58071349 0 -17270.76823989 0 112
0.01050000 0.01054430 67702.21893952 0 4336.26981486 0 -13226.91783257 0 -20579.71593743 0 -35209.11562410 0 105
0.01150000 0.01145670 71989.74294380 0 789.66882208 0 18464.62467940 0 -13068.97918803 0 -32411.80484179 0 144
0.01250000 0.01249090 68905.05924856 0 2685.66679383 0 4075.93724009 0 -8047.01830424 0 -37825.63989616 0 169
0.01350000 0.01339930 70247.87046308 0 3528.43139394 0 15907.77104693 0 -5739.48368796 0 -18889.41752252 0 180
0.01450000 0.01448870 66643.00963097 0 211.54572675 0 17761.77552879 0 -2382.74402278 0 -29148.55287568 0 267
0.01550000 0.01550050 67050.72203078 0 3452.45669485 0 20982.99185846 0 7577.26174869 0 -21435.17995804 0 238
0.01650000 0.01653350 66081.79506539 0 -4995.79675019 0 4174.20524505 0 6482.49406272 0 -15350.88204816 0 315
0.01750000 0.01747870 72070.59776955 0 -5937.68337743 0 4484.37056771 0 2262.79272779 0 -25154.94559054 0 297
0.01850000 0.01844180 71599.99828304 0 2012.43113907 0 -3401.00463220 0 -5839.18245733 0 -28670.18955131 0 388
0.01950000 0.01947590 76817.96279930 0 0.42453664 0 6537.25130205 0 -17746.58058897 0 -43834.29584286 0 399
0.02050000 0.02045430 72083.79629392 0 277.53945771 0 4133.12345156 0 -4873.00610878 0 -38298.90126994 0 462
0.02150000 0.02154770 72462.56066970 0 2314.96571823 0 9466.84679037 0 -5463.76762303 0 -45096.36314360 0 571
0.02250000 0.02255340 67419.72615325 0 6404.53403937 0 19949.51412683 0 -12379.66129770 0 -43199.32481757 0 510
0.02350000 0.02348930 61886.77164366 0 6136.88127462 0 25481.91407657 0 -7857.48083959 0 -31998.10319562 0 555
0.02450000 0.02439640 57788.68528326 0 3178.01611756 0 30667.49229774 0 780.78920980 0 -29732.06074713 0 592
0.02550000 0.02547300 55500.57135284 0 -283.93907835 0 32883.40253603 0 6216.59370708 0 -16749.14924742 0 837
0.02650000 0.02652900 56840.83159207 0 -340.16701040 0 30501.90072731 0 7895.41273315 0 -18703.30723773 0 723
0.02750000 0.02749970 57029.60376413 0 761.47721768 0 37466.61785094 0 -1210.38232296 0 1132.76612672 0 826
0.02850000 0.02848090 56120.45835028 0 767.07050830 0 29274.88160893 0 5451.78913032 0 -10544.72258339 0 831
0.02950000 0.02946900 60010.47385593 0 -551.86579567 0 38294.90843904 0 5031.80986668 0 10208.62604226 0 996
0.03050000 0.03053250 58476.89405390 0 -1932.14196437 0 30837.29852302 0 2165.86675766 0 -2057.73867861 0 1041
0.03150000 0.03150510 62153.40401830 0 2583.53905233 0 32522.27316340 0 2473.96911768 0 233.87896093 0 1036
0.03250000 0.03246190 56511.97760255 0 2370.39952058 0 30327.87984719 0 -3942.13304011 0 3597.28554460 0 1059
0.03350000 0.03345080 55042.50491888 0 2651.90519032 0 30965.62367171 0 4629.49887978 0 2817.44130477 0 1302
0.03450000 0.03451200 52641.03895565 0 -1510.02209971 0 27381.61428986 0 11299.60053888 0 5860.07827238 0 1339
0.03550000 0.03553350 52107.21964654 0 -848.02293658 0 21146.36518951 0 8346.80226655 0 2913.99017421 0 1365
0.03650000 0.03647120 52169.77399732 0 511.55373124 0 14865.08762182 0 2787.33979625 0 3224.32186482 0 1308
0.03750000 0.03744890 50864.67285243 0 1613.18132253 0 11196.23058332 0 -1582.59180134 0 1990.35965715 0 1579
0.03850000 0.03847530 49560.01535541 0 1219.74329318 0 12853.80996723 0 -2959.15352818 0 2826.23662395 0 1662
0.03950000 0.03950240 47487.40338169 0 573.53577627 0 14431.08908524 0 -2218.43903119 0 121.61941102 0 1683
0.04050000 0.04050350 47582.56585151 0 558.88541422 0 14705.81803365 0 -1153.25156748 0 -13682.32237927 0 1822
0.04150000 0.04152450 46747.39872131 0 1191.76020328 0 15149.46591158 0 -5492.85983262 0 -10959.08970137 0 1887
0.04250000 0.04250150 46910.99387629 0 649.28976055 0 17302.48906317 0 -1133.64233127 0 -15140.81477796 0 1920
0.04350000 0.04349210 44945.63377707 0 -1429.13400037 0 16155.32656281 0 2614.37257985 0 -7806.07314173 0 2005
0.04450000 0.04448520 47756.91946753 0 -1307.57448182 0 12066.22407194 0 6413.15189940 0 -11983.70556665 0 2151
0.04550000 0.04548030 49502.78477915 0 -259.89779985 0 10365.31138155 0 4268.39168954 0 -5600.84372611 0 2274
0.04650000 0.04648670 47040.53905665 0 2603.65848360 0 8282.18495313 0 -1311.73368067 0 -8700.76672596 0 2311
0.04750000 0.04749250 43187.56814881 0 3281.43043790 0 14414.45228982 0 -3290.46976342 0 -2031.13089713 0 2568
0.04850000 0.04851840 40692.71430727 0 1514.40312251 0 13974.90815476 0 -1285.25899356 0 -1157.46622232 0 2493
0.04950000 0.04949480 39322.06418841 0 340.82471838 0 16674.50549196 0 1185.05002913 0 829.90657549 0 2644
0.05050000 0.05050630 38673.56190285 0 -115.36619418 0 13446.63444412 0 2541.22613597 0 -2927.05560421 0 2829
0.05150000 0.05149060 39667.00041350 0 506.32866836 0 15549.30356156 0 2875.14880249 0 3531.67002345 0 2784
0.05250000 0.05249300 37473.82712896 0 726.70187877 0 13356.90666081 0 -818.72664896 0 2010.72309474 0 3055
0.05350000 0.05348950 37213.96038446 0 1458.34821313 0 16147.67363692 0 1404.75554948 0 4401.86315361 0 3009
0.05450000 0.05448610 36742.91725007 0 163.95229153 0 14332.59925634 0 920.91871941 0 5576.78691993 0 3336
0.05550000 0.05550870 35355.74124776 0 -140.98242265 0 12792.80838402 0 2477.91758379 0 5019.26572293 0 3349
0.05650000 0.05647670 36173.49519875 0 326.61024037 0 13484.56633768 0 1464.14890913 0 7193.30669274 0 3324
0.05750000 0.05747970 34637.69715733 0 1043.93229388 0 12357.92255168 0 204.98528376 0 5235.02277717 0 3639
0.05850000 0.05849280 34020.80478307 0 1032.56714437 0 13407.92616677 0 63.87154134 0 7916.74110488 0 3846
0.05950000 0.05951020 32997.75277657 0 647.82683167 0 13896.71521628 0 -234.13516758 0 7196.25695113 0 3787
0.06050000 0.06049470 31820.64404445 0 427.29058067 0 12887.19447005 0 1004.23911824 0 5863.90473533 0 3930
0.06150000 0.06148310 31445.42885169 0 523.10521287 0 14690.40126989 0 125.61889664 0 5426.15737418 0 4083
0.06250000 0.06249100 30947.21228478 0 115.59800019 0 12761.64212059 0 348.68061318 0 4076.48070874 0 4303
0.06350000 0.06350600 30964.95819990 0 -52.85765003 0 15356.20582269 0 953.80079100 0 6633.64489473 0 4470
0.06450000 0.06451750 30971.50200609 0 215.68274321 0 10138.85132226 0 428.70470828 0 803.73024157 0 4479
0.06550000 0.06550280 31065.11170834 0 78.75792406 0 14368.20199854 0 957.81247693 0 5180.34317621 0 4636
0.06650000 0.06648880 30249.90873264 0 208.97811466 0 12193.88374881 0 185.45701329 0 2105.25336633 0 4653
0.06750000 0.06749660 30429.80794714 0 400.78040172 0 12365.02091773 0 686.91553707 0 3130.73434497 0 5220
0.06850000 0.06852730 30370.58095544 0 276.09982035 0 13143.51203152 0 -433.37632044 0 2237.82644346 0 5029
0.06950000 0.06949320 29228.40949371 0 175.96073046 0 10676.15326722 0 259.04266856 0 -377.46670574 0 5040
0.07050000 0.07048030 29794.39327398 0 104.57956150 0 11056.22640424 0 426.13820531 0 -67.20644244 0 5475
0.07150000 0.07148790 28998.26715704 0 256.71684456 0 10990.63306549 0 -761.22766575 0 -2302.59903363 0 5509
0.07250000 0.07249820 28354.64499813 0 1091.95606754 0 12213.51516741 0 -316.89435185 0 -996.97105688 0 5916
0.07350000 0.07351270 27736.42168024 0 628.05233663 0 10725.68655279 0 459.40735967 0 -2567.15735444 0 5721
0.07450000 0.07449140 27069.72983168 0 1.42852398 0 10332.75871851 0 1110.53936803 0 -1522.76588501 0 6028
0.07550000 0.07549160 26950.16672858 0 139.38418117 0 9524.03300183 0 1942.49005112 0 -1225.87672510 0 6183
0.07650000 0.07648840 26289.02047849 0 161.75068893 0 9539.34994482 0 538.92236883 0 601.10072805 0 6330
0.07750000 0.07749960 26095.36817978 0 219.52473384 0 7821.32353754 0 1194.17808422 0 862.62671561 0 6583
0.07850000 0.07848650 25569.97818034 0 272.64158514 0 9032.98134815 0 -178.66254604 0 -781.83732792 0 6549
0.07950000 0.07947320 25546.02119493 0 750.15754207 0 7335.47365522 0 -200.98912550 0 1057.82623630 0 6828
0.08050000 0.08048110 24140.21198175 0 1064.07612578 0 9298.13859359 0 -734.15627223 0 348.23918354 0 7147
0.08150000 0.08149960 23248.36883514 0 482.85415002 0 9396.00731546 0 -861.21147887 0 648.66421704 0 7386
0.08250000 0.08250610 22175.62826631 0 607.57687794 0 10368.43909909 0 468.76167518 0 -465.53746423 0 7227
0.08350000 0.08350160 22452.79727804 0 170.68242984 0 10032.04309565 0 697.97900603 0 -129.53187092 0 7798
0.08450000 0.08449610 21742.07337760 0 -289.06542958 0 9919.66708817 0 387.99225164 0 414.86511273 0 7371
0.08550000 0.08548940 22263.80328205 0 76.75230291 0 8618.73623333 0 1410.94443737 0 -843.52212886 0 8256
0.08650000 0.08650700 21833.68666439 0 384.45415982 0 9716.85346078 0 -1463.94926759 0 -1380.72092569 0 8037
0.08750000 0.08749060 21525.68412514 0 799.22499737 0 8790.15068216 0 -730.45181245 0 -1975.59727401 0 8155
0.08850000 0.08849210 20606.88936995 0 302.28613635 0 10587.00222615 0 785.76582987 0 391.28633714 0 8718
0.08950000 0.08949900 20335.26595669 0 61.84185230 0 9044.49401058 0 621.97768806 0 -1527.80128842 0 8571
0.09050000 0.09049190 20191.96769212 0 310.64889884 0 9689.72439304 0 1125.74539905 0 785.89892424 0 8932
0.09150000 0.09150830 19556.88575486 0 173.19569506 0 8474.79467933 0 739.22716748 0 1020.01080030 0 9285
0.09250000 0.09250820 19322.19602744 0 290.90213180 0 8840.29398357 0 687.89488976 0 1610.28652012 0 9204
0.09350000 0.09350330 19299.12633779 0 -162.11337107 0 7771.45751606 0 742.03324031 0 2557.49692190 0 9349
0.09450000 0.09448040 19546.12729382 0 -289.13752236 0 6957.62984879 0 1066.52062558 0 1403.26932909 0 9564
0.09550000 0.09549270 19663.25033360 0 15.40057061 0 6582.82503032 0 360.13671051 0 1526.47034479 0 10155
0.09650000 0.09649430 19356.57873798 0 385.65755469 0 5882.36048705 0 -244.11613571 0 491.22023988 0 9913
0.09750000 0.09749140 19005.65326654 0 424.98693906 0 6400.72975882 0 -474.08655883 0 857.15875551 0 10476
0.09850000 0.09850240 18050.92303323 0 485.38072469 0 5559.68429424 0 -336.04663074 0 -715.85579727 0 10575
0.09950000 0.09950330 17685.80082970 0 392.66608204 0 7427.69695785 0 63.58006468 0 171.74385738 0 10882
0.10050000 0.10051200 16966.86944351 0 524.31526245 0 6172.32874006 0 22.71454953 0 -1477.76889899 0 10875
0.10150000 0.10150300 16660.08693593 0 -11.83286529 0 6593.25075545 0 315.90945356 0 -514.85225322 0 11118
0.10250000 0.10250800 16745.37824046 0 4.32842834 0 6036.47266865 0 237.26399424 0 -692.82714505 0 11575
0.10350000 0.10349800 16481.18592915 0 212.11470516 0 5603.25051585 0 472.20327359 0 -836.87073805 0 11364
0.10450000 0.10450100 16391.34723387 0 125.34494407 0 6078.20884276 0 59.67762704 0 -1091.35825203 0 12093
0.10550000 0.10551000 16148.00637283 0 109.28921646 0 5809.05876642 0 154.65121377 0 -1529.44278557 0 12067
0.10650000 0.10649700 16305.50136949 0 -105.65063839 0 5538.27828413 0 902.77130296 0 -141.08446166 0 12054
0.10750000 0.10749900 16025.00499867 0 71.34966997 0 4871.83044190 0 40.37106960 0 -1028.51553012 0 12807
0.10850000 0.10850100 16239.17601174 0 242.74193641 0 4712.73831288 0 176.45761609 0 -479.38482362 0 12736
0.10950000 0.10950300 15545.64346657 0 433.16226033 0 5210.54450550 0 -845.93779156 0 -1330.28925317 0 12933
0.11050000 0.11050200 15173.97745683 0 269.43068363 0 5596.59579768 0 210.35896868 0 -801.12713765 0 13428
0.11150000 0.11150900 15032.01013590 0 -152.57161434 0 4948.33751845 0 714.13998910 0 -672.64449396 0 13453
0.11250000 0.11250000 15263.37250424 0 -46.12418436 0 4555.65369050 0 726.26821297 0 -1539.51359240 0 13668
0.11350000 0.11349100 15350.88204816 0 183.40181450 0 4670.71376764 0 -39.57150521 0 353.07827277 0 13791
0.11450000 0.11448600 14738.86980055 0 308.65137427 0 4770.74527291 0 -175.31300456 0 -278.53211984 0 14205
0.11550000 0.11549300 14596.90247962 0 220.12476759 0 4297.53935512 0 170.61255530 0 921.97460136 0 14776
0.11650000 0.11649800 14635.72166894 0 -197.57858244 0 4528.63553473 0 917.08781998 0 754.59512997 0 14553
0.11750000 0.11747300 14409.12851528 0 80.79803882 0 4056.45000706 0 631.18227241 0 924.47344803 0 14568
0.11850000 0.11849100 14274.59229630 0 469.87744959 0 4626.47098301 0 -518.78075518 0 1662.53714895 0 16015
0.11950000 0.11950300 13839.81737593 0 260.61096381 0 4683.00281386 0 -19.25487246 0 1760.20622927 0 15270
0.12050000 0.12050700 13763.62085290 0 -83.69916321 0 4975.01184711 0 304.67518017 0 2727.39187675 0 15999
0.12150000 0.12150000 13632.74472891 0 7.47185101 0 4577.04860941 0 327.48422669 0 1894.99754579 0 15670
0.12250000 0.12250700 13997.31237260 0 10.08034526 0 4872.64009928 0 359.47012957 0 2722.15683179 0 16887
0.12350000 0.12352200 13688.86618547 0 292.59575757 0 5142.25600589 0 -275.89019673 0 2402.76363327 0 16407
0.12450000 0.12449800 13628.08642619 0 194.79912848 0 5326.33660164 0 -467.03921229 0 2691.03493315 0 16306
0.12550000 0.12549900 13432.77044793 0 160.05706316 0 5577.55221252 0 -511.65244290 0 1618.41636749 0 17523
0.12650000 0.12650100 13274.38815551 0 173.55837720 0 6288.42029852 0 -148.52887305 0 1736.26033506 0 17154
0.12750000 0.12750600 13324.74218966 0 -173.07147366 0 5731.33165821 0 339.04790863 0 1257.42008922 0 18007
0.12850000 0.12850300 13414.58088494 0 -118.69798974 0 5047.10462727 0 438.59583772 0 632.10395087 0 17496
0.12950000 0.12949900 13593.59280368 0 181.49080126 0 5329.73050791 0 264.56608464 0 1037.21546501 0 18405
0.13050000 0.13049000 13055.89157563 0 140.00750644 0 4443.13349746 0 283.40226442 0 465.97445739 0 18100
0.13150000 0.13148800 13013.41229132 0 209.56262074 0 4975.15603267 0 415.04922660 0 1746.27568591 0 19059
0.13250000 0.13249300 12426.02250094 0 245.67777624 0 3987.16329972 0 81.07043862 0 229.96376840 0 18957
0.13350000 0.13349100 12751.43821940 0 24.23548536 0 4094.51499498 0 572.53535031 0 1263.46479155 0 19468
0.13450000 0.13450700 12241.57589569 0 -127.27703058 0 3614.58781183 0 403.54987360 0 1052.41927778 0 19953
0.13550000 0.13551000 12588.84127214 0 6.90048800 0 3094.93196122 0 103.23231380 0 888.89510646 0 19956
0.13650000 0.13649900 12382.10136103 0 108.48344100 0 3161.93388198 0 -218.06402320 0 533.80932704 0 19723
0.13750000 0.13749600 12289.37895454 0 214.60911535 0 3298.31123966 0 -147.80905437 0 246.21348105 0 20946
0.13850000 0.13851100 12029.17947413 0 120.30177682 0 3507.08083982 0 -243.07356320 0 394.27652383 0 20955
0.13950000 0.13949800 12015.75912583 0 97.07359396 0 3303.83465574 0 86.69722466 0 -217.60484765 0 20506
0.14050000 0.14048300 11824.43597847 0 45.72889411 0 3673.43770284 0 214.47269363 0 459.24431908 0 21447
0.14150000 0.14148400 11797.15163398 0 185.19747928 0 3375.89416231 0 213.55988812 0 685.35500566 0 21771
0.14250000 0.14249400 11804.25000002 0 109.37994245 0 3325.06320670 0 616.80142645 0 1025.25693646 0 22470
0.14350000 0.14350900 11509.77872105 0 48.76355650 0 3321.62493564 0 -189.12265388 0 1157.77677583 0 22519
0.14450000 0.14449900 11299.37871494 0 300.98292070 0 3556.10393033 0 -40.49573465 0 1532.30431438 0 22218
0.14550000 0.14550500 11099.18261003 0 234.91376960 0 4128.62042560 0 -404.97176505 0 1731.74621790 0 23559
0.14650000 0.14650700 10758.60522534 0 133.63561379 0 3836.74448671 0 90.47788096 0 1119.70069671 0 23044
0.14750000 0.14750500 10767.37836212 0 143.62323664 0 4640.82299186 0 143.55225298 0 1548.59728270 0 23649
0.14850000 0.14849900 10479.97217560 0 157.75231243 0 3912.37535870 0 122.52556181 0 1655.88243078 0 23640
0.14950000 0.14949500 10294.32772108 0 145.01185450 0 4203.74110253 0 369.38344140 0 1859.60553632 0 24457
0.15050000 0.15050000 10258.63624930 0 50.19066081 0 3964.65926111 0 163.43433263 0 2017.51090728 0 24591
0.15150000 0.15149900 10067.74565863 0 40.32814666 0 3645.24388020 0 469.20754130 0 1845.41989543 0 25020
0.15250000 0.15250500 10054.59149905 0 17.36482159 0 3665.58513540 0 -19.89738550 0 1905.96673957 0 25297
0.15350000 0.15350100 10025.80984297 0 35.02733091 0 3162.47735063 0 110.93969747 0 1416.51221824 0 25452
0.15450000 0.15450400 10015.76121853 0 -4.51237584 0 3244.06419539 0 246.24675464 0 1811.81356867 0 26061
0.15550000 0.15549900 9979.02717424 0 34.11053257 0 2958.83188347 0 4.76880431 0 1065.11093445 0 26128
0.15650000 0.15649500 9952.69667268 0 131.55157788 0 2713.26169184 0 33.30686444 0 1215.67282390 0 26331
0.15750000 0.15749700 9714.83486293 0 194.76918225 0 3024.18121589 0 -186.65597168 0 623.61585785 0 27345
0.15850000 0.15849900 9505.89889482 0 238.08917929 0 2617.35611183 0 -83.65468751 0 790.73468611 0 26980
0.15950000 0.15949700 9292.72608948 0 136.10118687 0 2829.25342952 0 90.21402139 0 408.52316631 0 27777
0.16050000 0.16050000 9117.29662735 0 -3.15622192 0 2658.10516941 0 204.89322682 0 536.79174990 0 28224
0.16150000 0.16150500 9021.26904417 0 37.02862648 0 2544.36494471 0 335.09944252 0 231.45220704 0 28075
0.16250000 0.16249700 8920.25042237 0 184.42331374 0 2321.19897091 0 -16.80249790 0 -29.10230258 0 28590
0.16350000 0.16349900 8829.59097851 0 149.62135595 0 2298.05164288 0 -120.65669512 0 267.07713163 0 29163
0.16450000 0.16449100 8566.29705416 0 29.73671905 0 2184.15614142 0 6.75747811 0 -173.51955802 0 28996
0.16550000 0.16550500 8469.85909669 0 74.80224867 0 2493.12361481 0 -48.41362924 0 -106.96782894 0 30777
0.16650000 0.16650700 8596.21001233 0 84.91154195 0 2136.84109524 0 11.71019665 0 -535.91998182 0 29211
0.16750000 0.16749900 8370.61506640 0 32.74864449 0 2168.34009457 0 291.96355935 0 -24.53195306 0 30922
0.16850000 0.16850800 8436.98478894 0 52.41322577 0 2144.99312500 0 -63.41336399 0 140.04078003 0 30867
0.16950000 0.16949900 8388.63826144 0 30.74191423 0 2103.32349806 0 242.57002286 0 62.81931948 0 30852
0.17050000 0.17049200 8285.17957631 0 113.84891843 0 2258.24533704 0 81.11191970 0 293.94666536 0 31257
0.17150000 0.17149500 8120.85240232 0 121.93107365 0 2052.02671218 0 34.67518540 0 417.65565788 0 32608
0.17250000 0.17250900 8109.55047263 0 53.72664531 0 2107.71561206 0 -12.11502534 0 861.25584366 0 32361
0.17350000 0.17350400 8080.08116234 0 -24.14431572 0 2041.02424481 0 272.26892092 0 303.14237675 0 32508
0.17450000 0.17449800 7968.20425872 0 125.11757453 0 1903.73740898 0 28.28599049 0 477.70783464 0 32791
0.17550000 0.17549800 7792.75261420 0 99.83818571 0 1731.65748833 0 204.78231485 0 586.91065067 0 33633
0.17650000 0.17650100 7742.48730963 0 16.37426679 0 1672.88523570 0 25.04403362 0 565.96603435 0 33984
0.17750000 0.17750300 7780.05319369 0 50.82818281 0 1885.33711324 0 183.21104591 0 770.72173033 0 34069
0.17850000 0.17849800 7658.32730719 0 67.95421093 0 1347.13678133 0 -70.39394153 0 590.22691856 0 34536
