### header ###
fiducial parameters:
Omega_m = 0.31
Omega_nu = 0
Omega_de = 0.69
Omega_k = 0
H_0 = 100
w_de = -1
zeff = 0
beta = 0
fgrowth = 0
b_1 = 2
gamma = 0.55
Lx = 3500 Ly = 3500 Lz = 3500
nx = 700 ny = 700 nz = 700
xoffset = 1379.75464 yoffset = 22.6059522 zoffset = 368.141391
bins = 400 dk = 0.001
kx_ny = 0.628318531 ky_ny = 0.628318531 kz_ny = 0.628318531
############################
A(data) = 3.34774319 (not used)
A(ran) = 3.34452671 (used)
Ngal = 187631
weighted Ngal = 0
Nran = 9399747
weighted Nran = 0
SN(data) = 6642.06159
SN(ran) = 133.02983
SN(data+ran) = 6775.09142
############################
13 columns: k_central k_mean P_0(k) sigma^{lin}_{P_0(k)} P^img_1(k) sigma^{lin}_{P_1(k)} P_2(k) sigma^{lin}_{P_2(k)} P^img_3(k) sigma^{lin}_{P_3(k)} P_4(k) sigma^{lin}_{P_4(k)} N_modes
### header ###
0.00050000 0 0 0 0 0 0 0 0 0 0 0 0
0.00150000 0.00179520 77035.46117145 0 -66394.45590736 0 -115072.27745750 0 98327.56468886 0 -9326.35459862 0 3
0.00250000 0.00253879 108460.70404470 0 -36606.93917549 0 5375.00477385 0 -139180.10314416 0 9178.25384577 0 6
0.00350000 0.00331552 106794.58443914 0 21507.16182624 0 -36070.90162698 0 -52014.27541611 0 6071.04392953 0 7
0.00450000 0.00420575 90540.54622349 0 31801.89992161 0 29146.33463630 0 -57377.86734830 0 33485.43270638 0 24
0.00550000 0.00557378 55943.33193502 0 5913.63766244 0 38420.23896455 0 32008.52892075 0 4113.88022485 0 45
0.00650000 0.00659388 58835.91609911 0 -2927.83198800 0 32310.65312562 0 37298.80804112 0 14501.51818586 0 40
0.00750000 0.00754703 57972.57732866 0 -3311.96450310 0 12719.27374825 0 14882.94444891 0 7764.60315635 0 57
0.00850000 0.00846663 62747.33761487 0 -1096.77962910 0 15818.04326362 0 4757.26946862 0 12143.75153861 0 75
0.00950000 0.00948925 69614.78494127 0 -5943.86117413 0 -14573.94370193 0 7290.76504032 0 10187.34203532 0 112
0.01050000 0.01054430 63219.71169290 0 -2022.21357478 0 6370.53952073 0 2807.24849478 0 10818.84151596 0 105
0.01150000 0.01145670 69967.04135635 0 7288.63553051 0 2097.56716685 0 -13843.69929486 0 -1973.71177053 0 144
0.01250000 0.01249090 63335.83652495 0 -579.41743801 0 7886.82814671 0 -963.49338801 0 9723.04234867 0 169
0.01350000 0.01339930 64872.74368606 0 -4886.24899793 0 3826.93986861 0 10588.01152508 0 12679.89999909 0 180
0.01450000 0.01448870 73651.75880649 0 -6629.89607016 0 -5392.89487453 0 4512.42020479 0 13256.75315236 0 267
0.01550000 0.01550050 81185.89798145 0 1885.02655973 0 3634.09722727 0 12954.96168340 0 -3322.36804584 0 238
0.01650000 0.01653350 75312.22190161 0 2153.25606672 0 -7633.00610455 0 -1414.47143800 0 21202.37573410 0 315
0.01750000 0.01747870 71128.40058880 0 4788.32482008 0 2847.22116858 0 -7570.76230728 0 10541.81668979 0 297
0.01850000 0.01844180 63503.75724674 0 7951.78928724 0 12948.97243705 0 -9703.01164699 0 11515.21340755 0 388
0.01950000 0.01947590 54743.92989704 0 5041.14865451 0 16980.62252773 0 -9934.90639278 0 3219.87429484 0 399
0.02050000 0.02045430 50053.35179566 0 3942.75414714 0 24203.98636420 0 994.48773788 0 5764.49433708 0 462
0.02150000 0.02154770 50439.76909734 0 -1850.74366996 0 24404.07155714 0 899.22322906 0 -6011.71711706 0 571
0.02250000 0.02255340 57496.98680352 0 -4388.08788700 0 21881.48972324 0 4836.34970286 0 -8950.14119814 0 510
0.02350000 0.02348930 57400.71521401 0 -2960.05191513 0 14681.86104824 0 3751.25354063 0 -11084.93042195 0 555
0.02450000 0.02439640 65482.87043018 0 -3550.05922799 0 11593.29543407 0 506.84773638 0 -17747.46788473 0 592
0.02550000 0.02547300 67013.01196116 0 -201.36400795 0 12980.47143638 0 -3332.67176780 0 -14660.01139025 0 837
0.02650000 0.02652900 66903.87458319 0 3396.69015659 0 14616.20116231 0 -8028.48491414 0 -21596.11322576 0 723
0.02750000 0.02749970 59702.13858077 0 2976.59998098 0 23477.62387606 0 -2407.89885746 0 -13590.70909247 0 826
0.02850000 0.02848090 59105.21036102 0 1755.60338254 0 23991.36811870 0 -1714.35522109 0 -21439.72734879 0 831
0.02950000 0.02946900 58575.16205886 0 2201.74677978 0 27207.81523368 0 2272.61952828 0 -13962.48601418 0 996
0.03050000 0.03053250 55325.88500091 0 2344.00247184 0 22972.75259098 0 -1123.42733889 0 -11994.57493966 0 1041
0.03150000 0.03150510 49906.06070019 0 2677.12657218 0 25481.69225263 0 2837.05054098 0 -11543.93960765 0 1036
0.03250000 0.03246190 49149.64106832 0 1776.01118492 0 26429.54594383 0 4209.99653761 0 2121.29123712 0 1059
0.03350000 0.03345080 48550.71643312 0 -255.41695628 0 23195.35291373 0 4263.85538999 0 -7704.75505761 0 1302
0.03450000 0.03451200 47738.95172848 0 667.55807104 0 25063.11047981 0 2211.37393873 0 2146.03569751 0 1339
0.03550000 0.03553350 46833.02276175 0 635.61764207 0 21219.34526543 0 -1099.11099870 0 -1354.19078259 0 1365
0.03650000 0.03647120 46301.64351596 0 1956.24313533 0 25482.57954839 0 -310.88625046 0 -623.45947197 0 1308
0.03750000 0.03744890 43011.43994127 0 2693.05353100 0 26639.50230206 0 -2767.49764491 0 -681.75813049 0 1579
0.03850000 0.03847530 40640.91841752 0 2372.15192970 0 28759.69551068 0 -1652.85453401 0 -2041.23497755 0 1662
0.03950000 0.03950240 40199.15604308 0 -699.86007303 0 30240.03756736 0 4492.79987739 0 2905.09503425 0 1683
0.04050000 0.04050350 41120.50177357 0 -1641.46387475 0 24694.43909325 0 7763.09475356 0 -1784.88414248 0 1822
0.04150000 0.04152450 40359.42383898 0 401.79635536 0 23791.61566166 0 1737.01453646 0 4435.13674446 0 1887
0.04250000 0.04250150 41509.58096251 0 750.05106658 0 16862.05763235 0 3942.08867532 0 259.28223842 0 1920
0.04350000 0.04349210 41847.86246943 0 -1163.97675493 0 16123.49482757 0 4524.13250877 0 5571.58514856 0 2005
0.04450000 0.04448520 40140.03996334 0 747.78291681 0 19269.29101799 0 -1912.11126268 0 3888.77329159 0 2151
0.04550000 0.04548030 40255.05567570 0 1880.54571616 0 14220.79999110 0 -1917.43503721 0 -57.76971934 0 2274
0.04650000 0.04648670 37077.31683806 0 1773.40475364 0 21114.20071836 0 -3483.54531989 0 933.83220001 0 2311
0.04750000 0.04749250 37011.10239228 0 612.27399985 0 20897.25690605 0 -1586.11880197 0 -5988.39232988 0 2568
0.04850000 0.04851840 36715.07834573 0 183.29533901 0 26377.75005408 0 414.41702837 0 -4312.57901818 0 2493
0.04950000 0.04949480 36851.05642032 0 488.30214596 0 20796.43792580 0 -755.85176259 0 -11092.19515595 0 2644
0.05050000 0.05050630 35842.64479378 0 -213.81609477 0 23450.00679566 0 945.34818980 0 -3546.09967068 0 2829
0.05150000 0.05149060 37579.85897178 0 -22.78409133 0 23169.17768893 0 1465.96786543 0 -9259.24176589 0 2784
0.05250000 0.05249300 36236.49319742 0 -1.36718967 0 21285.67062318 0 2728.07953096 0 -4978.90485724 0 3055
0.05350000 0.05348950 37097.39190454 0 647.56840678 0 22517.34804428 0 487.19746275 0 -6685.10804857 0 3009
0.05450000 0.05448610 36038.18259598 0 114.88483623 0 20910.01178255 0 607.15319422 0 -1890.11741913 0 3336
0.05550000 0.05550870 35552.16634571 0 21.68340095 0 17833.75739699 0 3187.77637087 0 -4047.56595830 0 3349
0.05650000 0.05647670 36185.58460342 0 -334.15447254 0 17347.74114671 0 995.71109691 0 -3448.68568788 0 3324
0.05750000 0.05747970 36104.50795373 0 -122.96699145 0 17334.54262235 0 956.17430715 0 -4367.34734871 0 3639
0.05850000 0.05849280 36167.50595240 0 1202.57412031 0 16131.36957740 0 -687.41796829 0 -3978.04633583 0 3846
0.05950000 0.05951020 34621.17127388 0 548.08258839 0 16500.70643578 0 1572.63190649 0 -412.21209842 0 3787
0.06050000 0.06049470 34238.85771507 0 -549.90709029 0 14878.95161801 0 1362.26517397 0 -4181.88035334 0 3930
0.06150000 0.06148310 35896.76983489 0 -832.27010956 0 13723.35980797 0 4601.41596911 0 648.41244687 0 4083
0.06250000 0.06249100 35354.63212806 0 220.78691205 0 12034.83598458 0 2279.09678730 0 1919.83073575 0 4303
0.06350000 0.06350600 35461.32944270 0 563.41062258 0 11968.17789092 0 70.92787175 0 5751.14053596 0 4470
0.06450000 0.06451750 33967.89977363 0 1679.92814576 0 12956.62536294 0 -599.96055300 0 4804.79524755 0 4479
0.06550000 0.06550280 31887.63487402 0 1538.57084066 0 12867.89578736 0 -1450.37364253 0 3499.01753963 0 4636
0.06650000 0.06648880 30349.17494533 0 982.33844075 0 15971.10178150 0 292.64012236 0 5938.34884924 0 4653
0.06750000 0.06749660 29426.83100712 0 889.12358511 0 16746.70918409 0 846.78848636 0 6141.83903965 0 5220
0.06850000 0.06852730 28104.09485907 0 549.76512297 0 14252.85355028 0 1570.50239667 0 6030.25050716 0 5029
0.06950000 0.06949320 28149.90150247 0 -258.66778611 0 15289.99137691 0 3029.89318232 0 7371.50895411 0 5040
0.07050000 0.07048030 27863.41588529 0 -539.74200829 0 10254.01122018 0 2663.11839043 0 7595.50676767 0 5475
0.07150000 0.07148790 28667.30584010 0 -259.67597591 0 10069.25406141 0 1466.76643161 0 5916.39937048 0 5509
0.07250000 0.07249820 27774.57539774 0 517.51968608 0 8325.82881312 0 -434.17710485 0 5652.42888312 0 5916
0.07350000 0.07351270 26879.07215614 0 1242.60225009 0 9066.74295166 0 -924.01316335 0 4640.84517426 0 5721
0.07450000 0.07449140 26226.79886361 0 534.51916365 0 9891.79491024 0 -654.52480551 0 4509.28139606 0 6028
0.07550000 0.07549160 25297.57838329 0 355.70910469 0 9574.78631907 0 647.14028658 0 3389.52524336 0 6183
0.07650000 0.07648840 25342.27590699 0 187.73625426 0 10099.30011395 0 211.64111105 0 2855.72811664 0 6330
0.07750000 0.07749960 24957.30046092 0 295.84326004 0 9693.77267993 0 481.73948473 0 3415.13481712 0 6583
0.07850000 0.07848650 24365.69601570 0 351.10071235 0 9385.16012484 0 116.38436606 0 1843.04637928 0 6549
0.07950000 0.07947320 23992.92088627 0 323.92284335 0 10147.82410059 0 -459.47390685 0 5121.30473486 0 6828
0.08050000 0.08048110 23811.02525632 0 61.71341624 0 9449.52234073 0 1945.38485352 0 3309.22497746 0 7147
0.08150000 0.08149960 23592.52867644 0 -98.28808003 0 8858.59445853 0 681.56403455 0 2902.74370050 0 7386
0.08250000 0.08250610 23407.19477544 0 281.52785214 0 7747.99963451 0 446.41069509 0 1920.92876425 0 7227
0.08350000 0.08350160 23391.11253986 0 512.41995373 0 8807.84114130 0 -325.75178173 0 2963.10199429 0 7798
0.08450000 0.08449610 22055.73242730 0 654.84645022 0 7481.62235741 0 -848.58193291 0 1949.33331963 0 7371
0.08550000 0.08548940 21893.80095185 0 368.71353311 0 8919.79568329 0 85.16652857 0 727.71783241 0 8256
0.08650000 0.08650700 21190.72997730 0 164.98931844 0 8198.73478729 0 -41.07081321 0 562.65309382 0 8037
0.08750000 0.08749060 21554.96488508 0 -33.59224093 0 7945.22329865 0 452.28792035 0 -1668.73712804 0 8155
0.08850000 0.08849210 20885.61114926 0 459.26982883 0 8150.95391084 0 -147.20458414 0 -277.17899381 0 8718
0.08950000 0.08949900 20283.24824300 0 570.45686000 0 8141.93676772 0 -500.90285482 0 -6.95711965 0 8571
0.09050000 0.09049190 19863.33552654 0 597.54710854 0 9136.02965899 0 -497.81839294 0 -434.93019713 0 8932
0.09150000 0.09150830 19310.43935867 0 100.94142707 0 8794.97535284 0 1368.97534812 0 109.03811176 0 9285
0.09250000 0.09250820 19232.13550822 0 -304.36573577 0 8869.57474351 0 1634.49860306 0 382.37566951 0 9204
0.09350000 0.09350330 19794.12645758 0 -170.14894326 0 7177.20227477 0 936.69594707 0 1731.54657636 0 9349
0.09450000 0.09448040 19553.22565987 0 87.52939716 0 6509.43458011 0 792.33958231 0 1294.64214618 0 9564
0.09550000 0.09549270 19192.42902314 0 267.50636095 0 6215.67313774 0 48.55304558 0 911.94705019 0 10155
0.09650000 0.09649430 18816.77018251 0 499.09831707 0 5939.83506964 0 -297.24629645 0 1930.57810560 0 9913
0.09750000 0.09749140 18125.12314082 0 476.35138125 0 6424.90856817 0 -233.84901470 0 744.77942067 0 10476
0.09850000 0.09850240 17655.41095006 0 325.51443011 0 6082.50113598 0 -133.43819048 0 248.75780163 0 10575
0.09950000 0.09950330 17115.04783474 0 250.29171417 0 6010.38617342 0 -260.38137604 0 -1001.81236435 0 10882
0.10050000 0.10051200 16846.41904466 0 140.67076001 0 5579.88136388 0 401.01775334 0 -989.19612782 0 10875
0.10150000 0.10150300 16415.52604322 0 182.64206751 0 6015.31066487 0 -106.07387846 0 -765.83827632 0 11118
0.10250000 0.10250800 16536.97464980 0 242.53674927 0 5334.07825711 0 239.01529423 0 -1528.54439862 0 11575
0.10350000 0.10349800 16340.66046382 0 -36.46186632 0 5436.05072185 0 735.51938034 0 -959.57043165 0 11364
0.10450000 0.10450100 16203.12962166 0 -15.13538009 0 5075.07662598 0 356.32799348 0 -502.23158021 0 12093
0.10550000 0.10551000 16130.03863377 0 458.85945454 0 5628.50517130 0 -21.90034476 0 -84.32160118 0 12067
0.10650000 0.10649700 15668.97757663 0 246.62496446 0 4631.14037693 0 -82.81752396 0 510.51004961 0 12054
0.10750000 0.10749900 15282.67118693 0 218.28030154 0 5443.69255655 0 -129.40986775 0 -26.70604948 0 12807
0.10850000 0.10850100 15147.80223204 0 177.45804205 0 6292.12475830 0 79.44957110 0 285.66819596 0 12736
0.10950000 0.10950300 15136.04556327 0 93.93323246 0 5265.07992090 0 -101.65392557 0 -194.08152804 0 12933
0.11050000 0.11050200 14988.08899598 0 45.16645951 0 5853.51228379 0 321.99741156 0 86.85527421 0 13428
0.11150000 0.11150900 14781.79273274 0 65.30463490 0 5850.28474548 0 -308.32751132 0 -522.03713060 0 13453
0.11250000 0.11250000 15025.02268182 0 347.50161894 0 6045.66727092 0 -330.09065797 0 -1293.34447613 0 13668
0.11350000 0.11349100 14565.29256831 0 113.62709450 0 6226.22086604 0 -546.24034058 0 -963.82612392 0 13791
0.11450000 0.11448600 14365.31828734 0 -60.14367913 0 6049.21645394 0 410.56505567 0 -1083.32933456 0 14205
0.11550000 0.11549300 14772.58703928 0 -92.99924276 0 6322.69209709 0 641.00907290 0 -664.77861708 0 14776
0.11650000 0.11649800 14894.92294162 0 -139.76128186 0 5711.67805721 0 994.93138576 0 -479.72532336 0 14553
0.11750000 0.11747300 15175.08657653 0 -132.51540290 0 4996.20712448 0 612.50802411 0 486.15599935 0 14568
0.11850000 0.11849100 14966.46116193 0 75.01963613 0 4793.39349708 0 455.09066582 0 965.11935748 0 16015
0.11950000 0.11950300 15026.46453742 0 86.43846703 0 4553.97891976 0 382.23813867 0 1039.97828217 0 15270
0.12050000 0.12050700 14813.73537995 0 215.34113435 0 4874.42578199 0 -68.08153788 0 1964.66135382 0 15999
0.12150000 0.12150000 14443.84396173 0 335.53754480 0 4698.36412163 0 234.65756295 0 741.48200782 0 15670
0.12250000 0.12250700 13938.63994074 0 400.33675385 0 5375.23768899 0 -341.97154815 0 2232.63576328 0 16887
0.12350000 0.12352200 13518.94904822 0 191.65366503 0 4388.56480847 0 -333.95372187 0 762.53088139 0 16407
0.12450000 0.12449800 13420.34830735 0 190.12086161 0 6183.58630497 0 256.03695419 0 1493.25220993 0 16306
0.12550000 0.12549900 13094.59985298 0 196.76781594 0 4321.31888138 0 101.04535159 0 136.87424330 0 17523
0.12650000 0.12650100 12916.25340605 0 195.68642424 0 5590.12962986 0 20.67798394 0 1617.86180764 0 17154
0.12750000 0.12750600 12833.62398879 0 -190.97044729 0 4467.52303955 0 835.42222773 0 982.24305645 0 18007
0.12850000 0.12850300 13258.19500797 0 -273.59764632 0 4498.43420544 0 1012.51980588 0 1783.66411082 0 17496
0.12950000 0.12949900 13137.74460911 0 -66.78996799 0 3657.47747043 0 196.61808478 0 557.91049801 0 18405
0.13050000 0.13049000 13512.84888990 0 175.28416745 0 3724.81212711 0 -347.10344497 0 1434.90142278 0 18100
0.13150000 0.13148800 12806.78329217 0 373.03799080 0 3781.99833857 0 -657.44622678 0 1013.94724293 0 19059
0.13250000 0.13249300 12822.86552775 0 214.04457342 0 4020.20397543 0 -286.91262826 0 500.59562866 0 18957
0.13350000 0.13349100 12432.89904305 0 208.86054797 0 4795.06826782 0 102.28346190 0 107.43743021 0 19468
0.13450000 0.13450700 12068.22048739 0 287.31967518 0 4236.73741345 0 -12.15739371 0 -144.20441536 0 19953
0.13550000 0.13551000 11919.15480041 0 128.08225148 0 4757.60220453 0 297.18196751 0 907.90430891 0 19956
0.13650000 0.13649900 11691.67435100 0 26.44729186 0 4063.75910584 0 359.30819810 0 542.26525559 0 19723
0.13750000 0.13749600 11739.81014575 0 81.04182333 0 3882.14075582 0 909.02895628 0 1546.92251196 0 20946
0.13850000 0.13851100 11479.49975338 0 109.53610650 0 3447.54329460 0 392.49416848 0 1976.06310428 0 20955
0.13950000 0.13949800 11509.33507317 0 -36.52131514 0 2966.07443508 0 803.48179876 0 2301.05735726 0 20506
0.14050000 0.14048300 11243.36817035 0 60.21211182 0 2932.45701713 0 358.22236991 0 2705.38694200 0 21447
0.14150000 0.14148400 11167.17164732 0 155.19357330 0 2378.92865103 0 -75.85302866 0 2551.88477624 0 21771
0.14250000 0.14249400 11007.55823204 0 156.61768299 0 2425.64477258 0 18.65639147 0 2737.03012690 0 22470
0.14350000 0.14350900 10683.59546038 0 232.23968202 0 2454.27115190 0 -365.06785667 0 1667.73892032 0 22519
0.14450000 0.14449900 10554.42738072 0 197.65400257 0 2612.81981227 0 -75.77450299 0 1596.47797992 0 22218
0.14550000 0.14550500 10393.69375454 0 -37.15562069 0 2394.96652182 0 130.22507073 0 973.24809573 0 23559
0.14650000 0.14650700 10347.35473369 0 26.71958074 0 2436.68051354 0 -138.85845843 0 386.92971498 0 23044
0.14750000 0.14750500 10475.26950810 0 39.62330110 0 2303.13141109 0 74.17748154 0 769.75901444 0 23649
0.14850000 0.14849900 10028.22772390 0 242.93714148 0 2362.35840279 0 -307.20508219 0 -268.63544480 0 23640
0.14950000 0.14949500 10098.04680869 0 219.77983137 0 2554.02537725 0 -90.04354969 0 778.70628302 0 24457
0.15050000 0.15050000 9776.60173874 0 23.11050526 0 2784.82209455 0 320.11634456 0 466.19517220 0 24591
0.15150000 0.15149900 9900.96733012 0 8.29724680 0 2555.34522969 0 271.94949445 0 667.77324026 0 25020
0.15250000 0.15250500 9651.87013786 0 90.36807811 0 2727.01477605 0 -27.12529673 0 1043.47866392 0 25297
0.15350000 0.15350100 9593.24207079 0 232.28959240 0 2868.72699946 0 -137.50089593 0 1067.76616700 0 25452
0.15450000 0.15450400 9453.31553009 0 145.30022562 0 2882.32480692 0 -122.86495243 0 1030.22801093 0 26061
0.15550000 0.15549900 9311.60330668 0 62.66692644 0 3168.13386108 0 -90.43917268 0 821.55601331 0 26128
0.15650000 0.15649500 9234.83004141 0 78.60652922 0 3093.50119681 0 -86.35140114 0 403.33692262 0 26331
0.15750000 0.15749700 9122.93095540 0 97.01447788 0 3088.08869270 0 5.20086189 0 464.46938196 0 27345
0.15850000 0.15849900 9026.51518033 0 76.26639758 0 3250.20871849 0 4.12454996 0 390.40902346 0 26980
0.15950000 0.15949700 8912.55313168 0 220.93331585 0 2983.94235336 0 71.01682315 0 150.22360795 0 27777
0.16050000 0.16050000 8740.95013250 0 143.20288028 0 3113.23243618 0 60.86150140 0 260.71189370 0 28224
0.16150000 0.16150500 8375.94993213 0 49.25079278 0 2943.99186195 0 115.69671185 0 240.25861741 0 28075
0.16250000 0.16249700 8564.04554118 0 97.96687896 0 3106.62208280 0 72.33323731 0 478.02171551 0 28590
0.16350000 0.16349900 8329.04526024 0 60.01912499 0 2907.40200322 0 43.29504185 0 707.61392882 0 29163
0.16450000 0.16449100 8306.47467445 0 70.95559974 0 2787.62816738 0 410.83789912 0 918.31450636 0 28996
0.16550000 0.16550500 8266.41327107 0 7.61469454 0 2892.32906657 0 248.00138200 0 1237.31174915 0 30777
0.16650000 0.16650700 8271.96996074 0 12.34960415 0 2575.91940003 0 262.43102923 0 909.92290675 0 29211
0.16750000 0.16749900 8255.21116215 0 -8.88783085 0 2646.04903833 0 188.33961538 0 1851.49787135 0 30922
0.16850000 0.16850800 8280.61000316 0 45.13961881 0 2451.95309174 0 -2.18825988 0 1114.62092851 0 30867
0.16950000 0.16949900 8278.51376694 0 88.78614069 0 2543.41110177 0 -207.20795963 0 1728.84032430 0 30852
0.17050000 0.17049200 8281.69694047 0 -21.81094971 0 2531.53242984 0 79.19891005 0 1143.54677015 0 31257
0.17150000 0.17149500 8145.03121167 0 120.79533508 0 2907.50182399 0 -237.98381292 0 1112.72433383 0 32608
0.17250000 0.17250900 8203.68146113 0 78.49129168 0 2586.83313782 0 57.17988948 0 1092.84669066 0 32361
0.17350000 0.17350400 8122.73790580 0 -42.62690814 0 2847.17680379 0 72.43283626 0 787.27090530 0 32508
0.17450000 0.17449800 8118.70071011 0 43.35437975 0 2486.45780544 0 234.13405846 0 762.26912914 0 32791
0.17550000 0.17549800 8119.82092101 0 55.53617410 0 2357.94410640 0 134.06040663 0 440.97268122 0 33633
0.17650000 0.17650100 8083.29760946 0 77.38860488 0 2256.06037124 0 -115.16211615 0 749.38781300 0 33984
0.17750000 0.17750300 7805.16366358 0 204.73129535 0 2371.88574097 0 -128.62793837 0 689.26465259 0 34069
0.17850000 0.17849800 7709.64627547 0 108.74075677 0 2333.68765868 0 27.27269874 0 506.59929357 0 34536
