### header ###
fiducial parameters:
Omega_m = 0.31
Omega_nu = 0
Omega_de = 0.69
Omega_k = 0
H_0 = 100
w_de = -1
zeff = 0
beta = 0
fgrowth = 0
b_1 = 2
gamma = 0.55
Lx = 3500 Ly = 3500 Lz = 3500
nx = 700 ny = 700 nz = 700
xoffset = 1379.75464 yoffset = 22.6059522 zoffset = 368.141391
bins = 400 dk = 0.001
kx_ny = 0.628318531 ky_ny = 0.628318531 kz_ny = 0.628318531
############################
A(data) = 3.32845155 (not used)
A(ran) = 3.33048435 (used)
Ngal = 186995
weighted Ngal = 0
Nran = 9399747
weighted Nran = 0
SN(data) = 6592.32868
SN(ran) = 132.47129
SN(data+ran) = 6724.79997
############################
13 columns: k_central k_mean P_0(k) sigma^{lin}_{P_0(k)} P^img_1(k) sigma^{lin}_{P_1(k)} P_2(k) sigma^{lin}_{P_2(k)} P^img_3(k) sigma^{lin}_{P_3(k)} P_4(k) sigma^{lin}_{P_4(k)} N_modes
### header ###
0.00050000 0 0 0 0 0 0 0 0 0 0 0 0
0.00150000 0.00179520 32352.68876206 0 -44255.98315083 0 -60906.19892147 0 62567.88204825 0 25631.97797128 0 3
0.00250000 0.00253879 40228.76953893 0 -36385.33706046 0 -5221.79097921 0 -94155.94369270 0 -52282.57147029 0 6
0.00350000 0.00331552 55879.55755257 0 -1569.87019845 0 -44568.97672871 0 -19198.41826950 0 -41764.23484444 0 7
0.00450000 0.00420575 74047.49271360 0 -2889.19025783 0 -36230.50395106 0 -33107.11197847 0 20498.19563986 0 24
0.00550000 0.00557378 71110.21102580 0 -12473.04917600 0 -40506.60402248 0 10721.59390112 0 34736.74154608 0 45
0.00650000 0.00659388 92121.48543649 0 -17803.25660538 0 -62352.60191549 0 36078.22181696 0 3529.54051364 0 40
0.00750000 0.00754703 91383.58810352 0 -18414.49246920 0 -74416.27501213 0 -7374.95831636 0 -15560.28384654 0 57
0.00850000 0.00846663 114148.38075172 0 556.83908838 0 -82043.58024145 0 -28150.45606231 0 11375.57523798 0 75
0.00950000 0.00948925 104616.93883032 0 10215.92404986 0 -60400.66216457 0 -45410.46584117 0 5321.26792464 0 112
0.01050000 0.01054430 86885.55318117 0 2082.90460448 0 -53078.03211541 0 -22475.97787966 0 4213.23516712 0 105
0.01150000 0.01145670 87196.21760769 0 1895.28591691 0 -30140.77135467 0 -12447.09577514 0 -1554.53107307 0 144
0.01250000 0.01249090 90924.74528577 0 -1832.59847175 0 -34829.68577650 0 -6066.56308597 0 -14317.07158061 0 169
0.01350000 0.01339930 89341.25509748 0 -373.26314210 0 -13411.80808570 0 -11071.07751696 0 -5433.12264586 0 180
0.01450000 0.01448870 82164.14155228 0 7991.82850822 0 -8379.77639508 0 -5808.14928827 0 -6451.10597536 0 267
0.01550000 0.01550050 74754.11287117 0 4207.93357497 0 2581.35408653 0 -14934.85125063 0 -4896.55271990 0 238
0.01650000 0.01653350 75021.29980566 0 1618.29436432 0 2510.07096375 0 2032.32874640 0 1741.04064095 0 315
0.01750000 0.01747870 73774.98200458 0 -96.47832942 0 20480.89337262 0 1281.19961547 0 6439.69313370 0 297
0.01850000 0.01844180 71972.99523641 0 4375.25537213 0 23152.42998154 0 -14101.79144785 0 -6012.18294733 0 388
0.01950000 0.01947590 71764.03708590 0 3970.00521804 0 33089.47697533 0 -6497.94410007 0 -3128.43846720 0 399
0.02050000 0.02045430 63617.99657531 0 2671.95807440 0 34860.63021599 0 8043.58003318 0 5081.63152337 0 462
0.02150000 0.02154770 66496.05127140 0 1107.21311807 0 38129.42778057 0 5770.63886019 0 1907.47514235 0 571
0.02250000 0.02255340 64634.61568758 0 489.32475432 0 35705.44668754 0 3593.78072636 0 11756.55785315 0 510
0.02350000 0.02348930 62628.99454344 0 5666.76980077 0 41224.20446503 0 7343.01566915 0 16363.17559362 0 555
0.02450000 0.02439640 57982.22667001 0 -155.41761548 0 23968.74207693 0 7002.33846368 0 10985.78621243 0 592
0.02550000 0.02547300 57467.15148373 0 -1323.49034944 0 30628.22946055 0 16450.46331360 0 24907.16825072 0 837
0.02650000 0.02652900 62097.83712159 0 -2920.75580434 0 9995.55305769 0 10699.65551356 0 22216.11113517 0 723
0.02750000 0.02749970 63341.82577130 0 -3315.74660126 0 13458.83476076 0 17108.94767642 0 33660.56270619 0 826
0.02850000 0.02848090 64850.22855626 0 -273.77399635 0 2303.54178537 0 3418.43999381 0 24319.66754837 0 831
0.02950000 0.02946900 60498.93016953 0 2738.08379061 0 -3511.39531543 0 -5958.44609811 0 26527.70303682 0 996
0.03050000 0.03053250 61027.09296821 0 3528.12084043 0 11661.50629530 0 -5843.61893611 0 24294.93417917 0 1041
0.03150000 0.03150510 54272.11037886 0 2531.52133864 0 9638.48306314 0 -6397.08075502 0 11836.96903102 0 1036
0.03250000 0.03246190 54518.66768702 0 375.11093551 0 19466.15976383 0 4029.66476643 0 20288.23928163 0 1059
0.03350000 0.03345080 52795.53932914 0 -482.92846104 0 9341.11698176 0 2180.48495523 0 7338.98956465 0 1302
0.03450000 0.03451200 56878.65257366 0 -1222.52718362 0 15542.20519551 0 5588.33285595 0 19798.56293636 0 1339
0.03550000 0.03553350 54749.03184763 0 -741.16812695 0 7645.51697471 0 2540.50520817 0 3788.54214477 0 1365
0.03650000 0.03647120 57901.92640410 0 1785.19469600 0 13906.91911747 0 -8860.99015707 0 10819.08552229 0 1308
0.03750000 0.03744890 51787.34952655 0 4964.22011248 0 11779.29480689 0 -7169.51607529 0 -32.22070352 0 1579
0.03850000 0.03847530 47631.03438217 0 3344.12897425 0 23359.50262856 0 -4791.66327036 0 2296.65415207 0 1662
0.03950000 0.03950240 45998.29927942 0 221.85721256 0 24229.82885309 0 936.54288855 0 -4392.92364887 0 1683
0.04050000 0.04050350 45280.92066081 0 -713.89043717 0 19287.81331690 0 5581.55613462 0 -9002.94638681 0 1822
0.04150000 0.04152450 45638.27902649 0 48.66562123 0 18034.61897372 0 4981.17855261 0 -4089.37977079 0 1887
0.04250000 0.04250150 46259.38605559 0 413.92125187 0 15002.39664004 0 -2122.84400469 0 -7132.19419755 0 1920
0.04350000 0.04349210 45000.86793787 0 829.25219487 0 11470.51588385 0 462.66040774 0 -7141.89899488 0 2005
0.04450000 0.04448520 43285.05976998 0 1410.16805359 0 15545.86529051 0 -3466.63124455 0 -10010.19343766 0 2151
0.04550000 0.04548030 40894.68500370 0 1668.47093932 0 15075.70945187 0 -3034.50712025 0 -9717.95148928 0 2274
0.04650000 0.04648670 40979.64357232 0 977.42836786 0 18925.24208866 0 2423.35998600 0 -10104.70152686 0 2311
0.04750000 0.04749250 40044.21202171 0 -29.96386676 0 18285.05820081 0 -473.22588195 0 -9965.46264037 0 2568
0.04850000 0.04851840 39153.81073071 0 529.72665744 0 16812.81271790 0 796.58751074 0 -11512.88425619 0 2493
0.04950000 0.04949480 39659.90204745 0 -28.26957552 0 18151.29836561 0 2052.70327519 0 -4920.43206693 0 2644
0.05050000 0.05050630 39104.34399232 0 -119.61301349 0 17092.31088100 0 2183.35757524 0 -5503.48519930 0 2829
0.05150000 0.05149060 39141.72132603 0 852.03240428 0 16305.27954555 0 1212.38982961 0 -5355.46208483 0 2784
0.05250000 0.05249300 38191.76030742 0 1166.62755100 0 16995.26290770 0 -691.54943916 0 -3178.55958621 0 3055
0.05350000 0.05348950 35780.64500284 0 1691.17461947 0 17565.57225478 0 -794.89499408 0 -944.03166473 0 3009
0.05450000 0.05448610 34935.49579539 0 388.12312777 0 16550.50591008 0 3198.56810550 0 2029.35630562 0 3336
0.05550000 0.05550870 34696.36958919 0 -723.03512905 0 15430.40593028 0 4982.82004976 0 881.87881527 0 3349
0.05650000 0.05647670 35686.48074075 0 -851.03419656 0 9747.40970837 0 4133.57819063 0 2676.37237079 0 3324
0.05750000 0.05747970 36060.69772579 0 -608.46417370 0 8477.96676166 0 1447.56756970 0 2366.49541925 0 3639
0.05850000 0.05849280 35825.67526245 0 852.88975380 0 8036.28202559 0 -490.68453507 0 2330.69303550 0 3846
0.05950000 0.05951020 35200.46449048 0 1245.71887644 0 9714.51321822 0 -3767.45777937 0 3114.35264708 0 3787
0.06050000 0.06049470 33325.38673442 0 1170.50946993 0 8281.33093097 0 -1902.33991817 0 -4068.81669165 0 3930
0.06150000 0.06148310 32594.80959144 0 430.64677687 0 14048.77552644 0 -621.28670649 0 134.49518155 0 4083
0.06250000 0.06249100 32119.77362614 0 609.97146736 0 10748.68969526 0 -420.01586459 0 -6947.07102929 0 4303
0.06350000 0.06350600 31990.33935776 0 482.80202140 0 13994.65048533 0 648.63759817 0 -2883.95521287 0 4470
0.06450000 0.06451750 30448.44115802 0 468.12060400 0 11466.85578886 0 -157.77782219 0 -6222.79368618 0 4479
0.06550000 0.06550280 30465.74342526 0 613.57721549 0 12575.97548368 0 1054.27372591 0 -2458.62999230 0 4636
0.06650000 0.06648880 29233.06779643 0 312.10184564 0 11386.55552295 0 1642.21807614 0 -5003.39422010 0 4653
0.06750000 0.06749660 28725.31280014 0 664.53904723 0 12000.23145010 0 860.35967495 0 -1273.30268325 0 5220
0.06850000 0.06852730 28555.06292699 0 194.97991499 0 9356.36737757 0 1972.20336774 0 -477.26085940 0 5029
0.06950000 0.06949320 27356.43727279 0 276.72758210 0 10152.51567690 0 1465.25802883 0 751.15907716 0 5040
0.07050000 0.07048030 27169.66151618 0 593.10508417 0 8880.99867637 0 992.49908627 0 3668.25811387 0 5475
0.07150000 0.07148790 26440.52622881 0 579.10355714 0 9222.18607689 0 -136.45166869 0 1550.74897491 0 5509
0.07250000 0.07249820 26017.50797720 0 496.17135020 0 9676.19313277 0 -348.15599956 0 4630.69672905 0 5916
0.07350000 0.07351270 24902.28812406 0 297.85742140 0 10273.98646588 0 593.13613952 0 2318.71454280 0 5721
0.07450000 0.07449140 25479.80674915 0 -424.39245091 0 9128.09945317 0 1658.27812932 0 3720.83038740 0 6028
0.07550000 0.07549160 25198.75581848 0 -220.65492681 0 7659.40315329 0 1582.81362528 0 3267.36680017 0 6183
0.07650000 0.07648840 25582.40032092 0 -111.96896055 0 6849.86777924 0 1081.80207674 0 3109.03996374 0 6330
0.07750000 0.07749960 25946.30249279 0 -51.29811683 0 6847.86027259 0 55.61192697 0 3384.55638713 0 6583
0.07850000 0.07848650 25198.97764242 0 586.92063275 0 5743.59852203 0 -20.96258406 0 1875.89850464 0 6549
0.07950000 0.07947320 24733.14737060 0 918.30896076 0 6754.55003266 0 -998.62697258 0 1885.20401888 0 6828
0.08050000 0.08048110 23296.61554186 0 845.51965343 0 7830.72887255 0 -1443.11999972 0 796.85702682 0 7147
0.08150000 0.08149960 22470.54319316 0 545.89873171 0 7920.05737277 0 454.69027361 0 1613.80242956 0 7386
0.08250000 0.08250610 22166.42257284 0 201.76550928 0 8553.42017450 0 44.69685823 0 796.11946223 0 7227
0.08350000 0.08350160 21401.01907144 0 249.08277370 0 7823.58614172 0 560.22523081 0 1527.00272224 0 7798
0.08450000 0.08449610 21950.58788023 0 -0.29907856 0 8700.09016294 0 1541.07745117 0 2493.15688840 0 7371
0.08550000 0.08548940 21740.18787412 0 -365.39837434 0 6676.78965086 0 1137.87916851 0 1795.72024190 0 8256
0.08650000 0.08650700 22039.76110369 0 35.03076918 0 7225.54880227 0 503.82427609 0 2281.42593866 0 8037
0.08750000 0.08749060 21563.39419476 0 588.54216574 0 6380.43286840 0 -1521.14657025 0 1696.93095068 0 8155
0.08850000 0.08849210 20598.01641239 0 888.72097467 0 8354.44410125 0 -1516.96518900 0 1743.91326096 0 8718
0.08950000 0.08949900 19903.04201162 0 521.79534251 0 7617.71134396 0 245.89849106 0 -229.93714953 0 8571
0.09050000 0.09049190 19693.75112520 0 3.48402224 0 8567.32853547 0 751.93324270 0 730.25328003 0 8932
0.09150000 0.09150830 19039.48141723 0 270.83482916 0 7417.32668870 0 386.86205867 0 -402.55388412 0 9285
0.09250000 0.09250820 19243.78126501 0 152.64037976 0 6786.52595347 0 975.74694240 0 -219.52251560 0 9204
0.09350000 0.09350330 18404.28856800 0 156.28716532 0 6313.34221806 0 198.89288927 0 585.13605916 0 9349
0.09450000 0.09448040 18380.10975866 0 265.05964291 0 5406.13776368 0 292.13990938 0 -1209.35084164 0 9564
0.09550000 0.09549270 18012.88022770 0 -11.92259307 0 5709.93673929 0 644.47285371 0 342.68693035 0 10155
0.09650000 0.09649430 17898.64089913 0 37.32276503 0 4882.10089027 0 246.85233400 0 -1197.86036160 0 9913
0.09750000 0.09749140 18335.52314692 0 231.48880799 0 5281.08451809 0 -393.67981744 0 -438.29415716 0 10476
0.09850000 0.09850240 17351.17941777 0 501.42081371 0 4451.05261208 0 -102.76737083 0 -1660.49636871 0 10575
0.09950000 0.09950330 16807.37803140 0 411.40576840 0 5455.57122848 0 -175.00356017 0 35.67982602 0 10882
0.10050000 0.10051200 16669.18171742 0 251.12466306 0 5843.04219387 0 369.87367231 0 -530.14257733 0 10875
0.10150000 0.10150300 16383.47248404 0 250.13976477 0 5672.94759747 0 399.20434264 0 -213.89595139 0 11118
0.10250000 0.10250800 16001.60257311 0 258.13540865 0 6161.60355262 0 -142.49526191 0 455.41231053 0 11575
0.10350000 0.10349800 15505.27150968 0 397.84899837 0 5483.72068634 0 44.35425116 0 -47.20757248 0 11364
0.10450000 0.10450100 15336.01984425 0 95.11034119 0 6141.30666220 0 425.25201867 0 881.22887113 0 12093
0.10550000 0.10551000 15198.82173800 0 -281.14187848 0 5418.53772187 0 940.77639842 0 342.86882598 0 12067
0.10650000 0.10649700 15580.13708908 0 232.00787600 0 5704.64623835 0 -114.53768176 0 1224.83415258 0 12054
0.10750000 0.10749900 15357.98041420 0 235.32747125 0 5040.68282424 0 -525.04062673 0 220.25675284 0 12807
0.10850000 0.10850100 14695.83595639 0 210.23696551 0 6267.01428841 0 -122.32702938 0 1699.55956436 0 12736
0.10950000 0.10950300 14781.34908487 0 -162.74889666 0 5459.04277313 0 763.76089513 0 153.66076988 0 12933
0.11050000 0.11050200 15160.66802049 0 -117.88722324 0 5201.82682470 0 529.04454883 0 671.67623247 0 13428
0.11150000 0.11150900 15127.28351768 0 158.53091446 0 4694.53765868 0 -53.59321821 0 272.92884714 0 13453
0.11250000 0.11250000 14738.42615268 0 297.14093008 0 5986.99483906 0 -152.03812777 0 777.30879220 0 13668
0.11350000 0.11349100 14515.82582993 0 116.32225535 0 4848.47238113 0 -99.19489629 0 599.06660252 0 13791
0.11450000 0.11448600 14671.98988296 0 -171.90135238 0 6095.97694027 0 918.99550586 0 1205.00309244 0 14205
0.11550000 0.11549300 14506.39831252 0 98.36915668 0 3942.95378868 0 -206.39719313 0 -183.15448080 0 14776
0.11650000 0.11649800 14704.59800198 0 196.94305685 0 5087.69840810 0 506.82555399 0 996.24125612 0 14553
0.11750000 0.11747300 14032.47146692 0 320.66979529 0 4141.26439012 0 -869.07402839 0 24.72249982 0 14568
0.11850000 0.11849100 14058.42486778 0 123.78108530 0 5154.95542640 0 395.73279799 0 469.09773845 0 16015
0.11950000 0.11950300 13755.08063125 0 116.26458113 0 4670.88013559 0 346.08749133 0 -225.07144143 0 15270
0.12050000 0.12050700 13628.97372195 0 -28.61074074 0 3864.33938471 0 255.83731265 0 -21.44527295 0 15999
0.12150000 0.12150000 13763.39902896 0 -152.61154265 0 3830.79960514 0 756.34532085 0 -607.12657535 0 15670
0.12250000 0.12250700 13839.70646396 0 13.94928749 0 3449.89462835 0 186.25003387 0 265.55209205 0 16887
0.12350000 0.12352200 13947.18016239 0 2.03494627 0 2453.41712973 0 254.71488351 0 -481.58420797 0 16407
0.12450000 0.12449800 13882.18574827 0 197.83700732 0 3023.43810569 0 -357.38165719 0 -194.89340365 0 16306
0.12550000 0.12549900 13296.57054941 0 217.45511649 0 3237.06565011 0 -107.23856505 0 -585.21924314 0 17523
0.12650000 0.12650100 13161.59068255 0 344.96062572 0 2988.75593283 0 -54.80371145 0 26.64227510 0 17154
0.12750000 0.12750600 12728.92308960 0 213.27928084 0 3277.01614152 0 179.18605054 0 -196.33858662 0 18007
0.12850000 0.12850300 12614.35102512 0 144.82663151 0 3914.87087801 0 309.13716870 0 283.70283586 0 17496
0.12950000 0.12949900 12166.15575644 0 283.44884745 0 3381.02938650 0 -5.12605177 0 607.47040245 0 18405
0.13050000 0.13049000 12236.47394510 0 65.37983321 0 3735.72586490 0 63.39439804 0 1370.87194280 0 18100
0.13150000 0.13148800 12006.33160842 0 -42.09197971 0 3522.94125145 0 492.39368852 0 1225.42198602 0 19059
0.13250000 0.13249300 12281.61511668 0 45.64260459 0 3421.14624586 0 201.55144918 0 719.34952431 0 18957
0.13350000 0.13349100 11964.29597199 0 146.04222670 0 3482.00364352 0 -207.05157375 0 1398.43356722 0 19468
0.13450000 0.13450700 11778.07477523 0 131.59372443 0 2867.48478540 0 317.12504874 0 1168.43541610 0 19953
0.13550000 0.13551000 11789.38779611 0 9.63643119 0 3144.38760841 0 351.39241083 0 1540.82235364 0 19956
0.13650000 0.13649900 11610.59770131 0 130.74302963 0 2796.92259042 0 390.92809147 0 1492.52019093 0 19723
0.13750000 0.13749600 11425.15288833 0 116.47975035 0 2447.36133620 0 445.30823011 0 1526.04887930 0 20946
0.13850000 0.13851100 11251.90839200 0 117.47573984 0 2509.58295108 0 -84.36097493 0 1846.22955280 0 20955
0.13950000 0.13949800 11056.59241374 0 93.79791986 0 2142.84143279 0 -19.50320436 0 1049.46014644 0 20506
0.14050000 0.14048300 10870.54867613 0 240.66788258 0 2341.32949338 0 -156.84727076 0 1483.64723337 0 21447
0.14150000 0.14148400 10710.43615699 0 139.68918908 0 2394.06813486 0 -407.24324219 0 514.37533175 0 21771
0.14250000 0.14249400 10605.66871062 0 72.92495267 0 2612.78653868 0 40.52956280 0 724.09322924 0 22470
0.14350000 0.14350900 10543.01453906 0 -23.87979068 0 2347.27437494 0 85.43593374 0 -89.09547417 0 22519
0.14450000 0.14449900 10626.00996582 0 146.90290358 0 2274.01701910 0 -193.40718326 0 357.05335776 0 22218
0.14550000 0.14550500 10334.05638855 0 97.29774705 0 2959.06479860 0 -288.53416125 0 -224.87956372 0 23559
0.14650000 0.14650700 10399.07298506 0 206.27518996 0 2856.43795324 0 -500.53240884 0 -421.36899062 0 23044
0.14750000 0.14750500 10221.74692825 0 202.23355779 0 3540.39879545 0 -325.20831308 0 237.91393838 0 23649
0.14850000 0.14849900 9968.41289876 0 71.32593481 0 3867.66674380 0 -63.04302893 0 -695.49014143 0 23640
0.14950000 0.14949500 10072.33741416 0 74.14930990 0 4002.21405398 0 161.80947228 0 95.36399686 0 24457
0.15050000 0.15050000 9982.16598298 0 122.41021336 0 4268.19204799 0 -93.91859208 0 -82.96337320 0 24591
0.15150000 0.15149900 9815.38765447 0 74.86236295 0 4424.04554751 0 198.62337319 0 797.23080016 0 25020
0.15250000 0.15250500 9885.41747200 0 54.98582890 0 3917.14457339 0 312.37247085 0 149.02243132 0 25297
0.15350000 0.15350100 9762.46046263 0 -68.60027316 0 4096.66668719 0 344.18202370 0 815.45141851 0 25452
0.15450000 0.15450400 9764.46796928 0 108.12586081 0 3518.11658078 0 213.47337678 0 745.59462365 0 26061
0.15550000 0.15549900 9798.48467032 0 29.91096175 0 3797.13782241 0 368.84108187 0 890.17835794 0 26128
0.15650000 0.15649500 9425.94245602 0 70.68575092 0 2759.40107114 0 -82.86998533 0 210.97453011 0 26331
0.15750000 0.15749700 9457.05326346 0 189.92898390 0 3442.77407991 0 262.93235133 0 473.03622248 0 27345
0.15850000 0.15849900 9188.84593886 0 110.92416980 0 2957.72276377 0 79.72552008 0 657.34418777 0 26980
0.15950000 0.15949700 9040.49008848 0 58.64614572 0 2672.95628213 0 397.18574479 0 508.82529680 0 27777
0.16050000 0.16050000 8882.56253514 0 104.38435643 0 2494.27709929 0 156.43578736 0 866.29457444 0 28224
0.16150000 0.16150500 8886.77718998 0 89.92443023 0 2358.83140216 0 216.24063042 0 622.40469914 0 28075
0.16250000 0.16249700 8612.08151516 0 139.39194501 0 2146.04678871 0 184.26692786 0 962.62272905 0 28590
0.16350000 0.16349900 8502.85540761 0 122.49117910 0 2345.81033694 0 2.12931017 0 900.20812734 0 29163
0.16450000 0.16449100 8360.57753316 0 54.49803806 0 2039.34947407 0 152.66810775 0 879.01063174 0 28996
0.16550000 0.16550500 8365.31347426 0 54.56092515 0 2123.26547018 0 -41.27112023 0 684.24255861 0 30777
0.16650000 0.16650700 8228.32610075 0 127.44118029 0 1965.97011506 0 -307.35592247 0 -96.46723822 0 29211
0.16750000 0.16749900 8029.32784511 0 190.95270138 0 2443.26868453 0 -413.68279113 0 275.51309603 0 30922
0.16850000 0.16850800 7912.11607576 0 131.34749986 0 2505.35720504 0 -365.42942969 0 -426.49977833 0 30867
0.16950000 0.16949900 7853.76528861 0 33.58492074 0 2773.77526239 0 31.71028663 0 -464.81653642 0 30852
0.17050000 0.17049200 7955.33847026 0 -57.57695433 0 2650.70734105 0 90.18684795 0 -689.17370477 0 31257
0.17150000 0.17149500 7936.99363051 0 11.43613317 0 2505.60121138 0 34.41032762 0 -803.10580718 0 32608
0.17250000 0.17250900 8030.61442395 0 -7.96728369 0 2754.21039097 0 -33.29022764 0 -460.89579830 0 32361
0.17350000 0.17350400 7988.75624667 0 109.16588235 0 2771.43501983 0 -87.78394013 0 -776.85405313 0 32508
0.17450000 0.17449800 8048.53779822 0 17.53096772 0 2664.34951330 0 116.09155846 0 -502.32252802 0 32791
0.17550000 0.17549800 7899.35010807 0 109.90677430 0 2793.27358662 0 22.82779065 0 -746.05823568 0 33633
0.17650000 0.17650100 7805.89568258 0 36.11360274 0 2532.13135448 0 182.79068954 0 -248.07125654 0 33984
0.17750000 0.17750300 7850.53775030 0 -65.70979632 0 2399.12572067 0 555.26857490 0 -201.81431055 0 34069
0.17850000 0.17849800 7878.99776167 0 -46.88947695 0 1900.56532665 0 304.98351544 0 -241.57957897 0 34536
