### header ###
fiducial parameters:
Omega_m = 0.31
Omega_nu = 0
Omega_de = 0.69
Omega_k = 0
H_0 = 100
w_de = -1
zeff = 0
beta = 0
fgrowth = 0
b_1 = 2
gamma = 0.55
Lx = 3500 Ly = 3500 Lz = 3500
nx = 700 ny = 700 nz = 700
xoffset = 1379.75464 yoffset = 22.6059522 zoffset = 368.141391
bins = 400 dk = 0.001
kx_ny = 0.628318531 ky_ny = 0.628318531 kz_ny = 0.628318531
############################
A(data) = 3.30920836 (not used)
A(ran) = 3.31520986 (used)
Ngal = 185898
weighted Ngal = 0
Nran = 9399747
weighted Nran = 0
SN(data) = 6659.08585
SN(ran) = 131.863741
SN(data+ran) = 6790.94959
############################
13 columns: k_central k_mean P_0(k) sigma^{lin}_{P_0(k)} P^img_1(k) sigma^{lin}_{P_1(k)} P_2(k) sigma^{lin}_{P_2(k)} P^img_3(k) sigma^{lin}_{P_3(k)} P_4(k) sigma^{lin}_{P_4(k)} N_modes
### header ###
0.00050000 0 0 0 0 0 0 0 0 0 0 0 0
0.00150000 0.00179520 8626.66643915 0 -16055.17305437 0 -16107.19076806 0 13304.00165136 0 41303.50652321 0 3
0.00250000 0.00253879 13249.54387435 0 -11647.30956321 0 -5879.62096140 0 -26551.99275814 0 -19920.23336689 0 6
0.00350000 0.00331552 28945.58397153 0 -9095.97934681 0 -32540.35181442 0 8544.04811308 0 19779.26425367 0 7
0.00450000 0.00420575 36076.11448954 0 -5342.57411397 0 -14767.48508868 0 -19745.87975086 0 -17066.02474423 0 24
0.00550000 0.00557378 41155.54995592 0 2495.95187003 0 -4073.91864225 0 -20178.21460790 0 977.97960035 0 45
0.00650000 0.00659388 41006.37335697 0 -4806.38128871 0 11224.06948766 0 189.46759011 0 -21735.97321928 0 40
0.00750000 0.00754703 45401.48197164 0 -3828.96955765 0 8263.10809438 0 6558.61294738 0 9412.14500702 0 57
0.00850000 0.00846663 55878.55934484 0 -6072.07541085 0 -5750.21996661 0 807.95155113 0 -30060.13835286 0 75
0.00950000 0.00948925 58518.04239458 0 -8375.92774974 0 -8456.16146846 0 6384.18169297 0 4431.63192622 0 112
0.01050000 0.01054430 74801.02863426 0 -7441.82714276 0 -11463.86116568 0 -5111.14519845 0 128.92185509 0 105
0.01150000 0.01145670 76485.22689085 0 -6589.46865729 0 -25298.79841496 0 7565.24998240 0 -26798.66097826 0 144
0.01250000 0.01249090 87628.44155276 0 -5086.09018455 0 -22332.01414328 0 -3475.02728064 0 695.85836917 0 169
0.01350000 0.01339930 88941.75018340 0 -2944.56860419 0 -23995.36094960 0 -12207.85865697 0 -14414.00864194 0 180
0.01450000 0.01448870 85294.52097895 0 4222.06375989 0 -22029.22446659 0 -8324.91933497 0 -13048.79320958 0 267
0.01550000 0.01550050 83279.25049345 0 3733.18598080 0 -22881.13930418 0 -24744.79312739 0 -34616.29114722 0 238
0.01650000 0.01653350 71996.39766197 0 6824.43566464 0 3241.69067924 0 -22069.81824742 0 -21717.67274431 0 315
0.01750000 0.01747870 71530.90012605 0 7145.30399235 0 14754.06474037 0 -12054.02375530 0 -35977.95739655 0 297
0.01850000 0.01844180 60333.67133500 0 4500.25316174 0 20679.98035784 0 -8393.31874655 0 -25319.76077719 0 388
0.01950000 0.01947590 62924.13129423 0 -617.25061992 0 21640.36710159 0 9354.98097795 0 -12380.77041739 0 399
0.02050000 0.02045430 63518.50853868 0 -5146.00483046 0 13817.85680597 0 19137.86033416 0 -10634.17308677 0 462
0.02150000 0.02154770 68019.64899618 0 -398.07969527 0 7183.60189541 0 11812.79022167 0 2683.68146958 0 571
0.02250000 0.02255340 71435.95948017 0 -1381.29766793 0 -2318.21543894 0 3541.35263839 0 -2279.10787850 0 510
0.02350000 0.02348930 65486.41961321 0 2139.71371525 0 6329.69064237 0 -4162.29329953 0 14228.78565291 0 555
0.02450000 0.02439640 65254.39177305 0 1464.92529292 0 7921.61014034 0 -5122.94623201 0 899.67796813 0 592
0.02550000 0.02547300 66668.07573607 0 1166.10626474 0 4062.92726607 0 -4172.90757501 0 2798.61954355 0 837
0.02650000 0.02652900 57653.03994459 0 1851.47568896 0 10164.19470729 0 -292.55804750 0 -12285.60794758 0 723
0.02750000 0.02749970 64194.96064056 0 -1364.33922780 0 1050.75670736 0 1338.54110370 0 -4411.37940060 0 826
0.02850000 0.02848090 58088.92398465 0 -1367.66658688 0 7266.29785986 0 675.77221150 0 -19584.17009935 0 831
0.02950000 0.02946900 65919.97450191 0 931.70158108 0 1792.55925077 0 -2233.97779811 0 -13169.24360844 0 996
0.03050000 0.03053250 60852.40661627 0 -197.60741955 0 693.99837544 0 -1127.38689620 0 -18064.67611745 0 1041
0.03150000 0.03150510 61286.84880073 0 1477.30306872 0 3881.43091921 0 -8278.56922293 0 -17059.59185000 0 1036
0.03250000 0.03246190 60478.63327912 0 300.28195706 0 -3319.71724977 0 5450.05890360 0 -9256.35805468 0 1059
0.03350000 0.03345080 56793.80491701 0 337.11582212 0 8078.27329724 0 1546.55650246 0 -17867.03098783 0 1302
0.03450000 0.03451200 58704.48541528 0 3340.74615918 0 1399.86433162 0 -4369.75413845 0 -5915.53425712 0 1339
0.03550000 0.03553350 52863.63927840 0 1605.35093748 0 8738.58770755 0 2460.03857431 0 -7247.19881871 0 1365
0.03650000 0.03647120 49175.37264524 0 2101.48235937 0 9164.95550063 0 -1276.13093847 0 -5132.20738146 0 1308
0.03750000 0.03744890 49103.50168902 0 2270.68966001 0 10078.48193727 0 -2015.73631576 0 -4362.95523472 0 1579
0.03850000 0.03847530 47324.58461049 0 1414.94835947 0 13839.37372805 0 -1780.99113235 0 -2852.00147446 0 1662
0.03950000 0.03950240 45527.36705700 0 -558.66248116 0 9017.76422593 0 672.32950397 0 -398.70302054 0 1683
0.04050000 0.04050350 46638.37225531 0 -769.95421950 0 11133.12167269 0 1641.67460749 0 -8014.43236760 0 1822
0.04150000 0.04152450 46797.42001954 0 1007.47885687 0 9458.69476061 0 -2543.61074332 0 -9293.25846693 0 1887
0.04250000 0.04250150 46949.81306561 0 1902.25118859 0 13327.18225298 0 -1874.67847298 0 -10366.06558294 0 1920
0.04350000 0.04349210 43605.04080194 0 1372.24725122 0 12573.53542035 0 -1861.13612150 0 -5083.35065890 0 2005
0.04450000 0.04448520 41861.17190577 0 642.88237607 0 13396.61314588 0 1340.63733992 0 -9687.62815682 0 2151
0.04550000 0.04548030 42447.23075251 0 -23.09464485 0 15171.20465760 0 2433.19787770 0 -4685.89761626 0 2274
0.04650000 0.04648670 42211.65372933 0 358.24898879 0 14487.32145377 0 2945.24516721 0 -4061.01958020 0 2311
0.04750000 0.04749250 40351.32726521 0 1411.67645637 0 14372.19482945 0 661.19948783 0 -1418.85246080 0 2568
0.04850000 0.04851840 39479.22644917 0 732.60905026 0 14618.08666579 0 -1352.15000235 0 4842.22803725 0 2493
0.04950000 0.04949480 39670.43868456 0 499.34010517 0 14560.30152969 0 1085.49211796 0 -770.93246308 0 2644
0.05050000 0.05050630 39513.60915971 0 291.09179127 0 16978.62611228 0 1041.58428748 0 3198.98957099 0 2829
0.05150000 0.05149060 37964.50168195 0 926.32789616 0 14413.78681800 0 -2317.99361500 0 -168.75256157 0 2784
0.05250000 0.05249300 36748.79558445 0 408.70617106 0 15568.49133228 0 1340.07168888 0 930.16988678 0 3055
0.05350000 0.05348950 38925.99754539 0 -237.32721406 0 15699.14563233 0 1284.06114429 0 -3072.97139126 0 3009
0.05450000 0.05448610 36516.32409642 0 -365.73000113 0 13001.43379861 0 1750.93398863 0 -1350.17576929 0 3336
0.05550000 0.05550870 37453.08659067 0 780.89457617 0 11595.95732134 0 3397.21144285 0 -363.49845230 0 3349
0.05650000 0.05647670 35313.81652329 0 206.05780250 0 8717.72516609 0 323.68770998 0 -1652.62161888 0 3324
0.05750000 0.05747970 35182.05310355 0 1105.79788134 0 9673.77525183 0 1523.09862091 0 -890.75399107 0 3639
0.05850000 0.05849280 33204.93633556 0 1655.17259417 0 8048.29379189 0 -1413.14049437 0 -379.01725507 0 3846
0.05950000 0.05951020 31502.43760401 0 1067.84047802 0 10181.11987383 0 -1226.75292966 0 -487.96275534 0 3787
0.06050000 0.06049470 29870.36797308 0 705.39679855 0 9486.37838819 0 562.70078597 0 -1561.99544861 0 3930
0.06150000 0.06148310 29724.07508533 0 139.09913741 0 11731.04810017 0 58.99973308 0 -736.25029022 0 4083
0.06250000 0.06249100 30387.43957480 0 -440.82627743 0 9749.62794776 0 893.84510766 0 -3288.17388565 0 4303
0.06350000 0.06350600 30360.82070213 0 300.65351215 0 11471.84682749 0 -574.86339254 0 140.95580378 0 4470
0.06450000 0.06451750 30190.34900503 0 657.19002013 0 11812.12474986 0 -1269.63149706 0 -2910.31898802 0 4479
0.06550000 0.06550280 29514.11872710 0 358.55732406 0 14914.99800809 0 -1873.01479343 0 -128.28522038 0 4636
0.06650000 0.06648880 29560.59084231 0 435.57903215 0 13531.59301274 0 1059.28140134 0 -1023.02871499 0 4653
0.06750000 0.06749660 29509.23860044 0 -29.86260414 0 15048.20328344 0 1447.55647850 0 -585.34901014 0 5220
0.06850000 0.06852730 30125.24367895 0 -1008.03896231 0 13872.31458299 0 2477.08574402 0 1097.07354582 0 5029
0.06950000 0.06949320 30884.21428611 0 -112.82298272 0 11650.96965820 0 2446.36312848 0 1951.27427910 0 5040
0.07050000 0.07048030 30499.12792807 0 106.47049966 0 10228.14654889 0 1385.66759953 0 2712.09711616 0 5475
0.07150000 0.07148790 29778.53286234 0 750.43371288 0 9649.30807136 0 -421.49432114 0 1502.73518332 0 5509
0.07250000 0.07249820 28746.60789828 0 1067.49997827 0 11003.13284445 0 -515.09071395 0 3704.77033422 0 5916
0.07350000 0.07351270 27533.45277608 0 764.23448924 0 11110.38471894 0 -541.83824451 0 2383.35403861 0 5721
0.07450000 0.07449140 26691.96366362 0 764.07588512 0 10762.76442419 0 647.81684959 0 2044.05214157 0 6028
0.07550000 0.07549160 25964.93570367 0 -96.83091857 0 10808.63761477 0 1795.69805951 0 2391.63916273 0 6183
0.07650000 0.07648840 25773.94529222 0 35.48628464 0 8797.26013941 0 740.04569781 0 398.17064308 0 6330
0.07750000 0.07749960 25815.64819274 0 392.75037513 0 8656.56830612 0 1694.97890002 0 3336.11003886 0 6583
0.07850000 0.07848650 24648.74336182 0 482.37057383 0 8147.95928766 0 223.00847880 0 1235.20442173 0 6549
0.07950000 0.07947320 24406.28979653 0 361.63180386 0 6907.27581464 0 291.52656619 0 3608.92021019 0 6828
0.08050000 0.08048110 23714.97549075 0 18.37966611 0 7105.68623685 0 1296.42782888 0 1564.32459997 0 7147
0.08150000 0.08149960 23501.91359738 0 215.54743061 0 5033.35154306 0 206.77651206 0 1706.30301211 0 7386
0.08250000 0.08250610 22947.90830981 0 370.00565755 0 5282.00508744 0 -65.04299356 0 1508.35842017 0 7227
0.08350000 0.08350160 22362.40402291 0 391.10000503 0 5360.71931218 0 -183.60811076 0 555.36395919 0 7798
0.08450000 0.08449610 22137.14181290 0 -24.46141305 0 4503.05923457 0 433.27428142 0 229.29275099 0 7371
0.08550000 0.08548940 21911.65777894 0 82.22580861 0 4076.69144149 0 624.97342036 0 -502.47225918 0 8256
0.08650000 0.08650700 21574.26356777 0 289.86066840 0 3253.50280399 0 153.48331073 0 -468.48994085 0 8037
0.08750000 0.08749060 21625.61580964 0 411.05417746 0 3496.18928441 0 -238.79236118 0 -1061.21126960 0 8155
0.08850000 0.08849210 20934.19059189 0 305.68669733 0 3322.61205217 0 -183.85877181 0 -371.61277199 0 8718
0.08950000 0.08949900 20149.26658387 0 257.57641233 0 4552.48160817 0 -119.18489329 0 -1394.51837469 0 8571
0.09050000 0.09049190 20377.41250509 0 332.26120522 0 4170.07931979 0 -231.05181483 0 -1050.10676322 0 8932
0.09150000 0.09150830 19781.81522897 0 397.73808640 0 4928.12935761 0 -585.86696904 0 -2203.63228326 0 9285
0.09250000 0.09250820 19298.34995400 0 592.67141836 0 5019.19917575 0 -467.59820862 0 -1449.96326824 0 9204
0.09350000 0.09350330 18674.91377354 0 538.06501931 0 5535.23929616 0 -742.70758508 0 -1133.95288479 0 9349
0.09450000 0.09448040 18350.27443886 0 38.30599964 0 5807.71673159 0 131.50610398 0 -2482.93080481 0 9564
0.09550000 0.09549270 18476.27043620 0 37.90460922 0 6462.77391455 0 600.91439594 0 -1752.88603929 0 10155
0.09650000 0.09649430 18102.27527510 0 198.71099364 0 5635.67008453 0 12.80445414 0 -2335.07405830 0 9913
0.09750000 0.09749140 18138.09984125 0 139.79344634 0 5964.51298285 0 380.12859301 0 -955.18275414 0 10476
0.09850000 0.09850240 18002.23267863 0 225.32210248 0 6271.21785205 0 -206.33064595 0 -1506.91656457 0 10575
0.09950000 0.09950330 17491.48305916 0 228.72599083 0 5705.75535804 0 391.54254379 0 -1153.95031289 0 10882
0.10050000 0.10051200 17295.94525697 0 223.97895853 0 6173.59313652 0 97.04020946 0 -815.80744593 0 10875
0.10150000 0.10150300 16906.97697999 0 339.83094713 0 5672.33758164 0 -9.77103396 0 -161.33698729 0 11118
0.10250000 0.10250800 16491.05709443 0 342.82113383 0 6544.63803922 0 835.55088562 0 58.91643819 0 11575
0.10350000 0.10349800 16080.79371932 0 341.82292611 0 5462.50322658 0 -381.56379389 0 -747.88717406 0 11364
0.10450000 0.10450100 15495.17852045 0 361.02622450 0 6398.52261063 0 -505.97042270 0 -455.71399109 0 12093
0.10550000 0.10551000 15288.54952131 0 332.46084676 0 7027.53766315 0 -153.51103872 0 -551.33452734 0 12067
0.10650000 0.10649700 15089.12980018 0 -20.48033881 0 6587.66079218 0 867.17410635 0 210.32680421 0 12054
0.10750000 0.10749900 15116.63596861 0 -469.06224662 0 5509.29698650 0 1014.13246592 0 -476.43567435 0 12807
0.10850000 0.10850100 15880.26487850 0 -440.93940763 0 4878.51843366 0 1570.01438401 0 1091.77971751 0 12736
0.10950000 0.10950300 16062.49324435 0 23.50867923 0 3956.08576587 0 425.69123007 0 433.49499624 0 12933
0.11050000 0.11050200 16095.21227535 0 79.71476162 0 3565.20980302 0 -214.36843638 0 1165.48515771 0 13428
0.11150000 0.11150900 15801.85011607 0 351.10625795 0 4506.98551829 0 -440.97157211 0 1280.05722219 0 13453
0.11250000 0.11250000 15388.70302975 0 269.48503049 0 4209.48634255 0 -631.64921180 0 366.10155623 0 13668
0.11350000 0.11349100 14980.99062993 0 403.70404124 0 5295.01506146 0 -297.04887315 0 561.40533417 0 13791
0.11450000 0.11448600 14891.59558253 0 329.59820883 0 5641.12695343 0 -634.49854030 0 603.10047086 0 14205
0.11550000 0.11549300 14212.92524127 0 265.00196868 0 5699.92138845 0 330.28586304 0 -98.60096269 0 14776
0.11650000 0.11649800 14011.62001666 0 329.46622359 0 5857.34983793 0 -431.43647009 0 -326.55811175 0 14553
0.11750000 0.11747300 13775.71025757 0 235.70457195 0 5947.38817476 0 114.73288683 0 -262.02398230 0 14568
0.11850000 0.11849100 13473.80787664 0 20.13418256 0 6021.13354327 0 565.92721516 0 -39.23400008 0 16015
0.11950000 0.11950300 13482.45901026 0 84.09933360 0 5641.69260447 0 404.82757949 0 -130.56889783 0 15270
0.12050000 0.12050700 13429.66491279 0 -155.41096076 0 5115.02711738 0 495.35171074 0 52.26416008 0 15999
0.12150000 0.12150000 13294.13048608 0 103.66708872 0 4334.35103779 0 561.07148914 0 -170.44396910 0 15670
0.12250000 0.12250700 13299.34334864 0 147.77578078 0 4155.43893982 0 339.45273732 0 344.76098418 0 16887
0.12350000 0.12352200 13014.52141101 0 191.46733292 0 3840.93695915 0 49.42381546 0 228.57847791 0 16407
0.12450000 0.12449800 12587.95397639 0 188.06677193 0 4053.28901592 0 409.22745732 0 927.50689039 0 16306
0.12550000 0.12549900 12478.70568645 0 82.93974895 0 3528.17629641 0 418.54628100 0 838.40132323 0 17523
0.12650000 0.12650100 12339.51116475 0 204.91762746 0 3426.93585067 0 232.20862667 0 1414.44925561 0 17154
0.12750000 0.12750600 12118.57452154 0 238.37200481 0 3578.41941859 0 53.46078932 0 1412.47502255 0 18007
0.12850000 0.12850300 11924.36766297 0 19.81176146 0 3501.15814065 0 134.27113937 0 1375.80752544 0 17496
0.12950000 0.12949900 11733.82089940 0 -50.88951713 0 3222.83564443 0 521.19198139 0 1738.11256495 0 18405
0.13050000 0.13049000 12096.05939173 0 27.45603622 0 2835.30922306 0 146.48254721 0 1601.85721044 0 18100
0.13150000 0.13148800 11891.53772001 0 -111.20588620 0 2748.33205659 0 674.51003329 0 1638.75762269 0 19059
0.13250000 0.13249300 12109.59065201 0 18.54891778 0 2431.86693406 0 40.96500319 0 1577.35675639 0 18957
0.13350000 0.13349100 11602.50112754 0 218.94022776 0 2252.20063470 0 -348.84365377 0 1052.01666733 0 19468
0.13450000 0.13450700 11758.33244466 0 139.78679162 0 2155.82922442 0 109.16100222 0 1185.29403546 0 19953
0.13550000 0.13551000 11526.85916435 0 -68.72305271 0 2396.04236792 0 35.38846028 0 743.89877963 0 19956
0.13650000 0.13649900 11529.85378752 0 63.41325308 0 2050.04138792 0 150.69831117 0 924.30153448 0 19723
0.13750000 0.13749600 11655.96069683 0 -52.29477179 0 1886.26877379 0 419.39697580 0 1074.53290626 0 20946
0.13850000 0.13851100 11628.34361643 0 -52.66821239 0 1454.08919350 0 299.83720006 0 1282.29764397 0 20955
0.13950000 0.13949800 11680.58315405 0 157.65249166 0 1974.63233987 0 -123.79106738 0 1013.19747802 0 20506
0.14050000 0.14048300 11496.91293259 0 237.40817980 0 2084.12463615 0 -706.89632838 0 1266.21540840 0 21447
0.14150000 0.14148400 11184.03026668 0 315.42920473 0 2696.51398445 0 -415.67698835 0 1107.85086189 0 21771
0.14250000 0.14249400 11020.39074691 0 176.10602514 0 3111.96803973 0 -278.06628957 0 769.43404237 0 22470
0.14350000 0.14350900 10823.05617080 0 129.85351563 0 3602.04366809 0 -251.38974267 0 685.13429084 0 22519
0.14450000 0.14449900 10641.89255985 0 177.11754231 0 3866.90145121 0 188.01242507 0 788.37226116 0 22218
0.14550000 0.14550500 10604.80359726 0 110.67228872 0 3716.46045580 0 83.62529584 0 1391.98958179 0 23559
0.14650000 0.14650700 10447.19768862 0 -50.17923688 0 3223.10183315 0 515.99242826 0 1010.96814743 0 23044
0.14750000 0.14750500 10577.08669608 0 -100.80522718 0 3271.21544551 0 819.84020514 0 1818.92302592 0 23649
0.14850000 0.14849900 10604.14921664 0 5.89316331 0 2336.06117483 0 381.43957249 0 1537.56154174 0 23640
0.14950000 0.14949500 10486.29415786 0 70.46381607 0 2497.75973513 0 207.46305716 0 1990.01583004 0 24457
0.15050000 0.15050000 10276.91454187 0 245.99498447 0 2165.67820731 0 -119.56310310 0 1696.90876829 0 24591
0.15150000 0.15149900 9898.87109389 0 227.88084162 0 2323.82758459 0 -56.28893363 0 1684.60863087 0 25020
0.15250000 0.15250500 9836.42765508 0 89.02970338 0 2422.15104554 0 -58.31396437 0 1574.14030927 0 25297
0.15350000 0.15350100 9476.52940530 0 203.94271124 0 2151.52584000 0 -117.33599075 0 864.79060813 0 25452
0.15450000 0.15450400 9446.02861370 0 135.91263652 0 2432.85405059 0 -269.20442321 0 912.16554677 0 26061
0.15550000 0.15549900 9328.59502041 0 47.59299158 0 2242.10764548 0 -83.93108014 0 537.68680949 0 26128
0.15650000 0.15649500 9278.04134472 0 -44.58350620 0 2420.33208924 0 224.55902813 0 687.74072213 0 26331
0.15750000 0.15749700 9482.87356996 0 -20.88738574 0 2033.24931575 0 -148.57878344 0 -93.36369949 0 27345
0.15850000 0.15849900 9435.97998926 0 54.40232103 0 2286.17297095 0 -106.94731022 0 53.22532321 0 26980
0.15950000 0.15949700 9426.70774861 0 173.92105935 0 2488.70931842 0 -296.49431330 0 -295.61921786 0 27777
0.16050000 0.16050000 9225.95708385 0 84.06927645 0 2459.52837925 0 -108.19850815 0 -329.05584930 0 28224
0.16150000 0.16150500 9136.78386039 0 121.17465402 0 3002.29828431 0 103.39158339 0 -198.49582442 0 28075
0.16250000 0.16249700 8969.67279597 0 164.76305802 0 2542.71235636 0 258.09658946 0 68.11048590 0 28590
0.16350000 0.16349900 8816.31481576 0 55.57210957 0 2558.43967364 0 405.63169127 0 576.79436993 0 29163
0.16450000 0.16449100 8723.51477090 0 110.22631169 0 2369.45676884 0 271.57904847 0 516.62240825 0 28996
0.16550000 0.16550500 8507.89081103 0 168.48637284 0 2211.95068097 0 -62.35759295 0 780.37883552 0 30777
0.16650000 0.16650700 8303.82387838 0 153.96799604 0 2340.25364727 0 -60.57257572 0 581.57578494 0 29211
0.16750000 0.16749900 8257.11884803 0 53.95634400 0 2294.62446303 0 207.08262910 0 1132.96576826 0 30922
0.16850000 0.16850800 8126.77510149 0 -57.92055961 0 1903.20503153 0 173.51623066 0 360.36962564 0 30867
0.16950000 0.16949900 8249.55465171 0 72.82502099 0 1836.55802907 0 44.11068847 0 626.54615208 0 30852
0.17050000 0.17049200 8110.80377789 0 157.20884378 0 1936.01279210 0 -145.61743385 0 231.37678690 0 31257
0.17150000 0.17149500 7844.67050711 0 136.34186585 0 2087.48526882 0 -70.90469115 0 459.98521103 0 32608
0.17250000 0.17250900 7848.46369647 0 -20.07273732 0 1995.04014226 0 186.12248511 0 665.34426813 0 32361
0.17350000 0.17350400 7930.39436833 0 -10.54331400 0 1826.48722224 0 355.01701400 0 396.23079274 0 32508
0.17450000 0.17449800 7911.48387753 0 -49.32255283 0 1902.42864774 0 99.38389029 0 783.63853830 0 32791
0.17550000 0.17549800 7969.47974637 0 -19.35602418 0 1536.21950690 0 389.57163809 0 776.68657605 0 33633
0.17650000 0.17650100 7967.56096930 0 31.46195474 0 1461.33174511 0 122.92262666 0 971.31600922 0 33984
0.17750000 0.17750300 7892.59556913 0 115.55363541 0 1404.64463751 0 -14.14571259 0 898.02648891 0 34069
0.17850000 0.17849800 7676.31722864 0 207.09372030 0 1531.58338658 0 -101.54489910 0 1081.97620853 0 34536
