### header ###
fiducial parameters:
Omega_m = 0.31
Omega_nu = 0
Omega_de = 0.69
Omega_k = 0
H_0 = 100
w_de = -1
zeff = 0
beta = 0
fgrowth = 0
b_1 = 2
gamma = 0.55
Lx = 3500 Ly = 3500 Lz = 3500
nx = 700 ny = 700 nz = 700
xoffset = 1379.75464 yoffset = 22.6059522 zoffset = 368.141391
bins = 400 dk = 0.001
kx_ny = 0.628318531 ky_ny = 0.628318531 kz_ny = 0.628318531
############################
A(data) = 3.3121583 (not used)
A(ran) = 3.30942081 (used)
Ngal = 186071
weighted Ngal = 0
Nran = 9399747
weighted Nran = 0
SN(data) = 6699.39092
SN(ran) = 131.63348
SN(data+ran) = 6831.0244
############################
13 columns: k_central k_mean P_0(k) sigma^{lin}_{P_0(k)} P^img_1(k) sigma^{lin}_{P_1(k)} P_2(k) sigma^{lin}_{P_2(k)} P^img_3(k) sigma^{lin}_{P_3(k)} P_4(k) sigma^{lin}_{P_4(k)} N_modes
### header ###
0.00050000 0 0 0 0 0 0 0 0 0 0 0 0
0.00150000 0.00179520 9451.98458646 0 -3776.29746334 0 -18228.38218440 0 20241.76716641 0 -1850.82130834 0 3
0.00250000 0.00253879 14046.55728705 0 -1402.81459001 0 9448.40212984 0 -11544.93781537 0 9856.58035993 0 6
0.00350000 0.00331552 15544.75617081 0 -1826.12121274 0 -8858.60554973 0 8097.73834788 0 5968.77200247 0 7
0.00450000 0.00420575 19572.30251862 0 -5329.76378150 0 8060.84902683 0 -7298.52887819 0 -9494.78551548 0 24
0.00550000 0.00557378 37289.93508356 0 -9070.49177623 0 -5762.47573924 0 1309.04961101 0 -7256.69288330 0 45
0.00650000 0.00659388 45659.90686053 0 -7126.40459275 0 27194.83853326 0 -15531.66855841 0 -18452.20253882 0 40
0.00750000 0.00754703 56996.66290919 0 -3016.18446289 0 3519.17024449 0 -21758.04470121 0 -2680.44284007 0 57
0.00850000 0.00846663 59385.04126002 0 -431.14477161 0 27032.79614584 0 7923.41800545 0 -2744.79396476 0 75
0.00950000 0.00948925 68267.09360010 0 -10055.39006523 0 1982.85091681 0 23424.27521874 0 33247.97017972 0 112
0.01050000 0.01054430 87848.71272415 0 -12878.32151249 0 -5202.49229652 0 31989.11932609 0 12751.43821940 0 105
0.01150000 0.01145670 94310.00041831 0 -7948.69484329 0 -25385.30975115 0 13172.57096753 0 30420.71316565 0 144
0.01250000 0.01249090 94268.51934172 0 7547.75916481 0 -8122.41626109 0 -15764.02913448 0 22307.50259802 0 169
0.01350000 0.01339930 81694.42936152 0 13357.12848474 0 5399.03939764 0 -22298.07508062 0 40603.31925987 0 180
0.01450000 0.01448870 70540.67806251 0 6749.66990601 0 27350.22620250 0 -6485.47759470 0 34290.87542876 0 267
0.01550000 0.01550050 66436.26971985 0 580.36573535 0 14513.38576660 0 14109.55528571 0 14914.88709612 0 238
0.01650000 0.01653350 66574.90968171 0 -2352.70906144 0 31904.16075747 0 13708.05395619 0 22383.14456121 0 315
0.01750000 0.01747870 70429.32244515 0 -2548.01394851 0 10136.26707337 0 5430.80458570 0 12587.95397639 0 297
0.01850000 0.01844180 74881.10707623 0 -1822.79385365 0 22265.68878553 0 7667.91010135 0 29502.25114636 0 388
0.01950000 0.01947590 74862.91751323 0 -640.37354732 0 9679.76449818 0 265.91033771 0 13523.71826291 0 399
0.02050000 0.02045430 76058.65945622 0 292.49704592 0 14008.51448151 0 1242.94607720 0 10945.08151963 0 462
0.02150000 0.02154770 74466.51813431 0 592.77900298 0 12832.62578106 0 -4858.66519112 0 5185.20112048 0 571
0.02250000 0.02255340 77959.80152512 0 231.88587284 0 13027.49811144 0 -9061.07535002 0 -2097.05697179 0 510
0.02350000 0.02348930 72059.28474866 0 4605.73044472 0 22178.06832964 0 -9380.32436297 0 -243.97749575 0 555
0.02450000 0.02439640 74417.05139592 0 2910.55190315 0 28073.15041959 0 -4114.22405196 0 -17991.91786547 0 592
0.02550000 0.02547300 68408.50636119 0 2170.46960439 0 33943.83187625 0 -103.83622948 0 -5377.50029316 0 837
0.02650000 0.02652900 64537.23497838 0 1894.25443559 0 28875.59851879 0 8249.23300700 0 -15040.10670967 0 723
0.02750000 0.02749970 68959.96067345 0 972.17779522 0 41409.76018998 0 4942.51464005 0 5730.54418322 0 826
0.02850000 0.02848090 61922.59620980 0 706.32180437 0 22470.87592907 0 7025.16414700 0 -3457.90247255 0 831
0.02950000 0.02946900 62846.93656347 0 3330.05424533 0 30913.05139818 0 2324.57069479 0 9944.38936617 0 996
0.03050000 0.03053250 55630.89291699 0 3608.17710000 0 27815.50191448 0 577.21250806 0 9810.20806549 0 1041
0.03150000 0.03150510 54663.40780719 0 471.87053768 0 27326.49104103 0 8234.57044463 0 9968.72345227 0 1036
0.03250000 0.03246190 51038.13917270 0 1074.67376446 0 17219.19417409 0 6943.58839345 0 11067.89434343 0 1059
0.03350000 0.03345080 49500.01197992 0 1370.58357168 0 17507.01073489 0 487.36826718 0 2788.16054483 0 1302
0.03450000 0.03451200 47728.74782729 0 2464.98524815 0 15709.68226943 0 -1526.04887930 0 3478.93138196 0 1339
0.03550000 0.03553350 44729.24452461 0 464.02573408 0 15780.66592990 0 -914.28618363 0 213.32475474 0 1365
0.03650000 0.03647120 45484.66594875 0 -1323.19088712 0 9868.93595333 0 3287.46404904 0 -6863.69850183 0 1308
0.03750000 0.03744890 45119.65465719 0 262.24913360 0 11534.73391418 0 -3340.94580073 0 -9246.03215033 0 1579
0.03850000 0.03847530 44757.30525289 0 1372.69089910 0 9954.03870752 0 -2617.56684457 0 -14220.24543126 0 1662
0.03950000 0.03950240 43210.19419058 0 1603.21033647 0 15448.37366933 0 -1287.88760723 0 -9550.67405690 0 1683
0.04050000 0.04050350 42116.26943558 0 -43.93234202 0 10788.11890042 0 3399.59605019 0 -6188.99880908 0 1822
0.04150000 0.04152450 41397.89260924 0 -972.38076413 0 12998.21735150 0 5055.65594012 0 -10182.40645268 0 1887
0.04250000 0.04250150 44688.65074378 0 -507.98347495 0 10177.75924116 0 691.61820458 0 -5361.30714562 0 1920
0.04350000 0.04349210 42764.21716129 0 233.35878379 0 6445.34964414 0 2418.47985935 0 -2599.82092945 0 2005
0.04450000 0.04448520 41316.15048773 0 1223.17047304 0 10246.56902702 0 -1587.44974561 0 -2357.89974162 0 2151
0.04550000 0.04548030 41197.69650433 0 1205.41346673 0 9474.03388599 0 -1079.94651949 0 -2159.65568736 0 2274
0.04650000 0.04648670 40670.08826550 0 889.66816289 0 14949.71345454 0 -1963.40804856 0 -2454.98098850 0 2311
0.04750000 0.04749250 38972.58057257 0 516.78433973 0 11936.56797962 0 1265.20610947 0 -1709.20890571 0 2568
0.04850000 0.04851840 39377.18743724 0 -876.99757949 0 10967.70756140 0 3030.98011962 0 -715.55078935 0 2493
0.04950000 0.04949480 38945.96169990 0 727.11336217 0 11671.04472468 0 -186.34098169 0 742.35932150 0 2644
0.05050000 0.05050630 38562.64993337 0 1492.25400220 0 14080.60726168 0 939.20255758 0 3166.98037660 0 2829
0.05150000 0.05149060 36013.78196270 0 1708.56561628 0 12056.02017075 0 412.75445795 0 4070.80201591 0 2784
0.05250000 0.05249300 33907.78548617 0 1491.74380714 0 14662.78418949 0 -518.48794758 0 5190.24761509 0 3055
0.05350000 0.05348950 33329.04682941 0 610.82659865 0 17265.88811324 0 894.22775395 0 7538.15418825 0 3009
0.05450000 0.05448610 32581.05650722 0 614.52218547 0 17920.15782121 0 103.08147352 0 8259.25944904 0 3336
0.05550000 0.05550870 32660.13674146 0 -156.76630503 0 16649.55029882 0 820.73970121 0 6212.39014344 0 3349
0.05650000 0.05647670 32511.73652629 0 439.44320517 0 16924.94471905 0 -1330.86599541 0 3339.32648597 0 3324
0.05750000 0.05747970 32060.76845838 0 134.06040663 0 15786.87700019 0 395.89916595 0 4026.85869360 0 3639
0.05850000 0.05849280 32345.59039601 0 -385.85830535 0 14579.60021238 0 3047.76110060 0 1276.97386944 0 3846
0.05950000 0.05951020 31846.70835728 0 -98.85850029 0 13848.46850955 0 1215.88355665 0 2235.98530476 0 3787
0.06050000 0.06049470 33041.78482845 0 207.47969395 0 11234.71703673 0 1464.75892497 0 -2614.41694464 0 3930
0.06150000 0.06148310 31546.24783195 0 579.33869051 0 10298.33164318 0 1095.96442612 0 2250.22640164 0 4083
0.06250000 0.06249100 29921.72021495 0 649.00138943 0 7814.32499226 0 1037.37850560 0 79.21654505 0 4303
0.06350000 0.06350600 29247.59726443 0 277.20672181 0 8520.11331006 0 961.42155242 0 792.92187015 0 4470
0.06450000 0.06451750 29185.15382561 0 425.68235711 0 6749.28171411 0 661.07193906 0 -1461.44265708 0 4479
0.06550000 0.06550280 28655.88190724 0 425.71673982 0 7547.45970249 0 500.90507305 0 234.40246542 0 4636
0.06650000 0.06648880 26932.19898952 0 1172.81643890 0 6162.66830752 0 -1246.16252431 0 -1739.84279168 0 4653
0.06750000 0.06749660 26321.18494964 0 668.32114539 0 8491.08764765 0 -1068.26637998 0 13.71481959 0 5220
0.06850000 0.06852730 26203.72917396 0 260.64312828 0 8317.02240275 0 106.78959340 0 -30.18369429 0 5029
0.06950000 0.06949320 25743.22267667 0 -146.30952454 0 8670.19938717 0 1942.61205428 0 1039.64000066 0 5040
0.07050000 0.07048030 25963.16111216 0 -27.78977034 0 7133.44750281 0 542.79430569 0 1297.79204611 0 5475
0.07150000 0.07148790 25669.35530500 0 326.25975855 0 9129.41930561 0 1195.00992399 0 2704.77692617 0 5509
0.07250000 0.07249820 25805.77702746 0 145.99564367 0 7535.54775697 0 293.26122939 0 2902.84352127 0 5916
0.07350000 0.07351270 24715.40145548 0 416.47666365 0 9068.16262487 0 52.28379150 0 3215.12726255 0 5721
0.07450000 0.07449140 24917.03941600 0 531.01101805 0 8019.64523017 0 -314.31453944 0 4576.94878864 0 6028
0.07550000 0.07549160 24128.56622495 0 59.90499657 0 10158.43837607 0 543.48972374 0 3847.91332203 0 6183
0.07650000 0.07648840 24303.47440082 0 169.77406081 0 7909.36545891 0 243.69799759 0 3360.78795207 0 6330
0.07750000 0.07749960 23721.40838498 0 386.99071656 0 10220.37161983 0 -1059.63742876 0 3123.82452927 0 6583
0.07850000 0.07848650 23968.63116496 0 355.43182476 0 8648.20554362 0 174.41683585 0 1816.19459147 0 6549
0.07950000 0.07947320 23458.21428140 0 237.43701691 0 10234.71253749 0 -731.56869599 0 1854.79195685 0 6828
0.08050000 0.08048110 22774.22016560 0 368.77231645 0 8950.39629567 0 780.81139220 0 1287.39959457 0 7147
0.08150000 0.08149960 23138.23324944 0 -102.73021532 0 10615.07404563 0 1154.03904246 0 2922.31966311 0 7386
0.08250000 0.08250610 22638.46391496 0 93.55036434 0 7459.46214591 0 1624.18378990 0 1493.26330112 0 7227
0.08350000 0.08350160 22652.77155902 0 172.56238772 0 8580.40505667 0 924.78400154 0 2846.24514325 0 7798
0.08450000 0.08449610 22391.79569483 0 290.39970058 0 7791.71004169 0 -770.75611304 0 3004.69398285 0 7371
0.08550000 0.08548940 21411.33388460 0 595.38765250 0 9090.42265714 0 -32.96791746 0 1755.74756810 0 8256
0.08650000 0.08650700 21491.63415051 0 265.09513474 0 8276.47298670 0 -1249.06841791 0 3760.23741016 0 8037
0.08750000 0.08749060 20518.27070633 0 266.76657812 0 8401.41532032 0 1581.63795841 0 1309.27143495 0 8155
0.08850000 0.08849210 21211.13777969 0 -206.30180884 0 8142.45805398 0 1374.76495293 0 4220.23371239 0 8718
0.08950000 0.08949900 20737.21093409 0 -6.60274482 0 7304.09665906 0 234.03534680 0 2724.61907751 0 8571
0.09050000 0.09049190 21161.89286524 0 600.56502323 0 7409.75140118 0 611.03400403 0 3379.17715661 0 8932
0.09150000 0.09150830 20007.29926293 0 338.69409945 0 7409.79576597 0 -520.97348481 0 2978.59639643 0 9285
0.09250000 0.09250820 19573.52255028 0 459.98521103 0 7700.44058200 0 -351.72071026 0 2675.32979827 0 9204
0.09350000 0.09350330 19056.45094856 0 351.45230330 0 8449.69530064 0 33.30398072 0 2423.10488848 0 9349
0.09450000 0.09448040 18805.67898556 0 -40.66542996 0 7382.91070457 0 769.97640190 0 1532.58159431 0 9564
0.09550000 0.09549270 18827.86137946 0 -38.53292553 0 7266.48641020 0 672.76982449 0 1644.63595707 0 10155
0.09650000 0.09649430 18445.99146853 0 197.97897465 0 6175.36772803 0 21.02203287 0 931.83245720 0 9913
0.09750000 0.09749140 18509.87676295 0 360.83212856 0 6234.08452467 0 -83.87140950 0 853.64728256 0 10476
0.09850000 0.09850240 17787.39619374 0 236.70388879 0 5929.75317161 0 442.04852733 0 967.05588047 0 10575
0.09950000 0.09950330 17341.19734052 0 66.39811600 0 6316.91358348 0 699.47077202 0 1048.96769729 0 10882
0.10050000 0.10051200 17282.08126078 0 224.94611091 0 4847.95109487 0 -91.69469618 0 -477.39284464 0 10875
0.10150000 0.10150300 16974.18963350 0 336.31836506 0 5890.16868970 0 -178.03367517 0 -34.16155207 0 11118
0.10250000 0.10250800 16536.86373783 0 391.51925227 0 5780.97585575 0 -870.97949603 0 248.71676420 0 11575
0.10350000 0.10349800 16207.23336453 0 137.21474304 0 5993.94901955 0 -217.94202003 0 -651.44256187 0 11364
0.10450000 0.10450100 16440.59214832 0 -214.97956133 0 5618.95565073 0 1050.70901521 0 -563.63910123 0 12093
0.10550000 0.10551000 16399.77654355 0 196.10788972 0 5251.20483351 0 109.82780498 0 -1178.97205320 0 12067
0.10650000 0.10649700 16225.53383949 0 384.06485880 0 5105.97670067 0 348.63070279 0 121.15136250 0 12054
0.10750000 0.10749900 15441.05347935 0 289.55787873 0 5184.10309198 0 -90.61230627 0 -534.03115098 0 12807
0.10850000 0.10850100 15362.08415707 0 152.53612251 0 5333.17987016 0 631.87214486 0 -237.02996998 0 12736
0.10950000 0.10950300 14594.79515220 0 162.52263624 0 4730.76150792 0 196.96413012 0 -705.53543851 0 12933
0.11050000 0.11050200 14747.41002220 0 303.42187491 0 4360.72590413 0 -61.98991978 0 -522.12364194 0 13428
0.11150000 0.11150900 14347.12872434 0 45.46281629 0 4299.45813219 0 493.00481347 0 -279.27633916 0 13453
0.11250000 0.11250000 14281.80157432 0 -31.70740292 0 4188.65707468 0 334.42620686 0 -522.37984859 0 13668
0.11350000 0.11349100 14245.53336030 0 152.72689110 0 3184.48228538 0 476.11402964 0 -186.23561532 0 13791
0.11450000 0.11448600 14013.72734408 0 248.40731981 0 3351.31606987 0 -1.11103847 0 -143.27497306 0 14205
0.11550000 0.11549300 13576.51236038 0 230.59707575 0 3941.99994575 0 -229.59332243 0 112.02108918 0 14776
0.11650000 0.11649800 13516.61989686 0 248.99958973 0 4324.57969328 0 -14.23943320 0 369.46329802 0 14553
0.11750000 0.11747300 13025.61260796 0 97.91885408 0 4210.73964780 0 204.79895165 0 334.02470553 0 14568
0.11850000 0.11849100 13340.49168932 0 -68.58873831 0 4598.08861002 0 40.17353538 0 191.55162601 0 16015
0.11950000 0.11950300 13225.03232909 0 149.12447033 0 4103.54322930 0 -244.45441722 0 -229.39479000 0 15270
0.12050000 0.12050700 13177.45109418 0 204.29430219 0 4796.21066111 0 -724.91841430 0 -169.84060799 0 15999
0.12150000 0.12150000 13108.13111326 0 113.63374921 0 4539.80437006 0 -611.42219593 0 -1188.24429385 0 15670
0.12250000 0.12250700 12801.45951764 0 182.30156776 0 5234.01347824 0 -282.08795758 0 -1483.52523020 0 16887
0.12350000 0.12352200 12624.77675025 0 242.68869866 0 5507.94386047 0 -537.16330500 0 -2859.76531233 0 16407
0.12450000 0.12449800 12568.87711763 0 220.48412237 0 5572.71645065 0 -125.03217232 0 -2436.63614875 0 16306
0.12550000 0.12549900 12295.81184877 0 -85.16952319 0 5348.69645469 0 727.55590093 0 -2532.41972560 0 17523
0.12650000 0.12650100 12501.99720004 0 -152.20560484 0 4575.28510910 0 937.47011261 0 -1894.83117783 0 17154
0.12750000 0.12750600 12659.93584458 0 -298.81015522 0 3907.35104648 0 1194.99883279 0 -1819.67722731 0 18007
0.12850000 0.12850300 12607.25265908 0 118.49391172 0 3641.97197710 0 305.69667941 0 -667.57914431 0 17496
0.12950000 0.12949900 12861.90654101 0 63.21682798 0 2971.66439834 0 189.45206243 0 -132.37565382 0 18405
0.13050000 0.13049000 12554.34764963 0 -70.71037338 0 3037.73465856 0 837.28443970 0 86.22041410 0 18100
0.13150000 0.13148800 12627.99319737 0 -10.12251399 0 2751.41540934 0 162.51819976 0 1009.29448581 0 19059
0.13250000 0.13249300 12561.88966356 0 175.53261026 0 2519.19901883 0 366.10266535 0 371.66268238 0 18957
0.13350000 0.13349100 12307.45760556 0 314.96448358 0 2812.43917495 0 -4.96558433 0 1367.27839499 0 19468
0.13450000 0.13450700 11867.80255854 0 199.38090194 0 2797.93188934 0 -174.04638987 0 1606.52660436 0 19953
0.13550000 0.13551000 11644.42585200 0 258.33837756 0 3146.12892633 0 -154.34066025 0 1423.97659379 0 19956
0.13650000 0.13649900 11373.68973449 0 106.39851780 0 3255.22193952 0 209.30974145 0 1065.61003831 0 19723
0.13750000 0.13749600 11280.74550407 0 120.15648214 0 2800.78232696 0 134.10588054 0 1281.83181370 0 20946
0.13850000 0.13851100 11200.44523816 0 111.95454200 0 2921.96474481 0 -60.88667841 0 1051.21810115 0 20955
0.13950000 0.13949800 10993.22840558 0 184.23143603 0 3044.14537039 0 -409.12209095 0 296.21148778 0 20506
0.14050000 0.14048300 10931.74990089 0 239.77725946 0 2914.41163969 0 -295.24877188 0 534.20861013 0 21447
0.14150000 0.14148400 10550.35691144 0 176.26684750 0 3318.37521494 0 -119.03738037 0 -93.06224076 0 21771
0.14250000 0.14249400 10400.29301673 0 88.94474481 0 3274.27661587 0 -53.66420187 0 -222.30640603 0 22470
0.14350000 0.14350900 10162.14283585 0 102.51715342 0 3257.31817574 0 257.90138440 0 -263.87066660 0 22519
0.14450000 0.14449900 10153.58043181 0 170.35967601 0 3339.40412435 0 -58.18220095 0 -329.10465057 0 22218
0.14550000 0.14550500 9937.64591843 0 193.09773887 0 2982.99960162 0 55.34163450 0 140.06739890 0 23559
0.14650000 0.14650700 9659.41215178 0 145.08616552 0 3400.10624525 0 136.98959175 0 -411.33256650 0 23044
0.14750000 0.14750500 9664.36991682 0 36.12524849 0 3192.95595985 0 174.35028867 0 290.84113021 0 23649
0.14850000 0.14849900 9471.34981633 0 13.60623677 0 3229.44599781 0 448.19415956 0 -67.84263349 0 23640
0.14950000 0.14949500 9351.33197415 0 234.98253502 0 2947.87378088 0 -171.97122692 0 357.42824021 0 24457
0.15050000 0.15050000 9259.35267786 0 -1.47557284 0 2873.82895006 0 238.00377707 0 352.62353369 0 24591
0.15150000 0.15149900 9233.46582418 0 -85.68038372 0 3056.03513352 0 358.92000620 0 493.30982138 0 25020
0.15250000 0.15250500 9287.25812938 0 32.26917205 0 2564.86147667 0 235.38070899 0 526.53350184 0 25297
0.15350000 0.15350100 9347.07295452 0 78.36030465 0 2536.62328924 0 -360.13560139 0 326.70784291 0 25452
0.15450000 0.15450400 9256.39132828 0 128.18318137 0 2931.23698546 0 -212.34983853 0 267.54518014 0 26061
0.15550000 0.15549900 9292.60408631 0 51.53591209 0 2920.60052759 0 -124.01178220 0 -159.96278799 0 26128
0.15650000 0.15649500 9010.95423101 0 135.30040245 0 3188.95203775 0 -211.31502986 0 -31.18001651 0 26331
0.15750000 0.15749700 9033.84646151 0 85.64699922 0 3136.63486175 0 74.81267439 0 -233.91001628 0 27345
0.15850000 0.15849900 8914.95992142 0 -65.42009426 0 3024.13685110 0 384.66711080 0 165.81893997 0 26980
0.15950000 0.15949700 9084.85487627 0 -35.80338196 0 2766.24433966 0 277.89548514 0 -364.39351190 0 27777
0.16050000 0.16050000 9074.62879269 0 36.42315804 0 2596.77085029 0 144.55156983 0 -194.36324444 0 28224
0.16150000 0.16150500 8853.64778469 0 206.81422213 0 2614.84950132 0 -395.50099198 0 -421.12720253 0 28075
0.16250000 0.16249700 8750.71038581 0 124.87245908 0 2518.76646215 0 -65.83945241 0 -686.33324923 0 28590
0.16350000 0.16349900 8472.37679840 0 108.17832217 0 2723.16613071 0 240.82981405 0 -453.84290616 0 29163
0.16450000 0.16449100 8460.24302894 0 155.00724119 0 2360.32871375 0 -72.16154558 0 -748.21214613 0 28996
0.16550000 0.16550500 8221.29428189 0 74.90051667 0 2423.85908987 0 179.43227511 0 -640.45451306 0 30777
0.16650000 0.16650700 8139.00869173 0 45.29101365 0 2217.50737065 0 294.08419620 0 -527.82340805 0 29211
0.16750000 0.16749900 8073.55953853 0 78.24783991 0 2157.59272473 0 32.73267317 0 -307.86833577 0 30922
0.16850000 0.16850800 8074.00318641 0 12.57675187 0 2077.39227960 0 -22.35885484 0 -453.41811332 0 30867
0.16950000 0.16949900 8089.28685581 0 116.47642299 0 2467.09257557 0 -132.63296959 0 -194.64385172 0 30852
0.17050000 0.17049200 7823.80796565 0 76.39649732 0 2295.58939716 0 -174.00867980 0 -614.24712379 0 31257
0.17150000 0.17149500 8039.18791919 0 13.93908359 0 2675.69580777 0 -73.63612022 0 -39.55387020 0 32608
0.17250000 0.17250900 7967.93807000 0 -0.83109222 0 2690.59128528 0 127.06629784 0 -318.09663759 0 32361
0.17350000 0.17350400 7925.44769449 0 147.33767850 0 2751.95887799 0 -37.70718591 0 89.54721862 0 32508
0.17450000 0.17449800 7878.56520499 0 72.03632597 0 2696.30325170 0 128.54697263 0 416.29809537 0 32791
0.17550000 0.17549800 7903.75331326 0 -71.43041388 0 2796.44566895 0 374.37780739 0 206.80645830 0 33633
0.17650000 0.17650100 7927.84339303 0 60.72785247 0 2889.54517613 0 -4.65537464 0 368.04029745 0 33984
0.17750000 0.17750300 7800.52754326 0 227.27637138 0 2808.43525285 0 -335.37783156 0 433.54268839 0 34069
0.17850000 0.17849800 7434.56240876 0 209.23986691 0 2947.03084992 0 -256.60038700 0 386.28753467 0 34536
