### header ###
fiducial parameters:
Omega_m = 0.31
Omega_nu = 0
Omega_de = 0.69
Omega_k = 0
H_0 = 100
w_de = -1
zeff = 0
beta = 0
fgrowth = 0
b_1 = 2
gamma = 0.55
Lx = 3500 Ly = 3500 Lz = 3500
nx = 700 ny = 700 nz = 700
xoffset = 1379.75464 yoffset = 22.6059522 zoffset = 368.141391
bins = 400 dk = 0.001
kx_ny = 0.628318531 ky_ny = 0.628318531 kz_ny = 0.628318531
############################
A(data) = 3.34404489 (not used)
A(ran) = 3.34151484 (used)
Ngal = 187632
weighted Ngal = 0
Nran = 9399747
weighted Nran = 0
SN(data) = 6663.76725
SN(ran) = 132.910032
SN(data+ran) = 6796.67728
############################
13 columns: k_central k_mean P_0(k) sigma^{lin}_{P_0(k)} P^img_1(k) sigma^{lin}_{P_1(k)} P_2(k) sigma^{lin}_{P_2(k)} P^img_3(k) sigma^{lin}_{P_3(k)} P_4(k) sigma^{lin}_{P_4(k)} N_modes
### header ###
0.00050000 0 0 0 0 0 0 0 0 0 0 0 0
0.00150000 0.00179520 58732.21340765 0 -49131.89515321 0 -82219.81936096 0 100164.71055137 0 114566.51887667 0 3
0.00250000 0.00253879 106380.66096903 0 -50850.14338442 0 -44947.07563267 0 -70848.68060176 0 -69904.81974147 0 6
0.00350000 0.00331552 134113.64437821 0 -29777.53465462 0 -67376.35957318 0 -84094.34255718 0 71810.17646521 0 7
0.00450000 0.00420575 134203.48307349 0 9604.78800681 0 -45686.74755715 0 -73452.67182127 0 -4198.90534066 0 24
0.00550000 0.00557378 97849.64501237 0 18368.46400186 0 -15207.25104768 0 -35614.16613665 0 36837.19242413 0 45
0.00650000 0.00659388 84051.75236090 0 -9177.10036129 0 -31340.28430462 0 53102.98730855 0 -53788.86692783 0 40
0.00750000 0.00754703 97940.92556325 0 -22128.26885534 0 -33385.16828597 0 22066.82362424 0 23904.08039872 0 57
0.00850000 0.00846663 113191.21045509 0 -8307.16232866 0 -79264.56993411 0 -12738.12878306 0 -41568.69704224 0 75
0.00950000 0.00948925 113459.61742123 0 564.15373277 0 -53688.82433135 0 -18249.45545861 0 11909.61637103 0 112
0.01050000 0.01054430 102570.50208141 0 17923.81791621 0 -29888.66844804 0 -59148.13329321 0 -15855.08786142 0 105
0.01150000 0.01145670 89710.25921994 0 13408.59163858 0 -18660.38430554 0 -24633.21568609 0 -9198.42873302 0 144
0.01250000 0.01249090 72993.71809155 0 8191.37023252 0 27159.67943893 0 -13740.21842734 0 -15781.55322566 0 169
0.01350000 0.01339930 59799.85202588 0 8370.35996887 0 16285.09356711 0 -3656.91181939 0 -7929.18542786 0 180
0.01450000 0.01448870 64097.35810741 0 -417.85086295 0 26966.80352400 0 17914.27948683 0 4653.91060426 0 267
0.01550000 0.01550050 60970.08421589 0 -943.05342116 0 28305.73281959 0 4260.18420380 0 5587.54538097 0 238
0.01650000 0.01653350 65086.02740338 0 2434.86155724 0 19989.22061190 0 6482.71588666 0 4102.47847439 0 315
0.01750000 0.01747870 65630.71608550 0 467.33978373 0 30787.94269660 0 -6994.44153146 0 15502.38779847 0 297
0.01850000 0.01844180 58700.93623225 0 2078.87849999 0 30061.80203240 0 3729.43715623 0 22138.80549244 0 388
0.01950000 0.01947590 65581.36025908 0 -198.88512544 0 33103.23005954 0 12224.05180451 0 12641.30263371 0 399
0.02050000 0.02045430 63166.14121164 0 -1294.55341660 0 22402.11050799 0 7184.85520066 0 14330.04828104 0 462
0.02150000 0.02154770 64135.29000098 0 1491.52198320 0 25170.58417824 0 2431.83366047 0 11527.96828404 0 571
0.02250000 0.02255340 63764.28946306 0 1090.09052822 0 26105.23934506 0 -3603.45225010 0 6507.62671501 0 510
0.02350000 0.02348930 61388.55507675 0 3388.42721486 0 38677.66564572 0 -8022.47348539 0 2922.67458142 0 555
0.02450000 0.02439640 58667.10808156 0 4058.31332814 0 33741.86117982 0 -9398.84666188 0 -10637.37844269 0 592
0.02550000 0.02547300 56096.50136487 0 1849.11326401 0 46030.13101467 0 -2480.59056226 0 2010.68982115 0 837
0.02650000 0.02652900 55672.59581751 0 641.33293586 0 39527.02950801 0 5697.60332829 0 -28695.47748035 0 723
0.02750000 0.02749970 57912.79577711 0 -1210.19377261 0 47063.94148221 0 1667.62800835 0 1353.27021324 0 826
0.02850000 0.02848090 56920.79912206 0 604.84622525 0 42627.79543883 0 10931.39498259 0 -23003.03155864 0 831
0.02950000 0.02946900 59338.56914481 0 -344.33286398 0 32951.16974938 0 5702.27272220 0 3997.38938331 0 996
0.03050000 0.03053250 60018.57042970 0 -3222.15908141 0 31687.43876910 0 8406.71691247 0 -7293.42692759 0 1041
0.03150000 0.03150510 62127.56152941 0 928.05812288 0 28720.76540939 0 -468.75502046 0 1937.65428925 0 1036
0.03250000 0.03246190 62674.46845092 0 1427.03776415 0 23493.81702360 0 4648.65337691 0 1416.55658303 0 1059
0.03350000 0.03345080 57113.78594896 0 545.56710493 0 24513.09802314 0 2236.85041812 0 324.88777749 0 1302
0.03450000 0.03451200 58453.93527622 0 1291.92480292 0 23224.63367367 0 5702.70527888 0 8224.37763464 0 1339
0.03550000 0.03553350 57884.73504883 0 666.28923811 0 20982.77003453 0 8928.97919436 0 4556.60753344 0 1365
0.03650000 0.03647120 54648.32377934 0 -704.06141844 0 7512.17860500 0 6136.34889716 0 17825.21717534 0 1308
0.03750000 0.03744890 54859.94381712 0 602.69009657 0 14217.36172005 0 7350.53550068 0 12450.09039832 0 1579
0.03850000 0.03847530 52224.67542222 0 1914.89515311 0 5764.83816419 0 -1960.01414230 0 15752.60520162 0 1662
0.03950000 0.03950240 48349.18938457 0 3227.71577108 0 11944.66455339 0 -337.45077627 0 16913.29896225 0 1683
0.04050000 0.04050350 42658.73987831 0 3191.64719861 0 8851.35190692 0 -5126.58414460 0 7955.56029420 0 1822
0.04150000 0.04152450 42553.81715518 0 2839.96752577 0 19735.01037785 0 -5152.84809898 0 17294.28157742 0 1887
0.04250000 0.04250150 37765.08196082 0 1072.79602482 0 18998.66581246 0 2088.53893253 0 1867.09209426 0 1920
0.04350000 0.04349210 38305.77781205 0 595.44643584 0 22653.88067871 0 -2212.51633202 0 11588.08257150 0 2005
0.04450000 0.04448520 38272.72604514 0 -873.15226151 0 17023.54545992 0 5146.70357587 0 2534.24977309 0 2151
0.04550000 0.04548030 40951.47193207 0 -1555.59582797 0 23056.26930400 0 4580.99707552 0 11472.40138733 0 2274
0.04650000 0.04648670 41797.06478741 0 -567.18606602 0 13685.20609047 0 -306.39098834 0 5387.79292393 0 2311
0.04750000 0.04749250 41791.07554106 0 972.29092543 0 18433.23659204 0 190.12751633 0 5009.62747279 0 2568
0.04850000 0.04851840 39013.17435340 0 2590.54868880 0 18578.30944812 0 -5095.83934666 0 4583.32622688 0 2493
0.04950000 0.04949480 37751.32887660 0 1860.84775038 0 22064.71629682 0 -2348.68295695 0 -65.65666949 0 2644
0.05050000 0.05050630 36257.89920753 0 952.83031127 0 23372.36841702 0 764.46962261 0 621.17912188 0 2829
0.05150000 0.05149060 34550.40943735 0 251.30766781 0 19737.22861724 0 320.27494868 0 -2916.61878788 0 2784
0.05250000 0.05249300 35125.26617517 0 -255.23173329 0 21289.44163014 0 4056.94911092 0 -1876.48633808 0 3055
0.05350000 0.05348950 35067.25921513 0 -18.12068666 0 18537.71566729 0 595.08819018 0 -6495.45967195 0 3009
0.05450000 0.05448610 35663.41105110 0 -228.93339621 0 16568.36273716 0 1058.31313984 0 -4350.26690541 0 3336
0.05550000 0.05550870 34919.96811966 0 -81.17691411 0 16470.76020402 0 45.95404540 0 -5214.87007231 0 3349
0.05650000 0.05647670 34878.81977898 0 201.46937433 0 14296.99651414 0 -146.95170485 0 -5340.24496261 0 3324
0.05750000 0.05747970 35960.21148144 0 160.35985284 0 16963.32026049 0 887.95457296 0 -5298.75279483 0 3639
0.05850000 0.05849280 35113.84224232 0 79.04407694 0 15307.29364415 0 503.32184487 0 -5338.38164153 0 3846
0.05950000 0.05951020 35556.82464843 0 272.97210281 0 15171.64830547 0 505.86949281 0 -4555.13240424 0 3787
0.06050000 0.06049470 34745.17085576 0 467.57713534 0 16767.33881041 0 1064.68946897 0 -2302.88740475 0 3930
0.06150000 0.06148310 33621.96534081 0 1447.62302568 0 17964.63352098 0 -469.43158347 0 -2338.16850225 0 4083
0.06250000 0.06249100 33042.67212421 0 1237.82194421 0 19098.81932090 0 -1543.79479442 0 -2044.44033347 0 4303
0.06350000 0.06350600 30928.13542603 0 1356.04301248 0 19763.07110613 0 -370.99610144 0 -752.25710565 0 4470
0.06450000 0.06451750 29328.34117822 0 372.89491436 0 20291.45572874 0 1478.25691165 0 -486.68394033 0 4479
0.06550000 0.06550280 29664.40444575 0 38.53170549 0 19534.37062506 0 2018.29838226 0 -149.51709870 0 4636
0.06650000 0.06648880 28888.46430725 0 92.94212310 0 18430.57470477 0 1713.34592217 0 -2248.35198936 0 4653
0.06750000 0.06749660 29098.19884154 0 -125.47692931 0 15310.17735536 0 2485.83669841 0 768.70756897 0 5220
0.06850000 0.06852730 29151.21476295 0 -853.21694411 0 13333.72605918 0 2655.54310292 0 201.90525837 0 5029
0.06950000 0.06949320 30406.51643355 0 -693.18317247 0 10961.34121435 0 2738.72708003 0 1237.97722097 0 5040
0.07050000 0.07048030 29850.07108266 0 216.94935791 0 9643.99538802 0 895.02188365 0 1216.51575487 0 5475
0.07150000 0.07148790 30055.59096211 0 459.60478298 0 7196.51204866 0 237.98381292 0 811.70703042 0 5509
0.07250000 0.07249820 29026.77153319 0 668.31338155 0 9288.03451317 0 -367.79518200 0 2097.11242777 0 5916
0.07350000 0.07351270 28017.91625878 0 819.82578658 0 8894.77394298 0 -579.23110590 0 291.15722933 0 5721
0.07450000 0.07449140 27612.86574623 0 579.19339583 0 10530.27075376 0 160.28665094 0 983.17804436 0 6028
0.07550000 0.07549160 26133.18916137 0 430.88856496 0 9796.73226120 0 -122.11629664 0 1374.84259131 0 6183
0.07650000 0.07648840 26241.43924359 0 637.16153668 0 10205.84215183 0 37.34616745 0 -145.36122720 0 6330
0.07750000 0.07749960 25699.85609660 0 510.99251668 0 10450.52504771 0 -818.94625466 0 910.07596527 0 6583
0.07850000 0.07848650 24667.82022057 0 593.57535092 0 10508.79819647 0 183.11122514 0 -1065.26066561 0 6549
0.07950000 0.07947320 24625.89549611 0 138.18300454 0 11696.33265372 0 164.23400793 0 196.06241581 0 6828
0.08050000 0.08048110 24234.26533187 0 174.57100349 0 10337.15083250 0 193.86414058 0 -1152.91883157 0 7147
0.08150000 0.08149960 23859.05013911 0 89.78157562 0 10995.90138404 0 609.83504564 0 -764.80014028 0 7386
0.08250000 0.08250610 24040.61303315 0 298.04264439 0 10861.42062105 0 501.12578787 0 -383.20085456 0 7227
0.08350000 0.08350160 23431.48449675 0 431.16362664 0 10162.87485485 0 400.34008121 0 547.30953197 0 7798
0.08450000 0.08449610 22598.09195806 0 87.00955276 0 9844.72387039 0 1871.69494100 0 2573.78989021 0 7371
0.08550000 0.08548940 22926.50229970 0 230.26212160 0 9890.21996028 0 617.94714709 0 1059.25034598 0 8256
0.08650000 0.08650700 22512.24609369 0 577.25465461 0 8385.77673263 0 1284.10550907 0 4216.91744450 0 8037
0.08750000 0.08749060 21019.48189642 0 551.91016046 0 10007.48718561 0 -324.09919338 0 2751.31558857 0 8155
0.08850000 0.08849210 21220.34347316 0 210.33900452 0 8047.29558416 0 1199.63495312 0 5203.21322432 0 8718
0.08950000 0.08949900 20254.85477881 0 204.42517831 0 8961.25457748 0 985.52715987 0 3499.90483539 0 8571
0.09050000 0.09049190 20311.86353113 0 179.17495934 0 6611.37377126 0 392.24905303 0 5018.63352471 0 8932
0.09150000 0.09150830 19567.31147999 0 288.69720184 0 6943.88785577 0 1509.83354936 0 3688.66591625 0 9285
0.09250000 0.09250820 19020.29364651 0 403.38461477 0 5819.81722746 0 -50.35525418 0 3962.67393686 0 9204
0.09350000 0.09350330 18526.51355837 0 333.27272238 0 6297.11579693 0 186.51844084 0 4942.72537279 0 9349
0.09450000 0.09448040 18344.06336857 0 197.07171474 0 5895.05990756 0 729.95381771 0 3043.22480105 0 9564
0.09550000 0.09549270 18116.91565507 0 131.86989524 0 4759.87589991 0 301.61844629 0 4360.21570907 0 10155
0.09650000 0.09649430 17816.67695369 0 120.53247372 0 5128.88002237 0 456.24969590 0 3562.92501645 0 9913
0.09750000 0.09749140 17762.66282455 0 232.69220285 0 4703.26643068 0 -167.95510451 0 4214.38865160 0 10476
0.09850000 0.09850240 17188.24973460 0 250.34827928 0 5257.90391647 0 -244.52761912 0 2684.62422132 0 10575
0.09950000 0.09950330 16955.88915853 0 556.41651378 0 5300.59393353 0 -720.83907206 0 2850.37106851 0 10882
0.10050000 0.10051200 16455.01070435 0 236.28242331 0 6799.45828911 0 -896.44599334 0 2055.24315929 0 10875
0.10150000 0.10150300 16486.62061565 0 -19.76406931 0 5981.85961487 0 74.75444561 0 1618.94874494 0 11118
0.10250000 0.10250800 16708.11181871 0 22.78664231 0 7304.90631643 0 -128.88192678 0 807.88500395 0 11575
0.10350000 0.10349800 16483.95872839 0 134.07482519 0 6584.51089225 0 -7.59633861 0 -398.32037424 0 11364
0.10450000 0.10450100 16339.10769624 0 213.95473473 0 7552.43964992 0 -418.65164737 0 323.27733569 0 12093
0.10550000 0.10551000 15925.29513811 0 203.93716565 0 6910.28152901 0 -300.97626599 0 -752.18279463 0 12067
0.10650000 0.10649700 16276.55334546 0 -28.12893914 0 7258.76693713 0 346.68974333 0 -517.29342567 0 12054
0.10750000 0.10749900 16067.37337101 0 161.23383916 0 6815.06360321 0 266.59799192 0 -760.97589558 0 12807
0.10850000 0.10850100 15562.28026199 0 104.39655675 0 6398.02350676 0 283.10723858 0 -486.73163247 0 12736
0.10950000 0.10950300 15670.30852027 0 65.81715911 0 6945.30752898 0 708.32820190 0 -147.36651561 0 12933
0.11050000 0.11050200 15734.41563863 0 -84.67552128 0 5252.33613560 0 721.92822760 0 -1051.38446911 0 13428
0.11150000 0.11150900 15473.99433428 0 225.53727170 0 6094.72363502 0 46.27580103 0 48.06004188 0 13453
0.11250000 0.11250000 14950.04619045 0 406.24059798 0 5327.00207346 0 -166.36351774 0 -667.00240207 0 13668
0.11350000 0.11349100 14968.79031329 0 19.76684211 0 5817.02224583 0 569.77364227 0 961.68108643 0 13791
0.11450000 0.11448600 14699.71787533 0 -24.64929792 0 4951.91997506 0 244.80046256 0 -138.42035615 0 14205
0.11550000 0.11549300 14840.24334066 0 115.82869709 0 4645.58111535 0 359.37474528 0 95.06187266 0 14776
0.11650000 0.11649800 14515.04944614 0 191.05030391 0 5080.56676847 0 96.46368904 0 307.79291563 0 14553
0.11750000 0.11747300 14212.81432930 0 190.94493754 0 4451.37425679 0 -147.95656729 0 -60.50170297 0 14568
0.11850000 0.11849100 14165.78765424 0 3.56382340 0 4512.96367344 0 312.01089783 0 573.14425702 0 16015
0.11950000 0.11950300 14121.31195448 0 -180.44046491 0 3941.36774752 0 846.07754064 0 -629.90456652 0 15270
0.12050000 0.12050700 14156.58196077 0 25.98833813 0 3467.87345860 0 323.03554760 0 -19.92178613 0 15999
0.12150000 0.12150000 14162.01664728 0 291.80717347 0 3466.58687976 0 -469.78095618 0 -527.52616397 0 15670
0.12250000 0.12250700 13588.60176505 0 314.52749042 0 3783.89493325 0 -248.23984274 0 46.12518257 0 16887
0.12350000 0.12352200 13537.36043515 0 143.79736843 0 4032.06046497 0 -451.56366519 0 -965.29570752 0 16407
0.12450000 0.12449800 13181.11118918 0 223.11273605 0 4313.13357803 0 -40.42985294 0 -1133.15431861 0 16306
0.12550000 0.12549900 13424.00840234 0 -7.67255731 0 4692.30832810 0 -170.56708139 0 -1124.70282653 0 17523
0.12650000 0.12650100 13063.43358956 0 91.27844356 0 4444.57535306 0 106.80867026 0 -850.40643481 0 17154
0.12750000 0.12750600 13249.65478632 0 -37.39607784 0 4807.77877952 0 -107.05378571 0 -1249.09060031 0 18007
0.12850000 0.12850300 13267.06796552 0 81.00389144 0 4375.34410171 0 143.39475798 0 -1100.96211947 0 17496
0.12950000 0.12949900 13140.96105622 0 277.17455733 0 4585.02318002 0 180.13656611 0 -1308.26213603 0 18405
0.13050000 0.13049000 12995.77728817 0 71.20315526 0 4368.32337404 0 373.06017319 0 -562.31924880 0 18100
0.13150000 0.13148800 12720.93742779 0 -51.04701213 0 4287.69037223 0 638.14088937 0 -180.46042907 0 19059
0.13250000 0.13249300 12621.22756723 0 202.48976444 0 4175.34763834 0 175.46495396 0 -444.87012783 0 18957
0.13350000 0.13349100 12428.12982836 0 265.68518642 0 3363.25019779 0 -33.67808680 0 -185.88513349 0 19468
0.13450000 0.13450700 11948.32464838 0 251.60934837 0 3717.79139944 0 98.31248066 0 15.22654973 0 19953
0.13550000 0.13551000 11639.10207746 0 171.91133446 0 3442.09751690 0 227.44273934 0 -150.09384094 0 19956
0.13650000 0.13649900 11602.94477541 0 134.01936920 0 3556.01520075 0 141.88968256 0 -166.38126366 0 19723
0.13750000 0.13749600 11272.42710636 0 158.50762295 0 3162.18897951 0 384.07927736 0 -445.68976729 0 20946
0.13850000 0.13851100 11138.33453525 0 70.73932140 0 3363.20583300 0 -43.38510237 0 119.25033135 0 20955
0.13950000 0.13949800 10979.46423017 0 195.87719282 0 2854.44153779 0 -154.49593701 0 -472.63804851 0 20506
0.14050000 0.14048300 10907.04980529 0 166.19160419 0 3682.76539948 0 -86.65651996 0 268.07201200 0 21447
0.14150000 0.14148400 10654.60307155 0 32.52049857 0 3141.78117713 0 222.15667487 0 14.28668170 0 21771
0.14250000 0.14249400 10716.42540334 0 -5.44115267 0 3451.43630473 0 363.37644914 0 751.86780464 0 22470
0.14350000 0.14350900 10869.61701559 0 -57.03049106 0 3110.04926266 0 216.87171953 0 199.13356825 0 22519
0.14450000 0.14449900 10591.91562640 0 231.23481958 0 3224.39950320 0 -334.91089217 0 609.69196920 0 22218
0.14550000 0.14550500 10568.53538323 0 258.19641024 0 3557.06886446 0 -176.94784699 0 350.32765593 0 23559
0.14650000 0.14650700 10133.26135900 0 161.07634416 0 3919.18535362 0 -391.24751795 0 647.89670621 0 23044
0.14750000 0.14750500 10037.49996455 0 98.01423838 0 3808.06265140 0 199.60383500 0 112.56012135 0 23649
0.14850000 0.14849900 10072.18213741 0 -33.78855512 0 3914.67123647 0 399.37958355 0 350.75244877 0 23640
0.14950000 0.14949500 9903.56267020 0 84.86041153 0 3565.80872766 0 152.07583784 0 423.21456579 0 24457
0.15050000 0.15050000 10037.02304308 0 4.08055118 0 3526.60134644 0 421.47990259 0 809.35680578 0 24591
0.15150000 0.15149900 9831.33679568 0 115.79431438 0 3201.78455262 0 224.76088792 0 994.06405416 0 25020
0.15250000 0.15250500 9824.01660569 0 67.80980355 0 3132.14292698 0 304.44891975 0 1302.37271045 0 25297
0.15350000 0.15350100 9658.29194089 0 61.19079904 0 3112.23422846 0 249.45876528 0 1726.99918561 0 25452
0.15450000 0.15450400 9573.16700431 0 72.88092062 0 2611.83269575 0 390.76837824 0 1785.64943507 0 26061
0.15550000 0.15549900 9576.06180672 0 68.14298311 0 3089.02035325 0 -128.88747238 0 1982.56254569 0 26128
0.15650000 0.15649500 9328.81684435 0 167.69002490 0 2834.87666637 0 -85.84286976 0 1544.23844230 0 26331
0.15750000 0.15749700 9432.67481257 0 38.65137951 0 3015.16407277 0 -107.11234723 0 1739.84279168 0 27345
0.15850000 0.15849900 9131.27153550 0 79.30094906 0 3056.13495429 0 -297.61563331 0 1273.57996317 0 26980
0.15950000 0.15949700 9284.17477663 0 145.04180073 0 3093.80065913 0 114.89703655 0 1142.08273215 0 27777
0.16050000 0.16050000 9024.23039375 0 71.05020765 0 3166.54781991 0 -118.08021007 0 1128.70674863 0 28224
0.16150000 0.16150500 8947.05784539 0 95.54433973 0 3210.41350384 0 172.56571508 0 858.09817989 0 28075
0.16250000 0.16249700 9014.39250206 0 22.36562047 0 3116.67070724 0 360.70236155 0 1171.03075619 0 28590
0.16350000 0.16349900 8894.04192398 0 -68.59317479 0 2803.15584310 0 181.19133894 0 1129.15039651 0 29163
0.16450000 0.16449100 8895.29522923 0 34.20624960 0 2515.35037349 0 260.32370181 0 908.08731366 0 28996
0.16550000 0.16550500 8961.60949579 0 48.13357652 0 2360.83890881 0 -12.31477780 0 1121.61947378 0 30777
0.16650000 0.16650700 8799.27873725 0 38.00187902 0 2269.71363468 0 151.05101124 0 462.68480837 0 29211
0.16750000 0.16749900 8759.07314831 0 102.73043714 0 2469.58809489 0 -110.37659741 0 1040.25999857 0 30922
0.16850000 0.16850800 8618.88041889 0 160.63824188 0 2137.31801671 0 -212.72361187 0 334.75561541 0 30867
0.16950000 0.16949900 8575.00364376 0 90.87605493 0 2347.41856050 0 44.28615121 0 652.61379227 0 30852
0.17050000 0.17049200 8300.57415767 0 81.22593720 0 2303.66378854 0 -20.96413682 0 38.16713785 0 31257
0.17150000 0.17149500 8415.63423481 0 55.51443535 0 2490.57263951 0 -69.01852219 0 258.53247350 0 32608
0.17250000 0.17250900 8321.45888152 0 125.54902209 0 2369.83386953 0 115.38726745 0 242.17406713 0 32361
0.17350000 0.17350400 8194.22067013 0 34.73330328 0 2479.69217530 0 -22.97086709 0 7.50066594 0 32508
0.17450000 0.17449800 8189.52909383 0 -51.08084028 0 2208.23513000 0 245.77648789 0 391.57581738 0 32791
0.17550000 0.17549800 8268.73133123 0 -52.26282914 0 2101.37144740 0 418.12037903 0 147.35320618 0 33633
0.17650000 0.17650100 8232.84021791 0 120.49032717 0 1874.63410819 0 -74.71906469 0 683.57265031 0 33984
0.17750000 0.17750300 8130.22446374 0 120.67998663 0 1764.72034643 0 135.13958010 0 566.33648033 0 34069
0.17850000 0.17849800 7986.50473369 0 35.47962992 0 2038.34017514 0 93.30624709 0 387.37558109 0 34536
