### header ###
fiducial parameters:
Omega_m = 0.31
Omega_nu = 0
Omega_de = 0.69
Omega_k = 0
H_0 = 100
w_de = -1
zeff = 0
beta = 0
fgrowth = 0
b_1 = 2
gamma = 0.55
Lx = 3500 Ly = 3500 Lz = 3500
nx = 700 ny = 700 nz = 700
xoffset = 1379.75464 yoffset = 22.6059522 zoffset = 368.141391
bins = 400 dk = 0.001
kx_ny = 0.628318531 ky_ny = 0.628318531 kz_ny = 0.628318531
############################
A(data) = 3.31164429 (not used)
A(ran) = 3.31387994 (used)
Ngal = 185834
weighted Ngal = 0
Nran = 9399747
weighted Nran = 0
SN(data) = 6667.41334
SN(ran) = 131.810844
SN(data+ran) = 6799.22419
############################
13 columns: k_central k_mean P_0(k) sigma^{lin}_{P_0(k)} P^img_1(k) sigma^{lin}_{P_1(k)} P_2(k) sigma^{lin}_{P_2(k)} P^img_3(k) sigma^{lin}_{P_3(k)} P_4(k) sigma^{lin}_{P_4(k)} N_modes
### header ###
0.00050000 0 0 0 0 0 0 0 0 0 0 0 0
0.00150000 0.00179520 21035.89686791 0 -34025.90673367 0 -66984.17484910 0 71206.48261531 0 60522.99806691 0 3
0.00250000 0.00253879 36033.19155736 0 -30036.29227942 0 -18364.36025899 0 -45655.02673388 0 -35197.69169125 0 6
0.00350000 0.00331552 61791.38734991 0 -20699.27904053 0 -65873.50238670 0 -8625.11367157 0 -22959.44315464 0 7
0.00450000 0.00420575 81985.79510535 0 -16210.78254755 0 -50376.99292261 0 -38025.83600107 0 6509.76731602 0 24
0.00550000 0.00557378 76158.03658088 0 7582.35260809 0 -33846.45116704 0 -48215.98410922 0 4646.33531675 0 45
0.00650000 0.00659388 79740.82593106 0 -3190.20534301 0 -46554.85554229 0 -568.75768862 0 -25824.74297424 0 40
0.00750000 0.00754703 71208.36811880 0 -6948.62379686 0 -38320.86183990 0 -4883.86439059 0 -33269.04345392 0 57
0.00850000 0.00846663 82236.67798032 0 -7051.31718941 0 -30997.67723089 0 -34527.89430754 0 -25853.02552646 0 75
0.00950000 0.00948925 79611.05892677 0 -1227.25203352 0 -23094.09028559 0 -33378.29174386 0 -33157.24418868 0 112
0.01050000 0.01054430 90578.36720508 0 3969.26210785 0 -16556.38424446 0 -32176.44964255 0 -46177.97666999 0 105
0.01150000 0.01145670 73939.90810320 0 9286.30428644 0 6575.53811392 0 -19193.20540693 0 -47685.60307116 0 144
0.01250000 0.01249090 75471.82422569 0 11608.93402177 0 28146.57414338 0 -18586.73875780 0 -44819.19413186 0 169
0.01350000 0.01339930 65248.62435064 0 7400.82298764 0 50305.56561427 0 -9161.28431444 0 -23710.64992394 0 180
0.01450000 0.01448870 52647.02820201 0 1218.12397843 0 41500.92982889 0 15290.10228888 0 -19140.07857355 0 267
0.01550000 0.01550050 63852.24265486 0 -2340.45328882 0 43137.99049845 0 17203.22285048 0 1578.59897044 0 238
0.01650000 0.01653350 63094.71390329 0 -5495.54390228 0 24310.57276687 0 27763.26237685 0 15207.69469556 0 315
0.01750000 0.01747870 63882.41071056 0 -3327.63636439 0 13510.96338642 0 17325.22601691 0 20341.80976289 0 297
0.01850000 0.01844180 71595.89454017 0 -1392.16704094 0 2727.39187675 0 8802.05153649 0 30410.17652855 0 388
0.01950000 0.01947590 69244.33896320 0 -994.19825764 0 7879.82960144 0 -4058.09150420 0 19562.98591318 0 399
0.02050000 0.02045430 68967.94633525 0 6147.45118531 0 2005.75423851 0 -5363.98012408 0 26930.31348604 0 462
0.02150000 0.02154770 61990.36342316 0 2436.52523678 0 14774.91619064 0 -4581.55163537 0 18273.19062007 0 571
0.02250000 0.02255340 63037.48332704 0 232.95950070 0 12768.18592679 0 -1912.06689789 0 9926.68781584 0 510
0.02350000 0.02348930 59083.36070303 0 -468.36461033 0 16563.03896263 0 3543.50433059 0 18559.45441331 0 555
0.02450000 0.02439640 62309.12442345 0 -1058.37414143 0 17424.38131763 0 9488.30825646 0 11013.60293437 0 592
0.02550000 0.02547300 63325.52171179 0 2902.71042691 0 23962.42009467 0 -4967.32564762 0 11433.91493392 0 837
0.02650000 0.02652900 58553.42331284 0 4395.97372803 0 22334.89785448 0 -2878.97526544 0 13658.25448189 0 723
0.02750000 0.02749970 55924.92054808 0 -148.16397267 0 27154.35566439 0 1829.35984225 0 19734.23399406 0 826
0.02850000 0.02848090 56224.38286569 0 477.00354363 0 26020.50260038 0 2685.77770580 0 14106.11701466 0 831
0.02950000 0.02946900 57698.51385207 0 -670.06135419 0 30463.41427390 0 8153.80434846 0 19363.34436812 0 996
0.03050000 0.03053250 57833.38280696 0 2009.74706941 0 27489.64254814 0 7502.70672281 0 26988.09862214 0 1041
0.03150000 0.03150510 54944.56964983 0 1057.97818569 0 24671.03666769 0 6233.59651201 0 24080.76316610 0 1036
0.03250000 0.03246190 53743.28210837 0 -633.75543010 0 17368.81442092 0 8410.07754514 0 34318.71433310 0 1059
0.03350000 0.03345080 55270.65084011 0 -114.73732331 0 19980.68039025 0 4234.50808286 0 30096.73930279 0 1302
0.03450000 0.03451200 52956.58350883 0 946.91537593 0 17334.20988644 0 347.30641388 0 29053.72314178 0 1339
0.03550000 0.03553350 53506.26322958 0 2435.83758257 0 19930.43726808 0 -2125.42825358 0 21856.31270617 0 1365
0.03650000 0.03647120 49910.82991488 0 1230.88994612 0 12836.50769999 0 -3695.97501504 0 12708.95893509 0 1308
0.03750000 0.03744890 49601.71825593 0 464.07675359 0 21722.88560688 0 -582.90451033 0 12234.03388177 0 1579
0.03850000 0.03847530 48792.28270265 0 422.34501595 0 18100.38977162 0 2094.51708769 0 7973.57239805 0 1662
0.03950000 0.03950240 46922.41780915 0 1834.96089670 0 17612.59892984 0 1638.25851883 0 3030.78047807 0 1683
0.04050000 0.04050350 44190.10144096 0 2294.56900704 0 19919.90063098 0 -3628.96200308 0 1957.44098460 0 1822
0.04150000 0.04152450 42783.07219610 0 1826.01030077 0 18386.76447682 0 2258.70007611 0 327.44097102 0 1887
0.04250000 0.04250150 40087.91133769 0 542.23198200 0 20507.06859742 0 4173.79487077 0 5145.02880513 0 1920
0.04350000 0.04349210 40138.04354789 0 184.49540652 0 14403.13926893 0 2774.00817752 0 2894.10365808 0 2005
0.04450000 0.04448520 40800.40982964 0 -960.00631569 0 14346.24142859 0 4474.88759432 0 7981.61351583 0 2151
0.04550000 0.04548030 38862.33407491 0 611.34012107 0 9002.12563824 0 3084.88333678 0 5424.59351541 0 2274
0.04650000 0.04648670 39231.44910934 0 1255.63440651 0 11161.73696081 0 20.29178846 0 8117.68031999 0 2311
0.04750000 0.04749250 37040.05041631 0 439.46316932 0 8594.85688630 0 1415.24782179 0 8594.53524159 0 2568
0.04850000 0.04851840 37577.52982043 0 622.65646931 0 12110.81068367 0 1222.80446354 0 9867.25009140 0 2493
0.04950000 0.04949480 34499.27901942 0 1356.53102515 0 9376.70863277 0 -719.61682216 0 6087.11507391 0 2644
0.05050000 0.05050630 34529.77981102 0 1629.41883486 0 14791.88572197 0 -1490.29086034 0 8407.14946915 0 2829
0.05150000 0.05149060 31769.29180258 0 586.52467702 0 12314.33414767 0 1782.14461684 0 9897.75088300 0 2784
0.05250000 0.05249300 32539.46451866 0 -1044.29497602 0 12286.93889121 0 3234.01557095 0 13020.51065737 0 3055
0.05350000 0.05348950 33182.19938181 0 -260.06527692 0 11970.50704228 0 2905.69395889 0 8525.03780151 0 3009
0.05450000 0.05448610 34469.33278766 0 161.42349862 0 8069.20069813 0 1873.38080293 0 12304.13024648 0 3336
0.05550000 0.05550870 32618.87748881 0 715.70052051 0 10110.32476371 0 -1072.28693888 0 10127.02810632 0 3349
0.05650000 0.05647670 32405.81559544 0 1121.78584174 0 9882.84431430 0 -1247.99257181 0 10780.70998085 0 3324
0.05750000 0.05747970 31477.59332284 0 95.33848711 0 9928.36258658 0 714.42170550 0 8479.28661410 0 3639
0.05850000 0.05849280 30892.42177185 0 223.46765435 0 12210.07689636 0 436.56171220 0 6372.36956822 0 3846
0.05950000 0.05951020 31171.25446313 0 217.63590300 0 9167.36229037 0 -892.46536276 0 6263.02145751 0 3787
0.06050000 0.06049470 30533.06699073 0 -240.04899379 0 11474.28689081 0 -1013.89067782 0 1620.47933012 0 3930
0.06150000 0.06148310 31513.86153686 0 -83.01816372 0 10092.91158450 0 -682.00768242 0 2304.71745225 0 4083
0.06250000 0.06249100 31832.62253715 0 -314.45983412 0 10630.98991325 0 592.48397714 0 -2202.36788681 0 4303
0.06350000 0.06350600 31795.57793935 0 172.11984896 0 10310.22140631 0 -1227.28530711 0 -3147.90351784 0 4470
0.06450000 0.06451750 31576.08315174 0 572.71170034 0 11391.32473764 0 -1670.50062836 0 -5184.75747260 0 4479
0.06550000 0.06550280 31490.23728736 0 355.59708360 0 11000.06058290 0 -889.54837796 0 -6940.41631112 0 4636
0.06650000 0.06648880 30404.63093007 0 519.72683428 0 12096.28121567 0 -434.96679808 0 -6632.02557998 0 4653
0.06750000 0.06749660 29733.83533864 0 440.80631327 0 11489.03818276 0 1434.19158618 0 -6978.09310716 0 5220
0.06850000 0.06852730 29667.06633301 0 102.98398190 0 9920.06637126 0 606.35795540 0 -6012.94823992 0 5029
0.06950000 0.06949320 29132.58155208 0 214.99508900 0 9700.72686041 0 1701.77780375 0 -7152.39126720 0 5040
0.07050000 0.07048030 28705.01590973 0 729.83403278 0 9697.55477809 0 -827.67280842 0 -6446.04838955 0 5475
0.07150000 0.07148790 27263.38213040 0 1100.66154803 0 8760.11572083 0 -1737.26963398 0 -9759.15528594 0 5509
0.07250000 0.07249820 26462.26497483 0 454.04476595 0 10444.84635487 0 -993.32981692 0 -7081.19687399 0 5916
0.07350000 0.07351270 26041.79769852 0 -102.93063325 0 10442.73902745 0 1141.63908427 0 -10107.62960285 0 5721
0.07450000 0.07449140 26898.92539868 0 -634.52183181 0 7989.32189771 0 1445.51569826 0 -8209.49324833 0 6028
0.07550000 0.07549160 27470.23295348 0 -846.72526654 0 7005.42181644 0 2303.39759981 0 -8908.69339515 0 6183
0.07650000 0.07648840 27352.77717780 0 517.15034922 0 6209.46206745 0 92.41506942 0 -8019.51213581 0 6330
0.07750000 0.07749960 26719.91347993 0 880.93384529 0 6328.02696282 0 5.59788238 0 -6151.28873945 0 6583
0.07850000 0.07848650 26174.55932599 0 499.14157274 0 7345.67755641 0 -174.25268613 0 -4896.33089596 0 6549
0.07950000 0.07947320 25056.56667361 0 391.94959071 0 5424.87079533 0 892.21248346 0 -2604.97833603 0 6828
0.08050000 0.08048110 25012.53462172 0 118.44732869 0 6064.00101947 0 1635.25280446 0 -2585.60201496 0 7147
0.08150000 0.08149960 24413.94272243 0 -229.50459285 0 5006.02283378 0 959.24213222 0 -1938.94086809 0 7386
0.08250000 0.08250610 24822.20968209 0 320.91047426 0 5401.59037294 0 1398.97703587 0 440.78856736 0 7227
0.08350000 0.08350160 24337.19163955 0 -141.92406527 0 2496.37333552 0 1029.28193183 0 -637.18704644 0 7798
0.08450000 0.08449610 23762.11307778 0 690.75863682 0 3586.57144834 0 -905.51748332 0 1610.53052646 0 7371
0.08550000 0.08548940 22849.19665697 0 1144.82225780 0 4369.32158177 0 -1494.26150885 0 -2189.80156067 0 8256
0.08650000 0.08650700 21705.02877979 0 1110.16226734 0 5584.67276096 0 -1232.40944010 0 1006.06029278 0 8037
0.08750000 0.08749060 20079.17021915 0 771.84859594 0 6617.01919051 0 -242.63546092 0 -1476.94815041 0 8155
0.08850000 0.08849210 19674.23061857 0 210.06394284 0 7870.97882628 0 299.07967131 0 247.19505198 0 8718
0.08950000 0.08949900 19824.95998510 0 6.00874468 0 7341.96200544 0 1094.43827742 0 535.86896231 0 8571
0.09050000 0.09049190 19338.83282286 0 -10.88713002 0 6366.43577786 0 636.09456354 0 565.59226102 0 8932
0.09150000 0.09150830 19745.32519101 0 125.69209854 0 7498.56970635 0 -136.28308250 0 1361.58861095 0 9285
0.09250000 0.09250820 19681.99445644 0 -114.21270969 0 6577.50125578 0 255.61216135 0 204.41519623 0 9204
0.09350000 0.09350330 19955.17063727 0 74.44056473 0 7140.95624314 0 -161.94811224 0 2341.06330465 0 9349
0.09450000 0.09448040 19473.92360169 0 109.79220224 0 6540.30138122 0 -425.14665230 0 142.94445539 0 9564
0.09550000 0.09549270 19538.47436793 0 577.88685283 0 7903.53148932 0 156.30158387 0 1462.27449685 0 10155
0.09650000 0.09649430 18942.76617984 0 354.01880627 0 7337.68080341 0 545.43068320 0 1127.42016979 0 9913
0.09750000 0.09749140 18019.09129799 0 319.23903088 0 7630.94314192 0 234.28489874 0 2133.69119531 0 10476
0.09850000 0.09850240 17917.16319804 0 410.24452008 0 6682.35743173 0 -100.95728749 0 949.79465066 0 10575
0.09950000 0.09950330 17123.36623245 0 550.45166806 0 7971.30979387 0 275.59517089 0 1877.80619052 0 10882
0.10050000 0.10051200 16789.96485219 0 289.34049127 0 7524.03509454 0 -110.85817718 0 1721.88614382 0 10875
0.10150000 0.10150300 16174.73615747 0 137.01288326 0 7138.52727101 0 703.36821863 0 1574.28449483 0 11118
0.10250000 0.10250800 16239.17601174 0 85.68215831 0 6895.47478109 0 558.35858237 0 1557.70315539 0 11575
0.10350000 0.10349800 16064.04601193 0 -65.36186547 0 5416.66330959 0 853.02284817 0 1853.30573646 0 11364
0.10450000 0.10450100 16104.52888079 0 15.84089113 0 5658.44031186 0 1276.80750148 0 1750.67889110 0 12093
0.10550000 0.10551000 15787.09882413 0 114.78501546 0 5271.93428061 0 -443.54583892 0 2127.45794262 0 12067
0.10650000 0.10649700 15786.98791216 0 254.25459884 0 4864.43261354 0 212.71917539 0 1875.43267437 0 12054
0.10750000 0.10749900 15446.82090176 0 255.32489935 0 4673.29801653 0 -612.85850593 0 743.90876171 0 12807
0.10850000 0.10850100 15102.99379636 0 340.01949748 0 5554.91507955 0 -551.30347199 0 614.29703417 0 12736
0.10950000 0.10950300 14808.07886951 0 69.16514782 0 5138.71791407 0 111.86803066 0 -414.39262774 0 12933
0.11050000 0.11050200 14789.77839455 0 -109.38482257 0 5113.92908889 0 789.50578149 0 291.20824883 0 13428
0.11150000 0.11150900 14856.54740017 0 -130.95043501 0 3865.94760827 0 1172.92735087 0 597.54599942 0 13453
0.11250000 0.11250000 15001.84208020 0 -3.10469221 0 3562.89174286 0 894.07247719 0 536.98695497 0 13668
0.11350000 0.11349100 15026.90818530 0 123.51046010 0 3159.31635950 0 252.87152658 0 1586.21862275 0 13791
0.11450000 0.11448600 14585.70037070 0 177.94605472 0 2916.17514001 0 287.16107107 0 1058.07467911 0 14205
0.11550000 0.11549300 14404.58112453 0 300.21208252 0 3594.16891825 0 -265.83602669 0 2245.95629082 0 14776
0.11650000 0.11649800 13888.50773053 0 440.28280877 0 3558.84345597 0 -644.88211888 0 1390.00425754 0 14553
0.11750000 0.11747300 13551.22443134 0 470.06267258 0 4349.54597761 0 -693.51258102 0 1135.20619004 0 14568
0.11850000 0.11849100 12963.39099308 0 170.62031913 0 4922.33975280 0 -352.15881254 0 771.32065497 0 16015
0.11950000 0.11950300 13120.77507778 0 4.76502222 0 5078.75890336 0 126.24111278 0 712.90221152 0 15270
0.12050000 0.12050700 13242.44550830 0 -394.07466405 0 4511.43308827 0 1281.52126019 0 1029.58583063 0 15999
0.12150000 0.12150000 13682.54420321 0 -458.66424948 0 3614.65435902 0 866.15371624 0 1172.32842623 0 15670
0.12250000 0.12250700 14126.85755295 0 -41.62326573 0 3367.47594383 0 343.59308114 0 1745.63239648 0 16887
0.12350000 0.12352200 14119.75918690 0 210.07836140 0 3351.47134663 0 -347.20215663 0 1607.50262969 0 16407
0.12450000 0.12449800 13921.33767350 0 202.79809972 0 3832.35237272 0 -690.61223302 0 1784.24085306 0 16306
0.12550000 0.12549900 13779.81400044 0 46.02192353 0 3954.42208633 0 -216.16188292 0 1049.33814327 0 17523
0.12650000 0.12650100 13872.75823087 0 -80.26521772 0 3770.30821699 0 541.63527561 0 1314.65066547 0 17154
0.12750000 0.12750600 13901.92807884 0 155.84573568 0 4242.13882636 0 -29.29606580 0 913.84697223 0 18007
0.12850000 0.12850300 13697.40640712 0 335.83146151 0 4133.38964028 0 -437.62646711 0 1110.90537753 0 17496
0.12950000 0.12949900 13186.87861159 0 360.02358030 0 4594.71688615 0 81.40117811 0 1279.12556164 0 18405
0.13050000 0.13049000 12973.70580624 0 164.94828101 0 4175.54727989 0 435.30064311 0 1789.54244520 0 18100
0.13150000 0.13148800 12530.27975225 0 37.01864441 0 4069.88144656 0 858.01610503 0 2300.44734142 0 19059
0.13250000 0.13249300 12604.14712393 0 171.93795333 0 4008.20330033 0 368.69467807 0 2630.28844747 0 18957
0.13350000 0.13349100 12311.67226041 0 272.59611123 0 3674.76864648 0 -6.16770371 0 2388.05670612 0 19468
0.13450000 0.13450700 12005.66613660 0 22.66752285 0 3638.79989477 0 215.88793036 0 3120.33080223 0 19953
0.13550000 0.13551000 11790.82965172 0 163.83250660 0 3570.55575995 0 57.45628211 0 2661.60998765 0 19956
0.13650000 0.13649900 11754.00687785 0 190.44694280 0 3502.44471949 0 -61.81079694 0 2744.60541441 0 19723
0.13750000 0.13749600 11659.06623197 0 -83.90279759 0 3319.97234730 0 436.39867160 0 1945.19630317 0 20946
0.13850000 0.13851100 11654.74066516 0 -7.29983764 0 3013.47821083 0 121.56506415 0 1993.09918279 0 20955
0.13950000 0.13949800 11611.37408509 0 106.56011654 0 2654.34525365 0 -162.25090192 0 1931.89795803 0 20506
0.14050000 0.14048300 11531.40655510 0 150.98668230 0 3190.17206941 0 -138.54679580 0 1290.19457620 0 21447
0.14150000 0.14148400 11221.85124827 0 178.82115016 0 2924.78190884 0 -122.25160924 0 923.49853182 0 21771
0.14250000 0.14249400 11100.29172972 0 172.97276201 0 3539.46713490 0 -248.10453013 0 1184.68401963 0 22470
0.14350000 0.14350900 10854.99881801 0 125.20186763 0 2938.84554657 0 55.01388963 0 466.25395555 0 22519
0.14450000 0.14449900 10935.40999589 0 75.51674357 0 3199.28903331 0 311.02710866 0 1331.88638553 0 22218
0.14550000 0.14550500 10607.16602221 0 62.25267023 0 2988.44537932 0 209.24652163 0 1144.60043386 0 23559
0.14650000 0.14650700 10658.76227041 0 98.09220949 0 3082.46545585 0 294.74634066 0 1359.69201628 0 23044
0.14750000 0.14750500 10468.84770506 0 194.91447693 0 2747.95495589 0 96.70902632 0 1129.71604756 0 23649
0.14850000 0.14849900 10238.67209480 0 168.13478190 0 3125.90967430 0 -138.28837091 0 1662.30423381 0 23640
0.14950000 0.14949500 10015.81667452 0 146.86962999 0 3123.90216765 0 -112.33497005 0 1378.23649757 0 24457
0.15050000 0.15050000 9914.66495835 0 66.52400109 0 2879.29691015 0 126.38197099 0 1114.85384364 0 24591
0.15150000 0.15149900 9763.94668302 0 29.02876795 0 2793.59523133 0 110.18671611 0 813.95188868 0 25020
0.15250000 0.15250500 9888.98883741 0 43.65561666 0 2573.03568882 0 66.08933708 0 630.05207944 0 25297
0.15350000 0.15350100 9642.38716447 0 107.32363453 0 2522.54856031 0 48.13989850 0 413.14375896 0 25452
0.15450000 0.15450400 9652.57997446 0 80.85438210 0 2309.40902856 0 -262.18480466 0 -60.01291392 0 26061
0.15550000 0.15549900 9584.84603470 0 125.08762830 0 2718.58546637 0 117.84840405 0 84.35476386 0 26128
0.15650000 0.15649500 9261.31581972 0 97.50115960 0 2360.73908804 0 -185.18860632 0 -269.26764303 0 26331
0.15750000 0.15749700 9328.43974365 0 0.00406254 0 2472.44962370 0 101.80842594 0 -253.04454925 0 27345
0.15850000 0.15849900 9579.36698341 0 -175.81099931 0 2476.81955530 0 325.15951181 0 -250.20631195 0 26980
0.15950000 0.15949700 9503.23700755 0 64.83181717 0 2303.81906530 0 -159.47588444 0 -361.51534629 0 27777
0.16050000 0.16050000 9637.16321070 0 157.78447691 0 2480.91220697 0 -305.24970417 0 -412.19324338 0 28224
0.16150000 0.16150500 9253.35234031 0 189.70272348 0 2927.87635279 0 -138.27617059 0 -230.17893763 0 28075
0.16250000 0.16249700 9152.33371851 0 190.82737085 0 3104.85858249 0 48.66085202 0 -192.85927813 0 28590
0.16350000 0.16349900 8969.08496253 0 171.13384155 0 3408.04754227 0 -73.05161414 0 316.06029384 0 29163
0.16450000 0.16449100 8724.53516102 0 172.48918582 0 3427.13549221 0 286.30150330 0 593.25814268 0 28996
0.16550000 0.16550500 8581.95782425 0 104.00880850 0 3313.11798759 0 160.15799305 0 794.96708686 0 30777
0.16650000 0.16650700 8466.80901753 0 68.74989340 0 3143.42267428 0 374.42106306 0 771.66891855 0 29211
0.16750000 0.16749900 8578.15354369 0 3.02806313 0 3095.71943620 0 173.57057752 0 1085.94907528 0 30922
0.16850000 0.16850800 8411.13120885 0 12.81532351 0 2822.85380888 0 187.28262431 0 1018.99041018 0 30867
0.16950000 0.16949900 8292.67722544 0 21.12052270 0 2400.21265797 0 85.43094270 0 475.91660633 0 30852
0.17050000 0.17049200 8398.90870981 0 80.01322573 0 2233.78924777 0 -86.47795169 0 210.33234981 0 31257
0.17150000 0.17149500 8136.77936114 0 125.34161671 0 2279.70680313 0 -189.45871715 0 -319.02053430 0 32608
0.17250000 0.17250900 8133.76255557 0 -10.60343938 0 2107.23869059 0 -28.15910720 0 -314.97335653 0 32361
0.17350000 0.17350400 8164.05261444 0 -36.85970755 0 1984.38150199 0 157.70905677 0 -1024.93196439 0 32508
0.17450000 0.17449800 8123.62520156 0 47.70257260 0 1741.38446805 0 164.06098526 0 -992.08316639 0 32791
0.17550000 0.17549800 8030.91388627 0 168.45531749 0 1711.74878981 0 16.46832014 0 -987.84300179 0 33633
0.17650000 0.17650100 7948.65047850 0 55.35549850 0 1607.65790645 0 199.80236742 0 -272.78355246 0 33984
0.17750000 0.17750300 7831.05051726 0 20.13118793 0 1565.32280770 0 420.17446871 0 -101.98666147 0 34069
