### header ###
fiducial parameters:
Omega_m = 0.31
Omega_nu = 0
Omega_de = 0.69
Omega_k = 0
H_0 = 100
w_de = -1
zeff = 0
beta = 0
fgrowth = 0
b_1 = 2
gamma = 0.55
Lx = 3500 Ly = 3500 Lz = 3500
nx = 700 ny = 700 nz = 700
xoffset = 1379.75464 yoffset = 22.6059522 zoffset = 368.141391
bins = 400 dk = 0.001
kx_ny = 0.628318531 ky_ny = 0.628318531 kz_ny = 0.628318531
############################
A(data) = 3.33663785 (not used)
A(ran) = 3.33398516 (used)
Ngal = 187251
weighted Ngal = 0
Nran = 9399747
weighted Nran = 0
SN(data) = 6621.41422
SN(ran) = 132.610536
SN(data+ran) = 6754.02476
############################
13 columns: k_central k_mean P_0(k) sigma^{lin}_{P_0(k)} P^img_1(k) sigma^{lin}_{P_1(k)} P_2(k) sigma^{lin}_{P_2(k)} P^img_3(k) sigma^{lin}_{P_3(k)} P_4(k) sigma^{lin}_{P_4(k)} N_modes
### header ###
0.00050000 0 0 0 0 0 0 0 0 0 0 0 0
0.00150000 0.00179520 39849.22877936 0 -61801.25851519 0 -85561.15335358 0 74714.40638610 0 56012.20826807 0 3
0.00250000 0.00253879 54683.37196170 0 -46469.67514972 0 -13460.72026424 0 -112340.51564916 0 -38955.38921730 0 6
0.00350000 0.00331552 77629.94932788 0 -1316.35870980 0 -64665.89286298 0 -30210.20224757 0 -28776.55413004 0 7
0.00450000 0.00420575 85662.52689369 0 14266.93937041 0 -15078.81498702 0 -73232.28973791 0 1131.02480879 0 24
0.00550000 0.00557378 62884.75754506 0 3687.23515185 0 11308.02984856 0 -7571.30577593 0 4330.58003083 0 45
0.00650000 0.00659388 74598.05973011 0 -14154.91828123 0 9872.49622755 0 18180.02456571 0 -23300.38654883 0 40
0.00750000 0.00754703 74537.72361871 0 -3740.69472114 0 12654.50115807 0 -14281.46883841 0 -35810.59123460 0 57
0.00850000 0.00846663 76453.50606758 0 19546.12729382 0 27800.19606269 0 -32168.02033287 0 -17469.52248921 0 75
0.00950000 0.00948925 55669.82301827 0 6899.21251446 0 38105.24897122 0 996.07488817 0 11915.05105754 0 112
0.01050000 0.01054430 59111.08869540 0 -6342.40115407 0 32611.66821080 0 37181.90682528 0 -14002.19249925 0 105
0.01150000 0.01145670 68746.56604417 0 -12930.78287405 0 14960.25009164 0 27007.84095271 0 -3555.93756237 0 144
0.01250000 0.01249090 73860.71695699 0 -3424.17414263 0 652.54946333 0 13148.39215818 0 -3352.18118324 0 169
0.01350000 0.01339930 81943.98129286 0 3056.70060534 0 -4170.32332612 0 -7039.81561817 0 12606.80901120 0 180
0.01450000 0.01448870 76835.93053835 0 -2081.69566401 0 -14603.11354991 0 -11070.06821804 0 847.05800245 0 267
0.01550000 0.01550050 83763.49215221 0 -246.03491278 0 -8520.83423787 0 4604.48823066 0 -2910.97336864 0 238
0.01650000 0.01653350 70643.60437019 0 789.91726489 0 -7260.07569837 0 -11408.73791685 0 -2330.00538129 0 315
0.01750000 0.01747870 77180.75585147 0 5862.29651177 0 -12780.27533147 0 -524.39179171 0 -11211.42552314 0 297
0.01850000 0.01844180 73582.99338541 0 -3363.54966011 0 -9007.30522721 0 12855.47364678 0 1728.94014508 0 388
0.01950000 0.01947590 74093.52118094 0 -4135.58569728 0 -16967.09126745 0 7924.28311881 0 6866.64876022 0 399
0.02050000 0.02045430 78541.75662899 0 544.92825198 0 -21463.46251026 0 673.06485032 0 10195.40533550 0 462
0.02150000 0.02154770 77434.52243765 0 -54.75291377 0 -16110.18539123 0 -4388.08788700 0 7556.33266005 0 571
0.02250000 0.02255340 77310.52285577 0 2969.98962760 0 -6821.37449428 0 -9513.10817284 0 6971.19438265 0 510
0.02350000 0.02348930 68700.75940077 0 1851.91933684 0 -12875.32688931 0 -8456.18365085 0 2815.63343967 0 555
0.02450000 0.02439640 74711.41176292 0 1841.51579410 0 4328.91635129 0 -1452.94680022 0 6871.31815414 0 592
0.02550000 0.02547300 69484.01972926 0 165.62817139 0 -112.29393262 0 3306.46326942 0 11945.55184914 0 837
0.02650000 0.02652900 72952.68066284 0 -1259.01722158 0 2438.67692899 0 11675.48120345 0 12085.63366660 0 723
0.02750000 0.02749970 68446.32734278 0 1808.94094866 0 -801.82255570 0 1861.15830390 0 17118.37519383 0 826
0.02850000 0.02848090 67009.46277814 0 2923.27350605 0 -1299.86609994 0 -2649.14348228 0 12641.96810552 0 831
0.02950000 0.02946900 64696.17183065 0 3763.48713086 0 11021.17822189 0 -4851.96610817 0 23256.13267300 0 996
0.03050000 0.03053250 56304.01765977 0 5048.00301423 0 12411.38212097 0 -9203.51959242 0 10011.63529327 0 1041
0.03150000 0.03150510 53752.70962577 0 1549.59549042 0 18696.98525547 0 -1515.23496228 0 13248.32384268 0 1036
0.03250000 0.03246190 52231.88470023 0 1255.39040018 0 18765.63976458 0 1632.90147070 0 10034.60516215 0 1059
0.03350000 0.03345080 52320.83609976 0 -205.19158002 0 17292.06333803 0 4761.18466115 0 5878.80021283 0 1302
0.03450000 0.03451200 52009.83893733 0 -573.59455961 0 13778.26123287 0 3323.54371272 0 3844.54159816 0 1339
0.03550000 0.03553350 53704.13018314 0 1907.38641278 0 15164.77176337 0 -2132.29370449 0 3080.75741152 0 1365
0.03650000 0.03647120 46362.09053933 0 2363.58952565 0 15222.77872340 0 -3869.18623778 0 4258.09905877 0 1308
0.03750000 0.03744890 46982.97574449 0 2396.82984290 0 19447.63746492 0 -1309.22707016 0 2473.41455783 0 1579
0.03850000 0.03847530 43918.47802769 0 213.04747482 0 20880.84193457 0 976.14178901 0 1404.16771604 0 1662
0.03950000 0.03950240 44813.20488551 0 -279.76546094 0 17442.34905668 0 5008.60708267 0 -1446.43626761 0 1683
0.04050000 0.04050350 44042.47760958 0 595.97104946 0 17828.43362245 0 742.96046437 0 -1135.00654850 0 1822
0.04150000 0.04152450 42210.43369767 0 859.67645722 0 13969.25164432 0 46.50627610 0 3864.51684387 0 1887
0.04250000 0.04250150 42677.04035328 0 629.34778843 0 14271.15402525 0 564.75154829 0 -3612.34739005 0 1920
0.04350000 0.04349210 44440.76249199 0 324.72140953 0 14406.24480408 0 477.49266542 0 1248.41403729 0 2005
0.04450000 0.04448520 40462.79379454 0 -729.28723677 0 11734.15363531 0 4371.20708525 0 -1949.42204921 0 2151
0.04550000 0.04548030 42739.70561604 0 310.76091993 0 13122.66058126 0 -572.72833713 0 3061.40327285 0 2274
0.04650000 0.04648670 42195.90422967 0 301.66613844 0 10853.81205994 0 -954.57384743 0 -3314.48220481 0 2311
0.04750000 0.04749250 39804.86399157 0 2639.43868495 0 14773.36342306 0 -2947.14176188 0 -2701.19446956 0 2568
0.04850000 0.04851840 37743.89777465 0 2335.68407413 0 16155.10473887 0 -2651.87191673 0 -311.23673228 0 2493
0.04950000 0.04949480 35344.76096278 0 996.40984231 0 17677.59334396 0 3103.62745963 0 -1910.08157364 0 2644
0.05050000 0.05050630 36510.77849795 0 -1512.14051833 0 16552.94597341 0 5322.24394997 0 4005.24195075 0 2829
0.05150000 0.05149060 35495.49032931 0 -785.98654469 0 13140.18467244 0 5625.84328403 0 -606.81158535 0 2784
0.05250000 0.05249300 37449.87014355 0 227.72112838 0 8728.42817115 0 2210.87483487 0 7607.47416918 0 3055
0.05350000 0.05348950 35706.77763117 0 409.35611520 0 9883.19923261 0 -987.54686683 0 6191.21704847 0 3009
0.05450000 0.05448610 35823.12428716 0 1045.10574252 0 9898.23889567 0 -604.05653203 0 5358.56761997 0 3336
0.05550000 0.05550870 35031.32373702 0 711.93616827 0 9989.05361628 0 -2830.46236999 0 2146.36843342 0 3349
0.05650000 0.05647670 33005.18387852 0 371.83015945 0 12499.44622474 0 -906.17851866 0 -89.11355282 0 3324
0.05750000 0.05747970 33844.67657553 0 987.32393377 0 12113.69439488 0 -1373.07909099 0 372.87273196 0 3639
0.05850000 0.05849280 32246.10235938 0 -37.53538327 0 11282.29827164 0 1298.47970032 0 -2522.11600363 0 3846
0.05950000 0.05951020 32290.35623521 0 1054.49998633 0 13907.69550125 0 563.56035373 0 -1438.70570334 0 3787
0.06050000 0.06049470 31069.65909909 0 914.99158376 0 13456.61652137 0 202.78589940 0 -1234.02875485 0 3930
0.06150000 0.06148310 30166.50293159 0 383.11101587 0 13415.80091660 0 516.35621952 0 457.98324998 0 4083
0.06250000 0.06249100 29556.81983535 0 256.12568377 0 12082.97177933 0 1114.86493484 0 -490.90857724 0 4303
0.06350000 0.06350600 29909.96354618 0 -19.44874658 0 13189.20776295 0 739.34029769 0 1359.68092508 0 4470
0.06450000 0.06451750 29593.97534513 0 -198.17972531 0 11375.02067813 0 2097.07915418 0 1392.85469515 0 4479
0.06550000 0.06550280 29407.42141246 0 304.45113799 0 12001.34056979 0 8.09668468 0 2251.80135161 0 4636
0.06650000 0.06648880 29752.80128542 0 -128.13881658 0 8982.69386118 0 784.09882297 0 1407.56162231 0 4653
0.06750000 0.06749660 29397.88298308 0 300.05791488 0 10716.44758574 0 37.05491262 0 39.31629677 0 5220
0.06850000 0.06852730 29383.57533902 0 233.73921185 0 10102.86038817 0 -542.38060404 0 1790.08591385 0 5029
0.06950000 0.06949320 28693.37015293 0 61.82554824 0 11245.80823368 0 -240.66788258 0 -1607.58026807 0 5040
0.07050000 0.07048030 29372.70596601 0 227.81762180 0 10727.35023234 0 91.42795289 0 615.64461460 0 5475
0.07150000 0.07148790 29423.94729591 0 -516.92741617 0 10743.09973200 0 1087.43751391 0 -1130.01550987 0 5509
0.07250000 0.07249820 29774.42911947 0 -133.30620524 0 10247.67814672 0 1462.76250952 0 1613.68042639 0 5916
0.07350000 0.07351270 28306.28737944 0 757.08621281 0 8754.53684876 0 -391.02680313 0 -324.44634785 0 5721
0.07450000 0.07449140 28536.54062808 0 1347.89098272 0 11897.30514242 0 -230.01367879 0 3434.26713185 0 6028
0.07550000 0.07549160 26797.88459448 0 360.65577852 0 10616.36062448 0 1086.25962879 0 1562.66092043 0 6183
0.07650000 0.07648840 26414.12918007 0 318.24747787 0 12040.38158305 0 813.62026189 0 4296.23059388 0 6330
0.07750000 0.07749960 26144.39127029 0 281.86391540 0 9485.20272132 0 536.08745889 0 3241.54649368 0 6583
0.07850000 0.07848650 25391.74264538 0 477.91967650 0 9797.51973618 0 837.19571012 0 2227.27871516 0 6549
0.07950000 0.07947320 24076.88124717 0 1065.97382957 0 9865.56422946 0 -900.77156015 0 3463.10424392 0 6828
0.08050000 0.08048110 23287.63167234 0 544.26167104 0 8542.68389585 0 340.23910318 0 997.32930254 0 7147
0.08150000 0.08149960 22789.30419345 0 166.03965479 0 9744.44835878 0 1096.60771554 0 1868.55613226 0 7386
0.08250000 0.08250610 22619.83070408 0 -145.88473170 0 7540.12842131 0 676.80258370 0 259.49408028 0 7227
0.08350000 0.08350160 22413.31261691 0 66.40255248 0 7351.05678693 0 990.58474568 0 473.27135586 0 7798
0.08450000 0.08449610 22147.56753803 0 334.46280781 0 6508.03708929 0 11.15242036 0 2581.29863055 0 7371
0.08550000 0.08548940 21895.46463139 0 207.38763702 0 6573.69697523 0 222.50715670 0 -978.46206741 0 8256
0.08650000 0.08650700 21754.27369424 0 138.20629605 0 6924.55589949 0 38.30278319 0 1280.65614682 0 8037
0.08750000 0.08749060 21141.92871073 0 294.61213718 0 6419.47388166 0 -467.11906891 0 -1379.56744121 0 8155
0.08850000 0.08849210 20830.37698846 0 859.29824740 0 7500.20011230 0 -999.72832844 0 405.32224687 0 8718
0.08950000 0.08949900 20354.45372741 0 456.85638437 0 7649.74272075 0 -408.11057379 0 -1056.44649140 0 8571
0.09050000 0.09049190 19358.35332949 0 323.62005367 0 8415.17949574 0 707.51632628 0 -180.34729886 0 8932
0.09150000 0.09150830 19199.08374131 0 247.43573096 0 7825.71565153 0 844.16098181 0 -663.22474039 0 9285
0.09250000 0.09250820 18608.03385594 0 116.22687106 0 7806.33933046 0 621.30112505 0 839.65795585 0 9204
0.09350000 0.09350330 18273.85609189 0 360.52822976 0 6828.22885399 0 715.92345357 0 923.52404157 0 9349
0.09450000 0.09448040 18342.51060100 0 208.21836767 0 6451.41652887 0 119.91691228 0 1246.80581374 0 9564
0.09550000 0.09549270 17718.63077266 0 146.05664525 0 6825.66678750 0 666.65081113 0 1090.90462207 0 10155
0.09650000 0.09649430 17523.09297047 0 145.66623512 0 6275.63214844 0 8.03943193 0 574.97541363 0 9913
0.09750000 0.09749140 17477.06450313 0 332.35548039 0 6509.20166497 0 -485.61918542 0 1079.54723640 0 10476
0.09850000 0.09850240 16999.69938648 0 292.39833427 0 6517.04314122 0 -404.35731274 0 -1185.58240658 0 10575
0.09950000 0.09950330 16453.79067269 0 459.32306658 0 7307.47947412 0 -371.20017946 0 842.18563963 0 10882
0.10050000 0.10051200 16184.71823472 0 155.98992124 0 7701.93789359 0 298.64156903 0 -105.34374497 0 10875
0.10150000 0.10150300 16296.85023587 0 -145.95682448 0 7210.88623990 0 316.81338611 0 7.44895878 0 11118
0.10250000 0.10250800 16173.51612581 0 -62.73979560 0 6362.46512935 0 980.96645968 0 -45.09481038 0 11575
0.10350000 0.10349800 16582.00490941 0 -80.20831988 0 5872.91078725 0 206.02231067 0 -420.32198163 0 11364
0.10450000 0.10450100 16115.28734183 0 14.09912956 0 5856.02998550 0 538.26798821 0 -482.44377573 0 12093
0.10550000 0.10551000 16322.58181279 0 244.34794173 0 4739.46809752 0 592.18784218 0 -355.12681685 0 12067
0.10650000 0.10649700 15871.94648078 0 -136.35517528 0 4327.34140132 0 275.95119831 0 -132.35790790 0 12054
0.10750000 0.10749900 16351.64074880 0 -131.19222310 0 3144.54288517 0 1147.61723943 0 -785.02050144 0 12807
0.10850000 0.10850100 16104.19614488 0 -141.11995349 0 3107.35410180 0 449.49959344 0 -651.51798201 0 12736
0.10950000 0.10950300 16039.42355470 0 566.03147241 0 2560.55809225 0 -891.88972963 0 -1535.06602242 0 12933
0.11050000 0.11050200 15506.82427725 0 537.53707833 0 3659.18551476 0 -949.29221944 0 -957.31891867 0 13428
0.11150000 0.11150900 14882.50080103 0 234.17287765 0 4236.93705499 0 -582.28340330 0 -1616.34231366 0 13453
0.11250000 0.11250000 14935.73854638 0 -0.37353377 0 4612.35188930 0 168.09485359 0 -1973.81159130 0 13668
0.11350000 0.11349100 15055.63438540 0 7.34456844 0 4859.89631398 0 30.41306024 0 -1692.18391839 0 13791
0.11450000 0.11448600 14737.20612101 0 171.62739982 0 5008.13016120 0 36.67781192 0 -1055.90524098 0 14205
0.11550000 0.11549300 14728.11133951 0 292.97396739 0 5449.54870854 0 146.03224462 0 -543.09709537 0 14776
0.11650000 0.11649800 14724.45124452 0 76.00442350 0 5440.74229816 0 -160.84897462 0 -405.58732648 0 14553
0.11750000 0.11747300 14400.47738166 0 136.41728598 0 5706.28773550 0 -41.98639152 0 8.31029005 0 14568
0.11850000 0.11849100 14595.68244795 0 141.29741264 0 6643.39405685 0 114.71292268 0 469.31956239 0 16015
0.11950000 0.11950300 14019.93841437 0 50.02950572 0 5472.54075981 0 -98.15287834 0 -307.81620714 0 15270
0.12050000 0.12050700 14298.54928171 0 35.42894315 0 6154.51627777 0 508.47703321 0 760.12963725 0 15999
0.12150000 0.12150000 14214.47800884 0 10.55317408 0 5805.58722177 0 -242.60551469 0 -931.25016936 0 15670
0.12250000 0.12250700 14357.22171357 0 59.17120298 0 6034.87553629 0 672.90735533 0 894.98195534 0 16887
0.12350000 0.12352200 13956.16403192 0 20.95781484 0 4902.19813914 0 175.43722597 0 -261.80548572 0 16407
0.12450000 0.12449800 14104.45333512 0 204.53276292 0 5243.92900832 0 918.47089224 0 1296.78274719 0 16306
0.12550000 0.12549900 13899.15527960 0 143.36924823 0 4781.98065542 0 22.83677452 0 137.04061125 0 17523
0.12650000 0.12650100 13505.08505203 0 279.03898754 0 4809.66428301 0 46.81538776 0 517.19693225 0 17154
0.12750000 0.12750600 12912.59331106 0 398.97364574 0 5188.17356126 0 -486.38558713 0 450.61314961 0 18007
0.12850000 0.12850300 12459.96156360 0 351.96249836 0 5013.22102060 0 -308.98854666 0 -22.92616956 0 17496
0.12950000 0.12949900 12512.20110123 0 -109.64968036 0 4738.51425458 0 1154.81542625 0 918.42541833 0 18405
0.13050000 0.13049000 12371.01016408 0 -314.81253418 0 3869.66315925 0 1308.51723356 0 391.14658805 0 18100
0.13150000 0.13148800 12793.80659174 0 -72.05163182 0 2744.87160314 0 974.73986172 0 1620.30187097 0 19059
0.13250000 0.13249300 12517.30305183 0 138.49688541 0 2476.23172186 0 248.17773203 0 841.86066756 0 18957
0.13350000 0.13349100 12135.32222893 0 248.37737358 0 2298.55074675 0 -221.62207918 0 1411.03316695 0 19468
0.13450000 0.13450700 11898.63608605 0 295.59592635 0 2364.57664218 0 -530.43982141 0 1462.75141832 0 19953
0.13550000 0.13551000 11648.86233078 0 307.28937529 0 2553.96992127 0 -337.43857595 0 608.03605350 0 19956
0.13650000 0.13649900 11426.48383197 0 -68.68212619 0 2687.88503322 0 160.94657716 0 600.96874280 0 19723
0.13750000 0.13749600 11418.49817016 0 29.58299506 0 2202.34570442 0 153.16055690 0 -317.37349155 0 20946
0.13850000 0.13851100 11274.86716969 0 143.83840586 0 2709.37977291 0 -336.21743517 0 -278.57315727 0 20955
0.13950000 0.13949800 11304.92431341 0 276.03105493 0 2640.94708774 0 -785.85234121 0 -755.59999241 0 20506
0.14050000 0.14048300 10939.35846200 0 166.29586144 0 3117.86855651 0 -200.83939434 0 -1043.67497811 0 21447
0.14150000 0.14148400 10956.46108770 0 147.52290149 0 3353.03520540 0 -355.78119747 0 -1579.06480072 0 21771
0.14250000 0.14249400 10725.33163449 0 95.67798865 0 3329.88787737 0 130.48682298 0 -1641.98516100 0 22470
0.14350000 0.14350900 10655.52364090 0 105.50966927 0 3678.27346471 0 335.21811832 0 -1361.62188455 0 22519
0.14450000 0.14449900 10728.41498724 0 -100.99854674 0 2870.15776387 0 435.09656508 0 -1080.66966553 0 22218
0.14550000 0.14550500 10570.26560996 0 34.27690052 0 2893.18308873 0 596.77627036 0 -480.95977358 0 23559
0.14650000 0.14650700 10620.86365044 0 99.30736103 0 2672.24644552 0 228.27790647 0 -426.12600499 0 23044
0.14750000 0.14750500 10331.00630939 0 194.17802145 0 2654.71126315 0 -54.99126359 0 338.73180952 0 23649
0.14850000 0.14849900 10127.67139574 0 223.59187576 0 2755.90734410 0 26.74509050 0 323.54241530 0 23640
0.14950000 0.14949500 9870.61072407 0 27.21313901 0 2408.19831978 0 371.13695964 0 677.43700016 0 24457
0.15050000 0.15050000 10008.35229897 0 0.31802344 0 2597.87996999 0 272.76247919 0 574.43970882 0 24591
0.15150000 0.15149900 9913.32292352 0 -21.53067516 0 1888.44264839 0 457.63831376 0 843.28921373 0 25020
0.15250000 0.15250500 9985.87044276 0 45.84823538 0 2160.70935107 0 71.72333239 0 1184.89475237 0 25297
0.15350000 0.15350100 9715.72215869 0 213.36024657 0 2137.58420544 0 -362.62113862 0 486.23031037 0 25452
0.15450000 0.15450400 9628.90026898 0 198.56680808 0 2245.01353908 0 -375.90062873 0 637.45878076 0 26061
0.15550000 0.15549900 9446.61644713 0 48.73860131 0 2595.22917391 0 156.93045474 0 716.30055427 0 26128
0.15650000 0.15649500 9350.47795199 0 -17.41772660 0 2203.37718573 0 243.57488530 0 199.98315393 0 26331
0.15750000 0.15749700 9545.89375102 0 32.71781097 0 2632.41795728 0 74.32543811 0 837.58279290 0 27345
0.15850000 0.15849900 9301.92069175 0 20.29234302 0 1926.58527469 0 393.27831611 0 726.80391778 0 26980
0.15950000 0.15949700 9442.49052187 0 28.86162361 0 2205.00759169 0 -16.08988850 0 976.31481168 0 27777
0.16050000 0.16050000 9362.50080948 0 91.31027529 0 2197.02192988 0 41.76146205 0 777.38753970 0 28224
0.16150000 0.16150500 9215.13207563 0 107.03127058 0 2001.36212452 0 173.12360228 0 1128.42946871 0 28075
0.16250000 0.16249700 9030.01999856 0 98.93414225 0 2155.25248218 0 64.99507959 0 1236.29135903 0 28590
0.16350000 0.16349900 8894.43011587 0 177.91499937 0 1803.88336286 0 2.87437242 0 1157.02257444 0 29163
0.16450000 0.16449100 8786.80114068 0 152.60156057 0 2120.71449488 0 62.26109954 0 884.77805415 0 28996
0.16550000 0.16550500 8547.24237780 0 144.38742011 0 2126.43755250 0 -240.55364325 0 1196.28541164 0 30777
0.16650000 0.16650700 8395.22643243 0 49.61014757 0 1932.47470027 0 7.69787852 0 587.54728537 0 29211
0.16750000 0.16749900 8452.61228544 0 46.81072946 0 2083.00442525 0 -18.65073496 0 775.63180322 0 30922
0.16850000 0.16850800 8277.39355605 0 83.89614287 0 1892.39111450 0 -84.80473372 0 187.45897434 0 30867
0.16950000 0.16949900 8240.60405577 0 100.38220892 0 2160.70935107 0 -27.75572036 0 552.82740245 0 30852
0.17050000 0.17049200 8018.44738090 0 184.30241969 0 2150.00634602 0 -170.12565175 0 -64.97045713 0 31257
0.17150000 0.17149500 8038.89954807 0 82.54578964 0 2570.88399661 0 -57.12920271 0 83.67520622 0 32608
0.17250000 0.17250900 7812.14002647 0 59.56305497 0 2545.76243553 0 -92.95687439 0 -29.82123397 0 32361
0.17350000 0.17350400 7819.75967877 0 101.63972883 0 2605.32216314 0 -49.40606954 0 -17.52242750 0 32508
0.17450000 0.17449800 7777.18057368 0 -16.46665646 0 2528.68199223 0 92.93280649 0 139.55498560 0 32791
0.17550000 0.17549800 7797.62164966 0 36.60738282 0 2555.83324235 0 34.22443916 0 -200.43012917 0 33633
0.17650000 0.17650100 7786.47499673 0 118.39630918 0 2366.60633122 0 21.99994371 0 62.37212242 0 33984
0.17750000 0.17750300 7629.30164477 0 23.67005614 0 2289.58905961 0 193.80535723 0 -305.61682279 0 34069
0.17850000 0.17849800 7584.93685698 0 44.79734447 0 2086.25414596 0 80.80391716 0 -130.59329847 0 34536
