### header ###
fiducial parameters:
Omega_m = 0.31
Omega_nu = 0
Omega_de = 0.69
Omega_k = 0
H_0 = 100
w_de = -1
zeff = 0
beta = 0
fgrowth = 0
b_1 = 2
gamma = 0.55
Lx = 3500 Ly = 3500 Lz = 3500
nx = 700 ny = 700 nz = 700
xoffset = 1379.75464 yoffset = 22.6059522 zoffset = 368.141391
bins = 400 dk = 0.001
kx_ny = 0.628318531 ky_ny = 0.628318531 kz_ny = 0.628318531
############################
A(data) = 3.31617723 (not used)
A(ran) = 3.32230927 (used)
Ngal = 186744
weighted Ngal = 0
Nran = 9399747
weighted Nran = 0
SN(data) = 6619.49791
SN(ran) = 132.146123
SN(data+ran) = 6751.64403
############################
13 columns: k_central k_mean P_0(k) sigma^{lin}_{P_0(k)} P^img_1(k) sigma^{lin}_{P_1(k)} P_2(k) sigma^{lin}_{P_2(k)} P^img_3(k) sigma^{lin}_{P_3(k)} P_4(k) sigma^{lin}_{P_4(k)} N_modes
### header ###
0.00050000 0 0 0 0 0 0 0 0 0 0 0 0
0.00150000 0.00179520 16675.72552362 0 -23846.29526262 0 -37332.08163196 0 36117.48465416 0 -39840.13399786 0 3
0.00250000 0.00253879 28245.06397228 0 -30574.43715535 0 -16109.18718351 0 -17097.41283159 0 5663.91936315 0 6
0.00350000 0.00331552 45258.51644298 0 -16267.23674002 0 -33845.34204735 0 -36875.45705360 0 -55436.02058661 0 7
0.00450000 0.00420575 77178.98125996 0 -21727.32208566 0 -49310.13068816 0 -23045.06719508 0 6536.68565101 0 24
0.00550000 0.00557378 93459.86017223 0 -19757.52550766 0 -52649.13552943 0 -16873.59247718 0 -3087.80032158 0 45
0.00650000 0.00659388 140112.87280751 0 -15194.93981906 0 -58163.67865208 0 -33729.43903924 0 -18598.60633854 0 40
0.00750000 0.00754703 112444.77290047 0 7320.77781927 0 -25472.26473523 0 -46337.68990604 0 -29968.30324213 0 57
0.00850000 0.00846663 120626.74888917 0 21051.53545560 0 -4985.90340251 0 -46271.80819617 0 7531.88766198 0 75
0.00950000 0.00948925 94052.68464911 0 3983.19265121 0 18679.35025232 0 6467.94241233 0 2363.84462318 0 112
0.01050000 0.01054430 92474.74005929 0 2705.15402687 0 25437.77111272 0 19553.66930775 0 7073.84341041 0 105
0.01150000 0.01145670 96493.85709741 0 547.61453988 0 12651.28471096 0 25703.95983948 0 23597.63062704 0 144
0.01250000 0.01249090 89933.85775042 0 6985.20256440 0 27692.83327623 0 -2025.35238352 0 30255.01068324 0 169
0.01350000 0.01339930 82719.47778348 0 12579.08101883 0 22302.84429530 0 6780.34815677 0 64190.19142587 0 180
0.01450000 0.01448870 71786.99586358 0 -53.54042412 0 29348.74898060 0 17941.12018344 0 48087.88078447 0 267
0.01550000 0.01550050 72347.98860523 0 -1923.49083075 0 29868.14973369 0 19880.74870575 0 36516.54592036 0 238
0.01650000 0.01653350 73452.67182127 0 -1310.23636908 0 13704.83750907 0 15552.96365655 0 55185.24862361 0 315
0.01750000 0.01747870 79124.70994059 0 -1566.25446824 0 18609.14297564 0 5200.09659798 0 42031.75451483 0 297
0.01850000 0.01844180 79355.73957302 0 1964.26207073 0 13136.19184154 0 -6420.47208939 0 48521.10293727 0 388
0.01950000 0.01947590 68898.73726630 0 5400.45907085 0 17863.70362875 0 -3097.15020061 0 23125.92202083 0 399
0.02050000 0.02045430 72544.63552712 0 2240.24432439 0 30567.33878930 0 -2339.87654658 0 37459.29766096 0 462
0.02150000 0.02154770 65776.56532537 0 1157.96532618 0 28750.37890524 0 4544.30739602 0 22140.80190789 0 571
0.02250000 0.02255340 74482.26763397 0 -2111.93026690 0 28251.82960242 0 9831.53643722 0 27994.07018534 0 510
0.02350000 0.02348930 68102.38932542 0 -3974.64133837 0 23913.28609218 0 4200.08100753 0 19635.30051729 0 555
0.02450000 0.02439640 75942.42371221 0 1206.27858009 0 19273.94932071 0 5717.50093561 0 15120.18515163 0 592
0.02550000 0.02547300 70197.51642893 0 5651.96305284 0 26809.30852734 0 -5998.48531910 0 14059.20125157 0 837
0.02650000 0.02652900 65215.68349570 0 3132.08747100 0 27096.23779239 0 -2498.42520695 0 9945.30993552 0 723
0.02750000 0.02749970 59545.19814395 0 1219.98729952 0 33815.06307968 0 4887.02538172 0 16451.12878542 0 826
0.02850000 0.02848090 60996.48126463 0 158.87363245 0 22109.74655643 0 7990.57520297 0 7340.65324420 0 831
0.02950000 0.02946900 62877.54826705 0 -1038.13381611 0 24587.96360255 0 10694.87520767 0 15455.91568326 0 996
0.03050000 0.03053250 63057.55839352 0 -2855.05155362 0 10093.39959717 0 8290.85826914 0 11691.78526297 0 1041
0.03150000 0.03150510 61632.56140961 0 2936.12820332 0 16485.51149596 0 -2037.51942657 0 16214.44264255 0 1036
0.03250000 0.03246190 59442.05001233 0 3268.53137585 0 8458.41298144 0 -1119.60087594 0 17667.05670685 0 1059
0.03350000 0.03345080 52752.50548498 0 3318.48612691 0 19618.10916202 0 -3218.41025684 0 12820.75820033 0 1302
0.03450000 0.03451200 54183.60262721 0 1492.84183564 0 14645.48192225 0 2266.51936996 0 16441.70126801 0 1339
0.03550000 0.03553350 52295.99181859 0 483.80910208 0 23432.92635236 0 847.74565666 0 13728.79449448 0 1365
0.03650000 0.03647120 48985.15861758 0 1458.90277298 0 17955.87147539 0 -900.67506674 0 11245.69732171 0 1308
0.03750000 0.03744890 50235.46924955 0 462.38312781 0 24699.76286778 0 -823.99718575 0 10922.49984264 0 1579
0.03850000 0.03847530 49251.34734434 0 828.65105199 0 22251.93570131 0 190.08758802 0 4711.03026855 0 1662
0.03950000 0.03950240 49462.19099832 0 2000.89629425 0 28521.90024811 0 -295.68354680 0 12287.27162712 0 1683
0.04050000 0.04050350 46705.36308487 0 -131.27762532 0 24810.12027742 0 2721.85736947 0 5662.08931566 0 1822
0.04150000 0.04152450 47403.44302079 0 -456.08000059 0 25743.44450061 0 3570.23411524 0 8969.87243751 0 1887
0.04250000 0.04250150 48647.98623035 0 -105.58586580 0 22469.10133756 0 2346.86400065 0 6643.69351917 0 1920
0.04350000 0.04349210 46095.56907666 0 2191.12141311 0 24784.49961247 0 2258.45606978 0 14580.82024404 0 2005
0.04450000 0.04448520 46752.94431978 0 580.26147810 0 23015.12096332 0 2737.51813956 0 10286.35315048 0 2151
0.04550000 0.04548030 44172.02278993 0 -308.00586661 0 18293.59842246 0 4940.30749186 0 13482.01536238 0 2274
0.04650000 0.04648670 44624.21088951 0 1427.96942469 0 19234.02101170 0 1013.06660189 0 11253.90480745 0 2311
0.04750000 0.04749250 42498.58299438 0 1132.12283729 0 19614.00541915 0 334.61364809 0 11208.31998800 0 2568
0.04850000 0.04851840 40506.82584642 0 1202.62957629 0 19741.33236011 0 601.52219353 0 11958.19581367 0 2493
0.04950000 0.04949480 39599.34411212 0 1262.62186059 0 19968.48007361 0 -821.30978873 0 7521.36211607 0 2644
0.05050000 0.05050630 36713.52557816 0 1675.69130853 0 19061.99654703 0 -404.49484358 0 4997.53806811 0 2829
0.05150000 0.05149060 36330.87928345 0 762.27134738 0 21190.95180124 0 812.72298406 0 8396.40209930 0 2784
0.05250000 0.05249300 34749.82915848 0 497.30708876 0 18648.18398889 0 2545.52952039 0 4054.71978033 0 3055
0.05350000 0.05348950 35915.18122183 0 -752.75510040 0 14705.81803365 0 4978.72739809 0 5723.23508443 0 3009
0.05450000 0.05448610 34676.51634665 0 -984.42358577 0 13493.77203115 0 3464.40191396 0 7005.08908053 0 3336
0.05550000 0.05550870 36579.76574296 0 -137.62068085 0 8365.79039573 0 3819.78604657 0 8738.78734910 0 3349
0.05650000 0.05647670 36505.78745932 0 -936.74696657 0 8322.39054207 0 2078.15757219 0 7392.59331950 0 3324
0.05750000 0.05747970 37406.72538742 0 -34.65799405 0 4835.44022471 0 1312.12187257 0 8565.22120805 0 3639
0.05850000 0.05849280 36923.03828851 0 -395.18378374 0 3848.47897308 0 233.46525928 0 5670.61844611 0 3846
0.05950000 0.05951020 36234.05313409 0 1049.39027190 0 3583.49918679 0 -499.32901397 0 6496.93480115 0 3787
0.06050000 0.06049470 35559.70835964 0 1547.46598061 0 4864.19969840 0 -3437.08429588 0 1544.32717187 0 3930
0.06150000 0.06148310 34050.30736695 0 1292.27972123 0 8507.68007829 0 -2237.27188361 0 2154.19881847 0 4083
0.06250000 0.06249100 31789.81051693 0 1452.62515551 0 8932.92766048 0 -1666.92926294 0 -502.91147058 0 4303
0.06350000 0.06350600 30915.71328545 0 830.44449854 0 10949.48472482 0 -1657.63483990 0 -1589.16888114 0 4470
0.06450000 0.06451750 30448.33024605 0 9.79585606 0 10709.71522919 0 1595.69050494 0 -2990.69689230 0 4479
0.06550000 0.06550280 30858.59362116 0 -160.42196354 0 11194.12325590 0 -233.23678062 0 -2728.71172919 0 4636
0.06650000 0.06648880 29652.53686501 0 409.60566714 0 8913.41824505 0 245.27960227 0 -4778.68656993 0 4653
0.06750000 0.06749660 29930.92590841 0 1173.35990755 0 11659.50987985 0 -791.05300346 0 -2629.13496299 0 5220
0.06850000 0.06852730 28150.23423838 0 262.92236926 0 11061.81636751 0 144.17779649 0 -1923.65719870 0 5029
0.06950000 0.06949320 28279.00303494 0 69.30855699 0 11494.47286926 0 2391.43952119 0 -1926.48545392 0 5040
0.07050000 0.07048030 27646.36116102 0 447.25362606 0 10856.77340952 0 494.26144608 0 -1335.41338616 0 5475
0.07150000 0.07148790 27183.41460040 0 370.53692589 0 8969.56188400 0 1187.00207979 0 146.93839541 0 5509
0.07250000 0.07249820 26971.46182672 0 283.48323016 0 10737.04393847 0 1048.95771522 0 3502.54454026 0 5916
0.07350000 0.07351270 26449.28827440 0 166.48663003 0 8578.83010671 0 1456.51816563 0 1329.81233170 0 5721
0.07450000 0.07449140 26052.55615956 0 45.35046247 0 8502.87759001 0 749.44437811 0 2848.34137947 0 6028
0.07550000 0.07549160 26136.29469652 0 230.28430400 0 8468.69452101 0 617.46468002 0 5494.27950583 0 6183
0.07650000 0.07648840 25680.33558998 0 161.93258456 0 7286.52820309 0 -66.48451643 0 2098.49882739 0 6330
0.07750000 0.07749960 25137.31058739 0 1010.81397979 0 9453.45971565 0 -64.24132184 0 4912.50186111 0 6583
0.07850000 0.07848650 23747.47269781 0 991.84581477 0 9676.09331199 0 -950.48008663 0 3442.80735350 0 6549
0.07950000 0.07947320 23255.57811316 0 462.56391432 0 10359.98760702 0 161.29262250 0 5924.01902279 0 6828
0.08050000 0.08048110 22820.02680900 0 54.30771312 0 10462.00443655 0 1490.37958992 0 3609.30840209 0 7147
0.08150000 0.08149960 23109.83978526 0 -467.66253756 0 9999.56807099 0 1449.40870839 0 5237.86212359 0 7386
0.08250000 0.08250610 22730.29902569 0 381.21553031 0 9273.31649482 0 -185.28953622 0 4873.44975666 0 7227
0.08350000 0.08350160 23058.37663142 0 137.24912576 0 8447.04450457 0 588.86048309 0 3945.67113194 0 7798
0.08450000 0.08449610 22223.87497303 0 273.67750294 0 8706.27905084 0 1174.75739836 0 5483.78723352 0 7371
0.08550000 0.08548940 21874.61318113 0 384.22457204 0 7745.21574408 0 -225.52839875 0 3495.51272140 0 8256
0.08650000 0.08650700 21227.10910329 0 609.32595970 0 8218.33293230 0 329.84776076 0 4510.43488054 0 8037
0.08750000 0.08749060 20645.48673533 0 422.35167067 0 8648.95974501 0 -161.98582231 0 2448.84755659 0 8155
0.08850000 0.08849210 20300.21777433 0 168.52741027 0 6879.38145432 0 384.46525101 0 3541.14190564 0 8718
0.08950000 0.08949900 20038.24370241 0 -16.51845235 0 7315.91987500 0 -24.90306451 0 1524.14119343 0 8571
0.09050000 0.09049190 19549.89830078 0 276.66879875 0 6351.05228769 0 55.72816271 0 2134.45648790 0 8932
0.09150000 0.09150830 19685.65455143 0 -131.89429587 0 6009.12177697 0 857.67560529 0 760.46902787 0 9285
0.09250000 0.09250820 19681.55080856 0 66.10863576 0 5403.09877572 0 741.16590871 0 706.18316441 0 9204
0.09350000 0.09350330 19293.80256325 0 311.31769802 0 4495.20666713 0 -11.24669553 0 767.51193794 0 9349
0.09450000 0.09448040 18618.34866910 0 339.06676366 0 4621.84595388 0 679.41677882 0 402.75130742 0 9564
0.09550000 0.09549270 18669.03543916 0 337.85893232 0 4441.10380842 0 -198.52133418 0 358.85456814 0 10155
0.09650000 0.09649430 17977.16657353 0 323.80527666 0 3538.43565359 0 225.78016892 0 -120.51694604 0 9913
0.09750000 0.09749140 17352.39944943 0 296.07728429 0 4135.02004624 0 146.90623094 0 139.23445001 0 10476
0.09850000 0.09850240 17037.07672020 0 248.34077263 0 3385.54350366 0 -158.46880376 0 -225.43856005 0 10575
0.09950000 0.09950330 16815.80734108 0 196.97189396 0 3653.37372756 0 623.43839870 0 129.95222728 0 10882
0.10050000 0.10051200 16264.13120487 0 208.62541460 0 4099.83876952 0 -258.96281195 0 -483.91225021 0 10875
0.10150000 0.10150300 16206.90062862 0 293.16695421 0 3053.98326209 0 -76.56807813 0 126.68697890 0 11118
0.10250000 0.10250800 16440.14850044 0 -201.79323728 0 4545.51633649 0 263.75309991 0 877.63975979 0 11575
0.10350000 0.10349800 16257.36557474 0 -84.93117337 0 3436.58519201 0 114.66190317 0 -706.95400260 0 11364
0.10450000 0.10450100 16432.93922243 0 4.52040587 0 3659.01914681 0 592.05585693 0 1057.46577239 0 12093
0.10550000 0.10551000 16411.97686019 0 93.04283117 0 3708.75207393 0 -252.06076008 0 408.53869399 0 12067
0.10650000 0.10649700 16310.38149615 0 261.03575666 0 4271.66359264 0 84.24307551 0 1108.92892623 0 12054
0.10750000 0.10749900 16233.40858933 0 219.67890147 0 3999.56325791 0 -418.16585294 0 98.37181856 0 12807
0.10850000 0.10850100 15790.75891912 0 154.91740249 0 4276.19989219 0 185.90066117 0 606.61305293 0 12736
0.10950000 0.10950300 15717.00245942 0 157.59925392 0 4191.55187708 0 -185.07547612 0 216.90166576 0 12933
0.11050000 0.11050200 15346.77830529 0 345.36878177 0 4523.62231371 0 245.73877782 0 311.43415559 0 13428
0.11150000 0.11150900 14885.27360027 0 92.13501670 0 4017.61972654 0 297.73763648 0 205.31469231 0 13453
0.11250000 0.11250000 14895.58841343 0 20.65147598 0 3647.89467627 0 939.61847746 0 675.74559263 0 13668
0.11350000 0.11349100 14926.75467686 0 7.36656228 0 3468.77184556 0 555.48374412 0 1343.70960147 0 13791
0.11450000 0.11448600 14615.75751443 0 154.97064024 0 3198.43501114 0 267.60063613 0 1262.62186059 0 14205
0.11550000 0.11549300 14680.30828067 0 133.32173292 0 2827.68957075 0 106.13654372 0 1959.41521766 0 14776
0.11650000 0.11649800 14450.16594399 0 101.28625239 0 3253.25879766 0 -328.51570801 0 1369.07516889 0 14553
0.11750000 0.11747300 14161.01843955 0 336.11539616 0 3242.65561337 0 -484.30820594 0 1137.30242627 0 14568
0.11850000 0.11849100 14159.24384804 0 230.75346163 0 4212.44769213 0 -351.36135548 0 1190.06325015 0 16015
0.11950000 0.11950300 13956.94041570 0 105.96884483 0 3922.50162151 0 53.30318341 0 484.19174837 0 15270
0.12050000 0.12050700 13688.75527350 0 78.40588947 0 4145.58995693 0 194.17136673 0 1147.06267958 0 15999
0.12150000 0.12150000 13663.24552052 0 -51.69174341 0 4121.20041484 0 381.61037692 0 396.12431725 0 15670
0.12250000 0.12250700 13833.38448170 0 13.99320863 0 3426.37019962 0 376.89550910 0 1242.25842299 0 16887
0.12350000 0.12352200 13689.97530516 0 -197.57858244 0 3378.47841120 0 745.06779179 0 1246.50635142 0 16407
0.12450000 0.12449800 13616.21884545 0 223.05395271 0 2622.52460960 0 -137.70386483 0 970.66495596 0 16306
0.12550000 0.12549900 13763.62085290 0 160.97097779 0 2962.34779290 0 -315.21070815 0 818.61130052 0 17523
0.12650000 0.12650100 13213.83022017 0 358.20684224 0 3609.53022603 0 -554.15280048 0 288.88797043 0 17154
0.12750000 0.12750600 12872.88682599 0 399.94301635 0 3912.33099391 0 -572.34901820 0 586.04220995 0 18007
0.12850000 0.12850300 12606.25445135 0 231.87034516 0 4083.70107796 0 -341.30496721 0 -262.30237135 0 17496
0.12950000 0.12949900 12431.56809942 0 41.30949577 0 4645.40365620 0 345.16803111 0 204.02922258 0 18405
0.13050000 0.13049000 12400.06910008 0 -55.61492159 0 4142.39569221 0 744.17827780 0 631.09243371 0 18100
0.13150000 0.13148800 12415.04221596 0 17.45355117 0 3904.43406168 0 422.47256472 0 1247.22727922 0 19059
0.13250000 0.13249300 12412.04759279 0 183.09458834 0 3619.21284096 0 291.54542122 0 1076.71676294 0 18957
0.13350000 0.13349100 12024.18843551 0 170.24432756 0 3898.44481533 0 -44.59881205 0 1622.66429592 0 19468
0.13450000 0.13450700 11739.03376197 0 320.26385748 0 3857.98412886 0 -174.28928708 0 1512.89471972 0 19953
0.13550000 0.13551000 11463.97207765 0 243.60815889 0 4029.97531994 0 21.44449656 0 1832.32119183 0 19956
0.13650000 0.13649900 11260.67043759 0 -27.81927292 0 3781.77651463 0 316.16676933 0 1142.94784551 0 19723
0.13750000 0.13749600 11211.75825905 0 31.40904973 0 3776.26418975 0 -34.72687038 0 782.62369378 0 20946
0.13850000 0.13851100 11184.58482653 0 150.71938445 0 3234.72540756 0 139.90879478 0 637.67727734 0 20955
0.13950000 0.13949800 10845.21638230 0 136.65463760 0 3638.14551415 0 -207.55289585 0 458.85612718 0 20506
0.14050000 0.14048300 10912.34030624 0 126.60934052 0 3305.24323775 0 -49.62988990 0 289.69762781 0 21447
0.14150000 0.14148400 10704.94601450 0 51.29456765 0 3606.48014687 0 329.93205386 0 -237.06324357 0 21771
0.14250000 0.14249400 10580.34750798 0 33.84179286 0 2882.52444846 0 -23.91439521 0 102.89358865 0 22470
0.14350000 0.14350900 10690.30563453 0 -96.30530675 0 3121.09609482 0 407.78227436 0 106.24889755 0 22519
0.14450000 0.14449900 10694.46483338 0 -44.42922765 0 2596.75975909 0 237.40263420 0 -64.67576403 0 22218
0.14550000 0.14550500 10863.79413719 0 -12.43234448 0 2577.32798204 0 27.97820977 0 -213.09849433 0 23559
0.14650000 0.14650700 10697.89201324 0 134.21790163 0 2434.47336535 0 -220.39095632 0 -345.03050026 0 23044
0.14750000 0.14750500 10682.70816462 0 138.18744102 0 2879.54091649 0 -301.54191703 0 193.24525179 0 23649
0.14850000 0.14849900 10511.77063725 0 104.39988411 0 2954.45086067 0 -58.80153339 0 -1026.19746996 0 23640
0.14950000 0.14949500 10434.32080896 0 160.90553973 0 2972.68478846 0 -211.03774993 0 -527.19897366 0 24457
0.15050000 0.15050000 10330.48502313 0 152.59490585 0 3007.12295498 0 -159.93616911 0 -1253.94854457 0 24591
0.15150000 0.15149900 10075.94205317 0 49.34584434 0 3200.18742026 0 274.15886088 0 -864.57876627 0 25020
0.15250000 0.15250500 10045.59653832 0 -8.56567595 0 2711.65346828 0 306.89009220 0 -757.49104149 0 25297
0.15350000 0.15350100 10169.64048499 0 -70.10080119 0 2533.04083263 0 593.94136042 0 -767.74928955 0 25452
0.15450000 0.15450400 10043.69994364 0 108.10733851 0 2123.03255504 0 310.28067111 0 -423.63714039 0 26061
0.15550000 0.15549900 9923.79301344 0 144.85657774 0 1914.46259643 0 -234.87051393 0 -646.19531660 0 26128
0.15650000 0.15649500 9728.57685595 0 129.02167586 0 2360.81672641 0 -162.51598152 0 -138.22958757 0 26331
0.15750000 0.15749700 9661.37529364 0 57.10979312 0 2084.52391924 0 39.07672691 0 -817.77724251 0 27345
0.15850000 0.15849900 9509.02661236 0 96.39647639 0 2222.76459800 0 97.13725743 0 -351.26042559 0 26980
0.15950000 0.15949700 9504.56795119 0 63.55022936 0 1927.72766798 0 250.89174793 0 -853.52417027 0 27777
0.16050000 0.16050000 9278.70681653 0 163.49977069 0 2180.97296790 0 -94.51951313 0 -683.96416957 0 28224
0.16150000 0.16150500 9117.09698580 0 213.47781326 0 2099.49703512 0 -350.47627797 0 -1073.63451931 0 28075
0.16250000 0.16249700 8828.92550669 0 207.98767077 0 2309.99686200 0 -153.55096703 0 -808.26875936 0 28590
0.16350000 0.16349900 8627.89756201 0 201.79767375 0 2421.41902654 0 -51.87264083 0 -900.26247421 0 29163
0.16450000 0.16449100 8533.73329992 0 12.81998182 0 2271.05566951 0 203.17520042 0 -1123.01696460 0 28996
0.16550000 0.16550500 8546.55472359 0 -60.61305859 0 2263.83530030 0 276.90615037 0 -964.70898320 0 30777
0.16650000 0.16650700 8480.21827464 0 79.42517047 0 2171.63418007 0 -65.25428086 0 -1151.25515203 0 29211
0.16750000 0.16749900 8440.03486810 0 133.39826218 0 2222.65368603 0 -115.23199069 0 -666.42122335 0 30922
0.16850000 0.16850800 8378.34563067 0 134.03711512 0 2574.54409161 0 -161.76732573 0 -826.41839405 0 30867
0.16950000 0.16949900 8333.08245593 0 -14.35733263 0 2251.04715022 0 111.61293313 0 -726.48227307 0 30852
0.17050000 0.17049200 8442.07564834 0 -37.67890336 0 2783.28041817 0 254.36661993 0 -521.83194346 0 31257
0.17150000 0.17149500 8414.30329118 0 28.17995865 0 2369.62313679 0 14.57782562 0 -478.44872659 0 32608
0.17250000 0.17250900 8377.52488210 0 16.18416367 0 2514.52962492 0 321.43619700 0 502.81497717 0 32361
0.17350000 0.17350400 8367.80899357 0 88.80033742 0 2412.97862566 0 81.62300205 0 -16.44791234 0 32508
0.17450000 0.17449800 8321.69179666 0 110.15865539 0 2295.16793168 0 169.67645827 0 706.39500627 0 32791
0.17550000 0.17549800 8080.70226937 0 134.15911829 0 2505.49029941 0 155.52963657 0 685.33171415 0 33633
0.17650000 0.17650100 7994.66785464 0 51.48123249 0 2289.17868533 0 79.54894822 0 1044.41919742 0 33984
0.17750000 0.17750300 8084.10726683 0 -12.99078625 0 2237.79316986 0 302.51905148 0 709.76007543 0 34069
0.17850000 0.17849800 7814.29171867 0 164.25397209 0 2065.43596929 0 -137.33563709 0 768.53121894 0 34536
