### header ###
fiducial parameters:
Omega_m = 0.31
Omega_nu = 0
Omega_de = 0.69
Omega_k = 0
H_0 = 100
w_de = -1
zeff = 0
beta = 0
fgrowth = 0
b_1 = 2
gamma = 0.55
Lx = 3500 Ly = 3500 Lz = 3500
nx = 700 ny = 700 nz = 700
xoffset = 1379.75464 yoffset = 22.6059522 zoffset = 368.141391
bins = 400 dk = 0.001
kx_ny = 0.628318531 ky_ny = 0.628318531 kz_ny = 0.628318531
############################
A(data) = 3.32918643 (not used)
A(ran) = 3.32874373 (used)
Ngal = 186998
weighted Ngal = 0
Nran = 9399747
weighted Nran = 0
SN(data) = 6624.75479
SN(ran) = 132.402056
SN(data+ran) = 6757.15684
############################
13 columns: k_central k_mean P_0(k) sigma^{lin}_{P_0(k)} P^img_1(k) sigma^{lin}_{P_1(k)} P_2(k) sigma^{lin}_{P_2(k)} P^img_3(k) sigma^{lin}_{P_3(k)} P_4(k) sigma^{lin}_{P_4(k)} N_modes
### header ###
0.00050000 0 0 0 0 0 0 0 0 0 0 0 0
0.00150000 0.00179520 80886.43566385 0 -93004.12288963 0 -135810.59751129 0 116020.57479658 0 37544.58896549 0 3
0.00250000 0.00253879 100383.09621928 0 -55536.72865490 0 -2207.12601030 0 -183888.71804245 0 -30799.58845340 0 6
0.00350000 0.00331552 112826.31007549 0 20640.49569670 0 -71271.58794140 0 -53022.02157083 0 -46703.92122927 0 7
0.00450000 0.00420575 110585.99920392 0 28494.61590362 0 -1801.39893474 0 -86978.49741160 0 20024.26879426 0 24
0.00550000 0.00557378 77808.73942268 0 -409.36831552 0 12780.60806738 0 22746.49217323 0 10695.59613547 0 45
0.00650000 0.00659388 66068.26380511 0 -4201.46740715 0 34430.18086243 0 20147.93564023 0 8710.68225603 0 40
0.00750000 0.00754703 97209.68294845 0 -16483.51508051 0 -32491.21781194 0 22062.16532153 0 -15582.13350453 0 57
0.00850000 0.00846663 83189.41179817 0 4291.41701440 0 5498.30561032 0 -13661.80366491 0 6017.99473453 0 75
0.00950000 0.00948925 82997.53409097 0 9369.65463151 0 -18967.38863706 0 -18962.84124632 0 8957.71648566 0 112
0.01050000 0.01054430 86382.90013548 0 -3945.39385201 0 -10276.72599153 0 -43.63498703 0 3301.11731249 0 105
0.01150000 0.01145670 78182.51275984 0 633.48702313 0 4332.05516002 0 -6268.31195845 0 12369.56830847 0 144
0.01250000 0.01249090 84398.57408947 0 454.75460255 0 -6649.29457363 0 6213.16652723 0 6954.36903688 0 169
0.01350000 0.01339930 89683.08578742 0 -4314.77507518 0 1389.37205931 0 13772.27198652 0 7256.77052168 0 180
0.01450000 0.01448870 88523.83388239 0 -2531.16642034 0 -7500.47739222 0 1999.43225625 0 28245.72944410 0 267
0.01550000 0.01550050 85471.53648224 0 4230.20469845 0 -1143.11421347 0 3589.32206519 0 12622.44759889 0 238
0.01650000 0.01653350 83911.33780753 0 5518.32522082 0 11517.43164694 0 -11544.60507947 0 25186.66641381 0 315
0.01750000 0.01747870 79897.21180803 0 6295.64066773 0 32766.05767232 0 -4039.13664862 0 18529.50818155 0 297
0.01850000 0.01844180 75698.30646738 0 3491.91917359 0 30634.55144281 0 -66.07192390 0 27314.62346030 0 388
0.01950000 0.01947590 67707.54271406 0 864.87046475 0 34959.89642868 0 3807.56354754 0 10768.79803533 0 399
0.02050000 0.02045430 71777.01378633 0 2968.24830968 0 37748.55607737 0 4743.43874603 0 20443.40512693 0 462
0.02150000 0.02154770 67040.96177747 0 2886.67255612 0 38384.96895826 0 5188.99430983 0 20431.53754620 0 571
0.02250000 0.02255340 67002.47532406 0 2570.21852480 0 43393.42076417 0 3361.43124149 0 20404.03137777 0 510
0.02350000 0.02348930 59083.80435091 0 3205.38919163 0 38643.61567109 0 4177.43278337 0 16348.97886153 0 555
0.02450000 0.02439640 58806.52442720 0 2199.88345870 0 36552.03775059 0 2981.87939073 0 10869.30646208 0 592
0.02550000 0.02547300 55795.15354379 0 180.85527568 0 35444.91447122 0 2699.55297241 0 14698.38693169 0 837
0.02650000 0.02652900 55509.22248646 0 732.27964171 0 27736.75441615 0 7631.39788100 0 904.98843323 0 723
0.02750000 0.02749970 57482.79007143 0 -1055.56363212 0 35684.15158939 0 1825.42246733 0 14494.97437966 0 826
0.02850000 0.02848090 56563.55166836 0 -2569.30904665 0 14143.49434837 0 7890.46605931 0 -7382.91070457 0 831
0.02950000 0.02946900 60823.34768027 0 -1189.24250158 0 18098.28244420 0 5659.18342206 0 2006.79681102 0 996
0.03050000 0.03053250 59802.40300118 0 2164.50254043 0 13812.42211947 0 -6308.83919210 0 -3260.86735876 0 1041
0.03150000 0.03150510 54987.15984611 0 4819.02525323 0 18100.05703571 0 -2868.22789560 0 2152.51295653 0 1036
0.03250000 0.03246190 49588.51973156 0 2823.86310781 0 19197.64188571 0 -2469.84319241 0 940.23847537 0 1059
0.03350000 0.03345080 49192.34217657 0 1350.17576929 0 24917.59397585 0 4819.65745146 0 -2643.55351902 0 1302
0.03450000 0.03451200 47062.16689070 0 -453.94494518 0 18733.69711736 0 6070.77774081 0 3939.74843277 0 1339
0.03550000 0.03553350 47792.63312171 0 211.53685379 0 20155.14491825 0 3606.93488594 0 3088.60997896 0 1365
0.03650000 0.03647120 47921.18009434 0 136.47385109 0 15386.70661430 0 748.90312770 0 5305.35205702 0 1308
0.03750000 0.03744890 46348.55927905 0 174.57654908 0 18053.25218459 0 2213.11525665 0 9445.21895632 0 1579
0.03850000 0.03847530 45784.57191423 0 1197.23925458 0 14172.44237241 0 1128.76220462 0 10853.83424233 0 1662
0.03950000 0.03950240 47308.94602280 0 -696.96194327 0 17831.53915760 0 2331.09231859 0 9310.36109263 0 1683
0.04050000 0.04050350 46866.18544062 0 -724.51580385 0 11287.51113421 0 1867.11427666 0 4053.77702859 0 1822
0.04150000 0.04152450 46384.71658110 0 1820.97489735 0 14889.48825511 0 -1786.21508612 0 6176.04429104 0 1887
0.04250000 0.04250150 45069.41153501 0 1666.81835097 0 12762.97306423 0 -3400.16170123 0 -178.67696460 0 1920
0.04350000 0.04349210 42943.00725610 0 1121.39764984 0 19120.77989086 0 236.00514338 0 -906.55118288 0 2005
0.04450000 0.04448520 42532.07840917 0 405.24128114 0 14441.62572234 0 597.44063305 0 -3430.00811222 0 2151
0.04550000 0.04548030 40421.86727780 0 683.91758654 0 15662.32285846 0 1364.61650772 0 -1389.22787375 0 2274
0.04650000 0.04648670 40674.74656822 0 428.54388592 0 12886.97264611 0 472.57593781 0 -8203.90328507 0 2311
0.04750000 0.04749250 39767.04300997 0 824.67374877 0 12911.15145546 0 206.26188053 0 -6663.22511699 0 2568
0.04850000 0.04851840 37690.21638142 0 1097.45951947 0 11619.58157084 0 -200.49223987 0 -4376.75268372 0 2493
0.04950000 0.04949480 37434.12064389 0 78.77766639 0 10304.64253425 0 3000.54587519 0 -1028.29925178 0 2644
0.05050000 0.05050630 36873.34972618 0 -1196.56269156 0 8254.13531605 0 4853.85161165 0 444.83463600 0 2829
0.05150000 0.05149060 37653.39360755 0 -157.74343948 0 8617.23892174 0 3466.55360617 0 -533.29358638 0 2784
0.05250000 0.05249300 38258.52931305 0 469.74213699 0 6105.26027212 0 -192.64410891 0 3731.58884844 0 3055
0.05350000 0.05348950 38074.52635568 0 -289.45362148 0 4631.89457832 0 -780.80141012 0 3351.27170509 0 3009
0.05450000 0.05448610 36469.18650939 0 1863.65382321 0 8558.21157158 0 -2465.98345588 0 3905.04407751 0 3336
0.05550000 0.05550870 36256.23552798 0 1392.48868565 0 9189.74432581 0 -3436.77374236 0 -313.07787098 0 3349
0.05650000 0.05647670 33925.53140128 0 1042.15770237 0 13602.13302533 0 -1408.64855961 0 -1111.89249406 0 3324
0.05750000 0.05747970 33958.80499213 0 336.99825543 0 11871.68447747 0 111.62180609 0 -2679.28935559 0 3639
0.05850000 0.05849280 32725.68571543 0 -207.68709933 0 11873.90271686 0 1309.64853565 0 -4005.27522434 0 3846
0.05950000 0.05951020 33339.69437848 0 357.34172888 0 10037.35577899 0 1084.43512689 0 -2971.67548953 0 3787
0.06050000 0.06049470 33066.18546174 0 431.51632671 0 11057.14697359 0 587.11916517 0 -4168.00526596 0 3930
0.06150000 0.06148310 30955.75250643 0 942.08183230 0 8625.33549551 0 -10.17739323 0 -4203.91856168 0 4083
0.06250000 0.06249100 31390.63833877 0 576.57698247 0 11718.73687155 0 -715.30678302 0 -5045.89568681 0 4303
0.06350000 0.06350600 30140.99317861 0 512.74381668 0 10305.35237085 0 -982.44935272 0 -2888.21423250 0 4470
0.06450000 0.06451750 29485.17070306 0 704.63372420 0 12137.65138029 0 1313.61918415 0 -3282.19573049 0 4479
0.06550000 0.06550280 28884.47147635 0 109.82669586 0 12127.78021500 0 92.75124360 0 -1644.44740673 0 4636
0.06650000 0.06648880 28982.29583343 0 228.39990964 0 12748.77633213 0 960.55089346 0 -496.43199333 0 4653
0.06750000 0.06749660 29295.51123525 0 -270.00298939 0 11933.57335644 0 3083.90731145 0 2087.36326566 0 5220
0.06850000 0.06852730 29402.65219777 0 -410.00716847 0 10184.03685863 0 1729.52797851 0 4631.99439909 0 5029
0.06950000 0.06949320 29982.61088619 0 -103.06250758 0 10787.27596945 0 1795.70915071 0 5173.11171580 0 5040
0.07050000 0.07048030 29711.32020884 0 734.46793487 0 8698.18247707 0 110.51534828 0 6030.88270538 0 5475
0.07150000 0.07148790 28160.32722760 0 1068.09335731 0 11275.19990559 0 -1261.35746413 0 5329.09830968 0 5509
0.07250000 0.07249820 27300.09399229 0 1054.64639013 0 10519.72302547 0 -1314.55084470 0 5166.97828389 0 5916
0.07350000 0.07351270 26247.09575403 0 385.50782353 0 13075.30117029 0 121.73143211 0 2174.02987861 0 5721
0.07450000 0.07449140 25981.23976318 0 357.39274838 0 10860.79951402 0 -313.56699276 0 1559.23374057 0 6028
0.07550000 0.07549160 24994.34505873 0 288.51974269 0 11511.88604847 0 157.75563979 0 -896.36724584 0 6183
0.07650000 0.07648840 24519.75274131 0 464.00355169 0 11168.39167898 0 -36.78983301 0 -286.60429298 0 6330
0.07750000 0.07749960 24300.47977765 0 346.95371381 0 10167.34460722 0 425.20321740 0 -1989.63872934 0 6583
0.07850000 0.07848650 24270.31172195 0 178.45735890 0 10425.96913766 0 188.96959536 0 -2484.72757872 0 6549
0.07950000 0.07947320 23441.35566204 0 212.02930294 0 9065.05708972 0 1385.73414671 0 -2241.23144092 0 6828
0.08050000 0.08048110 22983.40014005 0 568.78098014 0 9686.96268500 0 -857.12880928 0 -3309.20279506 0 7147
0.08150000 0.08149960 22039.09563187 0 673.91443601 0 8747.74903623 0 -396.62009375 0 -2162.28430104 0 7386
0.08250000 0.08250610 21644.13810855 0 87.98291621 0 9591.41202329 0 406.98038082 0 -3198.26864319 0 7227
0.08350000 0.08350160 22149.00939363 0 -122.53776212 0 8840.26070997 0 1088.87160567 0 -1975.76364196 0 7798
0.08450000 0.08449610 21483.64848871 0 160.99537842 0 8982.52749323 0 149.23427318 0 -4128.48733123 0 7371
0.08550000 0.08548940 21432.96171865 0 499.78264392 0 8704.30481778 0 -380.55560409 0 -3767.46887057 0 8256
0.08650000 0.08650700 20642.38120018 0 289.02882863 0 8812.94309189 0 408.58084054 0 -2009.70270462 0 8037
0.08750000 0.08749060 20192.85498787 0 266.14990757 0 8621.09865828 0 247.57658916 0 -2177.20196094 0 8155
0.08850000 0.08849210 20112.88745788 0 430.52144634 0 8018.12573619 0 573.12207462 0 -2497.90392069 0 8718
0.08950000 0.08949900 19743.55059950 0 222.64025106 0 8502.89977240 0 694.10817829 0 -1074.56063425 0 8571
0.09050000 0.09049190 19104.14309544 0 125.09428302 0 7927.17792121 0 782.42183399 0 -520.97015745 0 8932
0.09150000 0.09150830 19113.90334875 0 35.04030761 0 7585.64669359 0 1150.61186261 0 771.11103135 0 9285
0.09250000 0.09250820 19247.66318395 0 -2.87024649 0 6676.98929241 0 929.86487886 0 1414.19415808 0 9204
0.09350000 0.09350330 18726.37692738 0 96.25739278 0 6649.91568065 0 703.75308316 0 1887.76608538 0 9349
0.09450000 0.09448040 18962.17577450 0 312.28263215 0 6342.74498117 0 -113.07586201 0 1754.56081003 0 9564
0.09550000 0.09549270 18543.59400167 0 44.12821256 0 7175.82696635 0 -288.15595143 0 2191.95325288 0 10155
0.09650000 0.09649430 18569.32557859 0 187.17060322 0 6791.62790406 0 -313.67235913 0 1773.31602407 0 9913
0.09750000 0.09749140 18544.81403334 0 -67.67116359 0 7657.66183537 0 -186.21897852 0 1123.57152445 0 10476
0.09850000 0.09850240 18417.48709237 0 20.17289083 0 7018.79779996 0 -329.49616982 0 -369.51099017 0 10575
0.09950000 0.09950330 18494.01635131 0 375.22295660 0 8147.16072148 0 -325.58985025 0 202.74375285 0 10882
0.10050000 0.10051200 18202.87243142 0 294.67313876 0 7829.58647926 0 -168.90229273 0 -689.85803162 0 10875
0.10150000 0.10150300 17714.63794176 0 277.28214194 0 8407.07183077 0 309.57527098 0 64.77835760 0 11118
0.10250000 0.10250800 17478.83909464 0 206.46595855 0 7570.32975060 0 814.10383808 0 -358.82240367 0 11575
0.10350000 0.10349800 16948.67988052 0 264.28658648 0 7283.26739119 0 698.67553320 0 -183.55487301 0 11364
0.10450000 0.10450100 16535.20005829 0 285.17796505 0 6342.56752202 0 747.53780135 0 530.62393528 0 12093
0.10550000 0.10551000 16086.78296567 0 220.30222674 0 5970.64641476 0 1100.68373042 0 1172.51697658 0 12067
0.10650000 0.10649700 16044.52550530 0 -122.91264458 0 4941.61625310 0 1135.21728124 0 2651.10662414 0 12054
0.10750000 0.10749900 16054.61849452 0 -177.92941792 0 3414.44716290 0 1478.04617891 0 1697.39678096 0 12807
0.10850000 0.10850100 15996.61153448 0 131.10016617 0 3575.30279224 0 208.34258907 0 2713.46133338 0 12736
0.10950000 0.10950300 15694.70915355 0 308.62253716 0 3273.79969440 0 -276.27506126 0 2430.49162564 0 12933
0.11050000 0.11050200 15481.53634821 0 212.29327343 0 3445.53578795 0 -273.84054353 0 3068.98965156 0 13428
0.11150000 0.11150900 15161.22258034 0 204.38192264 0 4432.03120931 0 -573.25960547 0 2949.20472452 0 13453
0.11250000 0.11250000 15029.12642469 0 206.19200599 0 4523.73322568 0 -131.21884197 0 1796.06406901 0 13668
0.11350000 0.11349100 15052.86158616 0 179.08844800 0 5347.06604874 0 -262.01400023 0 2350.30227171 0 13791
0.11450000 0.11448600 14749.29552569 0 254.47420454 0 5187.09771515 0 -333.22946671 0 1499.07508832 0 14205
0.11550000 0.11549300 14383.39693836 0 305.38612589 0 5974.79452242 0 -328.57892783 0 1843.81167187 0 14776
0.11650000 0.11649800 14272.70679282 0 134.04376984 0 6344.16465438 0 -272.08702529 0 1002.67082299 0 14553
0.11750000 0.11747300 14055.76298051 0 22.12161414 0 6187.86750699 0 159.04221864 0 846.46240517 0 14568
0.11850000 0.11849100 14263.27927541 0 29.63068721 0 5516.19571100 0 142.46309744 0 5.83836171 0 16015
0.11950000 0.11950300 14143.93799625 0 35.49316118 0 5478.41909420 0 397.20127247 0 -57.90248096 0 15270
0.12050000 0.12050700 13867.98901618 0 187.81722000 0 4786.04003351 0 82.19286775 0 -270.04846330 0 15999
0.12150000 0.12150000 13912.35380397 0 -4.34046229 0 4974.34637529 0 386.00138179 0 -343.62968209 0 15670
0.12250000 0.12250700 13611.78236668 0 27.77058257 0 4289.79769965 0 871.78915340 0 40.40378863 0 16887
0.12350000 0.12352200 13524.71647063 0 250.36047959 0 3838.36380146 0 357.04226656 0 65.49950723 0 16407
0.12450000 0.12449800 13109.68388083 0 39.99441255 0 3119.07749698 0 481.17827016 0 940.02552439 0 16306
0.12550000 0.12549900 12986.68250667 0 235.57924142 0 3030.48101575 0 527.78126150 0 781.62770429 0 17523
0.12650000 0.12650100 12615.01649694 0 186.30992634 0 3143.45594787 0 80.85748764 0 1144.92207857 0 17154
0.12750000 0.12750600 12467.05992965 0 160.06926348 0 2703.87853922 0 305.48151019 0 1531.26174187 0 18007
0.12850000 0.12850300 12392.52708616 0 16.18582735 0 3070.68660469 0 44.56653667 0 1766.76112667 0 17496
0.12950000 0.12949900 12207.19318515 0 90.43218523 0 3042.64805881 0 -80.62945263 0 1630.32831301 0 18405
0.13050000 0.13049000 12258.87816293 0 117.82400342 0 2900.90256181 0 -17.03197477 0 1397.15807957 0 18100
0.13150000 0.13148800 12289.60077848 0 119.83816479 0 3359.09099894 0 -435.11431100 0 1438.12896109 0 19059
0.13250000 0.13249300 11920.92939192 0 300.75555117 0 4024.65154540 0 -442.86262118 0 1310.33618986 0 18957
0.13350000 0.13349100 11705.76017112 0 175.67568670 0 4139.05724193 0 -323.82856818 0 1305.12332729 0 19468
0.13450000 0.13450700 11518.42985467 0 79.60052229 0 4492.41168550 0 322.29576476 0 1146.06447186 0 19953
0.13550000 0.13551000 11720.95511094 0 -106.95074849 0 4296.82951851 0 686.09589762 0 1586.15207557 0 19956
0.13650000 0.13649900 11738.81193803 0 -91.63813107 0 3444.51539783 0 640.05966645 0 1800.12344709 0 19723
0.13750000 0.13749600 11762.54709950 0 71.64891046 0 3617.90407972 0 282.72681053 0 1915.11697705 0 20946
0.13850000 0.13851100 11482.49437656 0 277.39859951 0 3234.71431636 0 -354.59665763 0 1911.57888522 0 20955
0.13950000 0.13949800 11229.50417417 0 196.14227243 0 3220.86141137 0 115.47932439 0 1791.00648320 0 20506
0.14050000 0.14048300 11141.21824646 0 3.41379278 0 3452.40123886 0 82.41136433 0 1728.89578029 0 21447
0.14150000 0.14148400 10969.91470959 0 125.04880911 0 3035.11713608 0 16.52887808 0 1084.97194083 0 21771
0.14250000 0.14249400 10846.19240764 0 100.82508042 0 3268.98611493 0 347.65467746 0 1229.55900248 0 22470
0.14350000 0.14350900 10686.36825961 0 155.57621959 0 2999.98022415 0 -146.23854088 0 1120.66563085 0 22519
0.14450000 0.14449900 10518.95773288 0 65.59444787 0 2733.93568295 0 95.24643018 0 1316.75799289 0 22218
0.14550000 0.14550500 10585.51600576 0 -25.50221097 0 2741.52206166 0 474.42040386 0 1376.01825818 0 23559
0.14650000 0.14650700 10651.09825332 0 -93.40340598 0 2680.53156964 0 192.27366294 0 1189.02067764 0 23044
0.14750000 0.14750500 10604.40431417 0 93.99367948 0 2230.75025980 0 59.20536387 0 1478.44546200 0 23649
0.14850000 0.14849900 10634.89401458 0 233.30000045 0 2873.91767963 0 -248.36295502 0 1224.56796386 0 23640
0.14950000 0.14949500 10180.57640518 0 255.91827838 0 2789.12547896 0 -430.75436148 0 1251.24229252 0 24457
0.15050000 0.15050000 10069.69770929 0 176.25242894 0 3362.80654991 0 -155.85793600 0 1168.92342877 0 24591
0.15150000 0.15149900 9904.00631808 0 140.67186913 0 3672.02912083 0 -181.17248391 0 928.98645607 0 25020
0.15250000 0.15250500 9748.04190660 0 191.43627757 0 3973.12184438 0 -103.16865033 0 1188.88758327 0 25297
0.15350000 0.15350100 9509.64771939 0 56.64806659 0 3682.37720758 0 147.75803486 0 1101.66641047 0 25452
0.15450000 0.15450400 9595.39376300 0 -9.51830994 0 4045.73591080 0 270.59193195 0 1326.95080289 0 26061
0.15550000 0.15549900 9449.34488158 0 20.22413216 0 3292.43290528 0 358.67156339 0 1044.50349052 0 26128
0.15650000 0.15649500 9620.67060084 0 66.85607152 0 3601.95493851 0 6.82104176 0 1606.78170189 0 26331
0.15750000 0.15749700 9426.84084298 0 101.93209279 0 3315.96842520 0 71.89779692 0 1196.19668206 0 27345
0.15850000 0.15849900 9328.40647006 0 147.50071909 0 3577.09956615 0 -129.82135116 0 1207.72043569 0 26980
0.15950000 0.15949700 9118.01755515 0 88.03848310 0 3127.83954257 0 -26.44906645 0 855.17121302 0 27777
0.16050000 0.16050000 9039.44751597 0 110.57912266 0 3494.61433445 0 238.35314978 0 1476.87051203 0 28224
0.16150000 0.16150500 8918.16527734 0 129.67938384 0 3248.55613015 0 202.25795843 0 848.75273734 0 28075
0.16250000 0.16249700 8802.06262769 0 128.54364527 0 3539.45604371 0 -51.26617418 0 997.24279121 0 28590
0.16350000 0.16349900 8635.73903825 0 12.04925454 0 3141.18225249 0 171.18707930 0 1176.84254339 0 29163
0.16450000 0.16449100 8681.52349925 0 -43.39885545 0 3459.94325279 0 166.37460894 0 1375.10878003 0 28996
0.16550000 0.16550500 8756.88818251 0 -43.02730035 0 2721.89064306 0 182.72081500 0 1018.20958992 0 30777
0.16650000 0.16650700 8887.35393222 0 -25.56409985 0 2922.28638952 0 309.94682608 0 1381.57494786 0 29211
0.16750000 0.16749900 8789.41866316 0 87.70574720 0 2515.86056855 0 167.53142078 0 1388.01893328 0 30922
0.16850000 0.16850800 8841.89111593 0 89.92520662 0 2557.91838738 0 -222.00694371 0 1145.45445602 0 30867
0.16950000 0.16949900 8613.00208451 0 132.42667332 0 2803.65494697 0 64.77791395 0 1413.75051020 0 30852
0.17050000 0.17049200 8438.93683960 0 94.88252800 0 2704.97656772 0 77.58713731 0 1302.92727030 0 31257
0.17150000 0.17149500 8358.88058003 0 91.14091271 0 2772.57741312 0 289.13752236 0 1071.44511703 0 32608
0.17250000 0.17250900 8179.71338453 0 130.51122361 0 2402.48635335 0 13.16536169 0 1624.05069554 0 32361
0.17350000 0.17350400 7940.86445825 0 234.13627670 0 2920.32324766 0 -37.85891349 0 1187.70082520 0 32508
0.17450000 0.17449800 7722.34569597 0 189.22136554 0 2584.85890477 0 66.42473488 0 1784.19648827 0 32791
0.17550000 0.17549800 7687.91862065 0 -60.72175232 0 2391.69461872 0 364.39683926 0 1467.16571470 0 33633
0.17650000 0.17650100 7738.82721464 0 -115.29077404 0 2206.66018003 0 361.76933470 0 1691.64044974 0 33984
0.17750000 0.17750300 7839.49091814 0 -27.48076959 0 1788.33350473 0 233.97878170 0 1292.71227791 0 34069
0.17850000 0.17849800 7872.90869454 0 -28.75370626 0 1416.36803268 0 141.09888022 0 1641.98516100 0 34536
