### header ###
fiducial parameters:
Omega_m = 0.31
Omega_nu = 0
Omega_de = 0.69
Omega_k = 0
H_0 = 100
w_de = -1
zeff = 0
beta = 0
fgrowth = 0
b_1 = 2
gamma = 0.55
Lx = 3500 Ly = 3500 Lz = 3500
nx = 700 ny = 700 nz = 700
xoffset = 1379.75464 yoffset = 22.6059522 zoffset = 368.141391
bins = 400 dk = 0.001
kx_ny = 0.628318531 ky_ny = 0.628318531 kz_ny = 0.628318531
############################
A(data) = 3.3169374 (not used)
A(ran) = 3.32033395 (used)
Ngal = 186853
weighted Ngal = 0
Nran = 9399747
weighted Nran = 0
SN(data) = 6636.12064
SN(ran) = 132.067554
SN(data+ran) = 6768.18819
############################
13 columns: k_central k_mean P_0(k) sigma^{lin}_{P_0(k)} P^img_1(k) sigma^{lin}_{P_1(k)} P_2(k) sigma^{lin}_{P_2(k)} P^img_3(k) sigma^{lin}_{P_3(k)} P_4(k) sigma^{lin}_{P_4(k)} N_modes
### header ###
0.00050000 0 0 0 0 0 0 0 0 0 0 0 0
0.00150000 0.00179520 80175.15720356 0 -79822.23531666 0 -126673.66946535 0 172643.35345664 0 47127.93768860 0 3
0.00250000 0.00253879 123004.70151487 0 -63566.53342147 0 -12197.10019593 0 -157900.93447307 0 -18985.46728809 0 6
0.00350000 0.00331552 150005.11136563 0 -19320.08870002 0 -126488.44647631 0 -9307.43301663 0 53998.04690227 0 7
0.00450000 0.00420575 146504.72960877 0 15737.96482165 0 -42174.27639562 0 -100941.75980956 0 4234.97391313 0 24
0.00550000 0.00557378 113274.39443220 0 22085.01318724 0 -32892.83005344 0 -51090.48962229 0 16986.50086211 0 45
0.00650000 0.00659388 79796.39282777 0 16149.11549252 0 26219.25684969 0 8958.70360218 0 -50187.77710268 0 40
0.00750000 0.00754703 63501.09535948 0 16922.17191981 0 -8423.03206318 0 -26920.66414470 0 3467.86236741 0 57
0.00850000 0.00846663 53030.56179248 0 8129.49244474 0 19985.44960494 0 10512.39174428 0 -11853.38400250 0 75
0.00950000 0.00948925 49847.83191621 0 -5764.82707299 0 14924.42552550 0 16346.76062214 0 2845.02511158 0 112
0.01050000 0.01054430 53445.92711819 0 -4921.14190353 0 10779.97796186 0 14193.84838252 0 -5373.94001894 0 105
0.01150000 0.01145670 62873.33361221 0 3131.65491432 0 15461.23945779 0 -4611.84169424 0 8576.67841450 0 144
0.01250000 0.01249090 63082.40267468 0 2689.55980396 0 31001.89188573 0 -15805.84294697 0 6686.90482248 0 169
0.01350000 0.01339930 63888.51086888 0 6476.34953961 0 41200.13656765 0 -768.25504813 0 22966.76334462 0 180
0.01450000 0.01448870 60182.83105651 0 -16.42306806 0 54389.67706651 0 10066.65872133 0 14904.35045902 0 267
0.01550000 0.01550050 70165.68469369 0 -2286.03987659 0 66374.82448876 0 8035.73855694 0 12038.16334366 0 238
0.01650000 0.01653350 68501.56150358 0 1112.61342186 0 61270.43382925 0 9333.56387664 0 13872.31458299 0 315
0.01750000 0.01747870 72099.54579359 0 2596.13865206 0 67729.94693189 0 3283.65976849 0 19820.52350632 0 297
0.01850000 0.01844180 62766.63629756 0 2288.21375119 0 56509.09389135 0 6805.36989708 0 22862.06244543 0 388
0.01950000 0.01947590 70301.44094434 0 2436.40323362 0 64771.14832202 0 4299.52467937 0 5971.72226086 0 399
0.02050000 0.02045430 69799.89701834 0 -4284.11900681 0 54170.07136694 0 15248.39938836 0 3924.88622886 0 462
0.02150000 0.02154770 70635.50779642 0 -1864.07528869 0 46191.95157814 0 14914.88709612 0 7615.36001021 0 571
0.02250000 0.02255340 69157.27306716 0 3151.88525755 0 27941.05426393 0 10388.19252086 0 6649.62730953 0 510
0.02350000 0.02348930 69148.17828566 0 571.83327754 0 34551.62946901 0 -1200.86607598 0 10982.42557975 0 555
0.02450000 0.02439640 63606.01808261 0 5496.89702831 0 24973.71543240 0 5858.49223122 0 -183.67022146 0 592
0.02550000 0.02547300 59595.33035416 0 2817.60767273 0 31120.01313323 0 -290.00596308 0 13255.97676858 0 837
0.02650000 0.02652900 53857.07778906 0 -404.18983567 0 18714.62025861 0 9178.27602817 0 6986.25622811 0 723
0.02750000 0.02749970 61471.51722992 0 -1329.70141973 0 26566.18949023 0 7962.25937716 0 16460.00174298 0 826
0.02850000 0.02848090 57596.91848803 0 -962.97875647 0 11152.42035538 0 5123.70043340 0 8548.99478692 0 831
0.02950000 0.02946900 57611.55886800 0 1786.04871816 0 24131.78267206 0 1870.45272694 0 17317.57309102 0 996
0.03050000 0.03053250 57764.50647392 0 2843.18397289 0 23395.65993061 0 -7551.66326614 0 10210.99955841 0 1041
0.03150000 0.03150510 54707.21803514 0 2878.48725278 0 28188.94251572 0 -515.76062225 0 10055.58970677 0 1036
0.03250000 0.03246190 52883.38160897 0 1078.83518156 0 30162.17736478 0 -3148.94609036 0 5655.57878305 0 1059
0.03350000 0.03345080 52338.80383881 0 -91.77322185 0 34462.23442161 0 2258.86644407 0 7107.84902025 0 1302
0.03450000 0.03451200 54436.59282960 0 -675.59807971 0 32790.12556969 0 3984.80087477 0 2343.40354721 0 1339
0.03550000 0.03553350 53467.88768814 0 51.39638483 0 28719.10172985 0 4435.31420361 0 1029.00132455 0 1365
0.03650000 0.03647120 54432.04543885 0 779.24198783 0 26022.72083977 0 55.96085603 0 1098.44552688 0 1308
0.03750000 0.03744890 53305.73438876 0 -0.20674546 0 26880.29218780 0 3956.25213382 0 557.66981904 0 1579
0.03850000 0.03847530 52137.38770224 0 1241.82586631 0 24200.32626920 0 1377.08301309 0 3298.16705410 0 1662
0.03950000 0.03950240 49162.95050466 0 937.20836036 0 21762.70300392 0 873.21769957 0 -1454.57720617 0 1683
0.04050000 0.04050350 49224.17391182 0 1677.21080251 0 23468.52909456 0 1604.40818574 0 -1965.30464324 0 1822
0.04150000 0.04152450 47724.86590835 0 2840.11171133 0 25156.38744614 0 -1276.43040079 0 2755.67442897 0 1887
0.04250000 0.04250150 43928.34919298 0 742.86175272 0 25944.52790128 0 571.42623061 0 3590.78610318 0 1920
0.04350000 0.04349210 42845.07198704 0 641.65458057 0 25713.27644491 0 3888.19654935 0 6586.88440840 0 2005
0.04450000 0.04448520 42946.22370321 0 434.66733576 0 25495.11260094 0 3368.84016105 0 5761.65499066 0 2151
0.04550000 0.04548030 44311.99369542 0 -169.58107398 0 26625.30556996 0 2923.02949972 0 11911.16913860 0 2274
0.04650000 0.04648670 42706.76476110 0 545.26431525 0 22712.10946269 0 2955.75962191 0 14798.76226407 0 2311
0.04750000 0.04749250 44012.42046585 0 -137.19699713 0 24867.01811776 0 3394.99320346 0 13636.62664784 0 2568
0.04850000 0.04851840 42221.74671855 0 677.52683886 0 24184.13312166 0 -234.40801102 0 14883.16627285 0 2493
0.04950000 0.04949480 41685.04369823 0 2684.70185970 0 26028.93191006 0 234.41577486 0 14639.49267590 0 2644
0.05050000 0.05050630 39021.71457505 0 1119.72287910 0 25381.31692025 0 -439.35003911 0 15583.90809604 0 2829
0.05150000 0.05149060 37184.79053649 0 1010.99254806 0 25279.72155621 0 2967.88230018 0 15624.61278884 0 2784
0.05250000 0.05249300 35667.29297003 0 1320.21844634 0 23240.93773318 0 3580.99257628 0 14253.18628619 0 3055
0.05350000 0.05348950 34344.33499805 0 247.16732399 0 21192.28274488 0 3604.37281945 0 13203.18267110 0 3009
0.05450000 0.05448610 33613.86876704 0 200.62533424 0 18642.41656648 0 2240.49942192 0 14782.56911653 0 3336
0.05550000 0.05550870 32696.84860336 0 988.17573770 0 19898.16188496 0 -287.80546961 0 9265.19773865 0 3349
0.05650000 0.05647670 31776.39016863 0 574.92772149 0 14685.07749536 0 -638.75312345 0 6399.11044406 0 3324
0.05750000 0.05747970 31240.13079618 0 398.77289508 0 16020.34669595 0 -251.55056503 0 4517.45560821 0 3639
0.05850000 0.05849280 29791.73138671 0 643.61439507 0 15759.48174373 0 -1787.77894489 0 1889.86232160 0 3846
0.05950000 0.05951020 30626.89851691 0 92.30870484 0 16533.98002662 0 1879.44768766 0 -149.52708078 0 3787
0.06050000 0.06049470 30038.17778290 0 -402.90103858 0 13421.56833901 0 595.12146377 0 -2079.56615420 0 3930
0.06150000 0.06148310 29758.45779587 0 78.09256315 0 14165.01127045 0 605.91652576 0 -3521.36630149 0 4083
0.06250000 0.06249100 29558.26169095 0 949.44749620 0 13887.62043478 0 -240.68895585 0 -4244.39033934 0 4303
0.06350000 0.06350600 29017.78766367 0 236.53086612 0 14083.82370879 0 -681.95444468 0 -2826.82445739 0 4470
0.06450000 0.06451750 28987.95234387 0 44.33040508 0 15284.55669041 0 819.63390888 0 -3996.56863473 0 4479
0.06550000 0.06550280 29713.31662429 0 -206.87855108 0 13132.42083457 0 1570.99040934 0 -2731.38470765 0 4636
0.06650000 0.06648880 29100.19525699 0 -300.16549949 0 12395.07806146 0 1205.44674032 0 -5097.43647902 0 4653
0.06750000 0.06749660 29353.07454741 0 279.93293802 0 12894.07101216 0 -151.36378299 0 -2122.08980330 0 5220
0.06850000 0.06852730 29402.43037383 0 77.02492453 0 12540.26182951 0 430.50813690 0 -1784.17430588 0 5029
0.06950000 0.06949320 28820.47526996 0 276.92500540 0 12324.98169674 0 187.24491424 0 -3297.15775518 0 5040
0.07050000 0.07048030 28881.03320529 0 62.97104706 0 10753.70291629 0 2026.32840885 0 -1154.26086640 0 5475
0.07150000 0.07148790 29084.55666929 0 -42.09375431 0 10776.22913729 0 884.32109684 0 -3112.06786050 0 5509
0.07250000 0.07249820 28011.26154061 0 628.21981370 0 9340.41823635 0 205.61304550 0 -1979.55683132 0 5916
0.07350000 0.07351270 27476.00037589 0 1125.94504059 0 9111.00791868 0 -44.40948532 0 -2151.08219212 0 5721
0.07450000 0.07449140 25913.69437377 0 394.43290971 0 9036.06470090 0 -35.60263129 0 -2090.40225362 0 6028
0.07550000 0.07549160 25538.36826904 0 666.35800353 0 8885.73461746 0 402.26884035 0 -2588.50790856 0 6183
0.07650000 0.07648840 24677.58047389 0 647.30998189 0 8939.93729695 0 268.75190237 0 -2454.96989731 0 6330
0.07750000 0.07749960 23471.08006986 0 87.08208919 0 8028.99510920 0 1501.10477737 0 -1679.48449788 0 6583
0.07850000 0.07848650 23528.31064611 0 298.23119474 0 7718.53032422 0 1417.25532844 0 -1655.88243078 0 6549
0.07950000 0.07947320 23142.66972822 0 603.13374445 0 6768.41402885 0 -283.83038462 0 -631.70466778 0 6828
0.08050000 0.08048110 21965.11734823 0 377.60645482 0 7012.35381453 0 796.11835311 0 -881.60042622 0 7147
0.08150000 0.08149960 21969.55382701 0 -50.67734254 0 6877.62904520 0 255.37591885 0 180.12769316 0 7386
0.08250000 0.08250610 21940.05124313 0 -191.31427440 0 6544.32748571 0 -9.88377597 0 -362.66772165 0 7227
0.08350000 0.08350160 22149.45304151 0 320.56442892 0 6127.59794277 0 366.13815718 0 -1182.58778341 0 7798
0.08450000 0.08449610 21736.52777913 0 189.51860961 0 6324.56650938 0 -724.19194090 0 -428.01816319 0 7371
0.08550000 0.08548940 21547.86651904 0 318.05338193 0 6186.23710104 0 -344.32177278 0 -1756.46849590 0 8256
0.08650000 0.08650700 21254.17162385 0 264.00265184 0 7132.75984860 0 894.68360215 0 -1907.78569587 0 8037
0.08750000 0.08749060 20785.90128869 0 174.83275573 0 6492.95306144 0 -609.53447420 0 -1682.61221542 0 8155
0.08850000 0.08849210 20276.03896498 0 607.43491062 0 7563.71939722 0 50.88729889 0 -1333.99371295 0 8718
0.08950000 0.08949900 19977.68576708 0 409.43486270 0 7498.94680704 0 -121.86452647 0 -1264.90664716 0 8571
0.09050000 0.09049190 19300.56819339 0 378.80208585 0 7936.45016186 0 -64.26405880 0 -791.44119535 0 8932
0.09150000 0.09150830 18977.03797841 0 289.76417499 0 7765.09116901 0 365.48821303 0 -601.50444761 0 9285
0.09250000 0.09250820 18775.28910592 0 119.26696814 0 8227.67172013 0 251.31764989 0 -606.60196173 0 9204
0.09350000 0.09350330 18185.79198812 0 446.60590015 0 8259.69200572 0 484.12852855 0 408.13164706 0 9349
0.09450000 0.09448040 18111.25914463 0 194.56288599 0 8530.36157604 0 598.45215021 0 1741.30682967 0 9564
0.09550000 0.09549270 17559.02844858 0 187.24602336 0 8016.77261016 0 1012.36674736 0 2441.21681309 0 10155
0.09650000 0.09649430 17601.17499698 0 -80.75977419 0 7799.27423801 0 1393.57562295 0 3478.15499817 0 9913
0.09750000 0.09749140 17474.51352783 0 -122.58545427 0 6531.52824443 0 1149.56929009 0 4562.69660056 0 10476
0.09850000 0.09850240 17433.69792306 0 438.90417299 0 6844.76582864 0 626.78350370 0 5347.52078781 0 10575
0.09950000 0.09950330 17079.22326860 0 288.78038582 0 6550.38327924 0 177.88394401 0 6010.35289983 0 10882
0.10050000 0.10051200 16283.31897559 0 265.64747635 0 6284.40528523 0 45.49830812 0 6113.24593392 0 10875
0.10150000 0.10150300 16784.86290159 0 -24.92735423 0 5555.90219608 0 1267.41325767 0 6293.25606039 0 11118
0.10250000 0.10250800 16692.36231904 0 -331.48038495 0 5544.97736708 0 153.31694277 0 6324.98797486 0 11575
0.10350000 0.10349800 17020.66174871 0 -100.08030654 0 4355.84577748 0 749.92019046 0 5041.19301930 0 11364
0.10450000 0.10450100 16628.47702462 0 417.66785820 0 4690.07899751 0 -328.26282872 0 4717.97335783 0 12093
0.10550000 0.10551000 16243.27975461 0 457.86679242 0 4255.89191058 0 -797.33838477 0 4185.28535081 0 12067
0.10650000 0.10649700 15582.46624044 0 73.37092970 0 4635.70995007 0 691.23001269 0 3425.56054225 0 12054
0.10750000 0.10749900 15557.73287124 0 425.06346832 0 4807.74550593 0 -476.03528214 0 2857.60252892 0 12807
0.10850000 0.10850100 15045.20866026 0 225.48070660 0 3316.03497238 0 398.93815391 0 1592.36314586 0 12736
0.10950000 0.10950300 14648.92019330 0 212.13245107 0 4400.47675400 0 125.79191931 0 2350.40209248 0 12933
0.11050000 0.11050200 14191.51923116 0 168.90783832 0 3403.82179623 0 -149.76110503 0 1016.89750132 0 13428
0.11150000 0.11150900 14387.61159320 0 186.75468333 0 3948.95412623 0 -322.81150542 0 1194.68827928 0 13453
0.11250000 0.11250000 13713.82137860 0 203.06207021 0 4035.56528320 0 -603.48755363 0 -943.71667473 0 13668
0.11350000 0.11349100 13661.91457688 0 256.74124520 0 4114.19077837 0 -525.88023034 0 -74.72427755 0 13791
0.11450000 0.11448600 13642.83771813 0 4.88718066 0 4688.71478029 0 -401.54014871 0 -1542.09784129 0 14205
0.11550000 0.11549300 13654.81621083 0 -200.91592360 0 4648.30954980 0 653.71736637 0 -313.27529428 0 14776
0.11650000 0.11649800 13992.09951003 0 -92.09775028 0 4422.00476727 0 572.89359597 0 -1475.16246770 0 14553
0.11750000 0.11747300 14071.95612806 0 35.18327314 0 3983.19265121 0 35.20357003 0 324.01046381 0 14568
0.11850000 0.11849100 14222.79640655 0 32.21171965 0 4528.05879249 0 548.76691525 0 285.14247322 0 16015
0.11950000 0.11950300 13945.51648285 0 72.55217754 0 4083.90071950 0 21.20603583 0 476.94697853 0 15270
0.12050000 0.12050700 13778.70488075 0 350.47405973 0 4186.40556170 0 268.56778850 0 1164.68659153 0 15999
0.12150000 0.12150000 13378.31267092 0 272.75138799 0 4409.20552599 0 199.96318978 0 846.87943418 0 15670
0.12250000 0.12250700 13152.93954893 0 148.16619091 0 4550.20791280 0 231.88920019 0 2039.48256843 0 16887
0.12350000 0.12352200 12840.38961893 0 52.03035765 0 3876.20696545 0 664.89507465 0 1980.29994151 0 16407
0.12450000 0.12449800 13081.95588846 0 -145.71836375 0 3066.89341533 0 637.79595315 0 2605.72144623 0 16306
0.12550000 0.12549900 13102.80733872 0 -165.67475441 0 3034.24093152 0 576.99622972 0 1892.91240076 0 17523
0.12650000 0.12650100 13294.57413396 0 4.63253787 0 2752.10306355 0 -50.92234708 0 2192.43017435 0 17154
0.12750000 0.12750600 13078.96126528 0 144.09350339 0 2206.53817686 0 -275.88132377 0 1567.25267597 0 18007
0.12850000 0.12850300 13039.25478021 0 232.61234624 0 3031.12430518 0 -755.05652376 0 889.39310120 0 17496
0.12950000 0.12949900 12918.91529332 0 125.77528251 0 3249.41015231 0 -265.00751428 0 1013.07325661 0 18405
0.13050000 0.13049000 12755.20922636 0 57.17168200 0 3256.14250886 0 153.80717368 0 539.12422862 0 18100
0.13150000 0.13148800 12709.73531888 0 212.67702884 0 3370.95857967 0 -222.86096588 0 669.11083861 0 19059
0.13250000 0.13249300 12487.57864400 0 139.06364558 0 3709.39536335 0 456.66783403 0 392.02057437 0 18957
0.13350000 0.13349100 12275.62587032 0 51.21559832 0 3858.92688060 0 113.72026055 0 1161.04867893 0 19468
0.13450000 0.13450700 12080.75353994 0 175.24313002 0 3585.48451104 0 147.09478129 0 1076.47497484 0 19953
0.13550000 0.13551000 12097.05759946 0 242.90275876 0 3752.29611314 0 -119.89362077 0 862.74095493 0 19956
0.13650000 0.13649900 11654.29701728 0 194.83794767 0 3816.78033220 0 -108.13307009 0 1595.80141691 0 19723
0.13750000 0.13749600 11449.77534556 0 21.74562256 0 3375.37287606 0 579.71579121 0 955.44561551 0 20946
0.13850000 0.13851100 11590.74445877 0 -288.64063674 0 2659.03682996 0 846.77074045 0 1797.93848129 0 20955
0.13950000 0.13949800 11809.46286259 0 -9.60835937 0 2531.22187633 0 688.28751814 0 1419.15192312 0 20506
0.14050000 0.14048300 11684.24324904 0 122.76845902 0 2074.14255889 0 -209.53045627 0 1800.22326786 0 21447
0.14150000 0.14148400 11679.80677026 0 267.63723708 0 2164.50254043 0 -168.91671128 0 1735.39522170 0 21771
0.14250000 0.14249400 11162.06969672 0 243.50168340 0 2227.47835670 0 -630.71644214 0 1171.17494175 0 22470
0.14350000 0.14350900 10916.95424417 0 268.23505259 0 3125.92076549 0 -408.31243357 0 826.19435187 0 22519
0.14450000 0.14449900 10737.18812403 0 297.18973135 0 3215.65964000 0 -456.84307494 0 415.52060247 0 22218
0.14550000 0.14550500 10448.18480515 0 133.36720682 0 3661.17083902 0 -289.62331679 0 86.81867326 0 23559
0.14650000 0.14650700 10472.27488492 0 -66.78896978 0 3860.34655381 0 88.55389103 0 27.97222053 0 23044
0.14750000 0.14750500 10548.27176641 0 -123.09454021 0 3542.10683978 0 479.93605610 0 -129.87902538 0 23649
0.14850000 0.14849900 10622.66042434 0 29.86271505 0 3257.32926694 0 453.54566209 0 56.33152383 0 23640
0.14950000 0.14949500 10532.94373223 0 88.62908934 0 3031.68995622 0 14.52846979 0 418.21465421 0 24457
0.15050000 0.15050000 10509.79640420 0 230.73793395 0 2942.80510388 0 213.96028033 0 144.85657774 0 24591
0.15150000 0.15149900 10166.88986815 0 134.02158744 0 3129.46994852 0 -149.99180193 0 332.70374398 0 25020
0.15250000 0.15250500 9974.20250357 0 145.38340960 0 2885.39706847 0 97.56415760 0 341.91165568 0 25297
0.15350000 0.15350100 9669.00603714 0 231.92136467 0 3029.83772633 0 -14.98598167 0 131.68023577 0 25452
0.15450000 0.15450400 9390.58372015 0 193.04228288 0 3017.33794737 0 -298.97319582 0 -49.61036939 0 26061
0.15550000 0.15549900 9123.04186737 0 254.22687085 0 3489.15746555 0 -160.35319812 0 -106.41238179 0 26128
0.15650000 0.15649500 9022.97708850 0 124.28684388 0 3447.58765939 0 165.61597107 0 -48.80703399 0 26331
0.15750000 0.15749700 8857.56297721 0 -74.77596253 0 2981.26937489 0 351.89927853 0 -259.39425951 0 27345
0.15850000 0.15849900 8892.77752752 0 25.54491208 0 2939.72175113 0 388.72759800 0 -128.49595312 0 26980
0.15950000 0.15949700 8957.23956419 0 -16.71321377 0 2372.04101773 0 318.80758332 0 -47.10065334 0 27777
0.16050000 0.16050000 8813.19818942 0 63.36134628 0 2409.17434511 0 4.48748719 0 38.65759058 0 28224
0.16150000 0.16150500 8726.57594126 0 146.01560782 0 2410.57183592 0 -14.95037893 0 -22.24716649 0 28075
0.16250000 0.16249700 8554.65129736 0 94.53437533 0 2212.52742322 0 -292.07225308 0 -311.85783931 0 28590
0.16350000 0.16349900 8584.65298511 0 -1.61639777 0 2377.33151867 0 260.79951416 0 72.90787223 0 29163
0.16450000 0.16449100 8770.07561569 0 -32.79178925 0 2242.41819899 0 74.83474587 0 -304.26480588 0 28996
0.16550000 0.16550500 8615.36450946 0 53.77234104 0 2073.57690785 0 41.54973110 0 -318.47928389 0 30777
0.16650000 0.16650700 8557.94538285 0 111.02509969 0 2464.60814746 0 -86.54960083 0 -401.32497949 0 29211
0.16750000 0.16749900 8382.84865663 0 66.14545854 0 2018.91948929 0 224.31280356 0 100.79258321 0 30922
0.16850000 0.16850800 8357.37217724 0 35.24793481 0 2110.61041446 0 256.28317876 0 113.53060108 0 30867
0.16950000 0.16949900 8492.51841206 0 54.55061033 0 1982.24090098 0 186.00380930 0 265.13284481 0 30852
0.17050000 0.17049200 8253.91349211 0 38.13619341 0 1956.08785858 0 197.81593405 0 -13.87031817 0 31257
0.17150000 0.17149500 8206.24352763 0 178.44626770 0 1776.36610323 0 -252.02637737 0 298.64600551 0 32608
0.17250000 0.17250900 8014.93147147 0 86.66384015 0 1586.07443719 0 22.40965252 0 154.04785265 0 32361
0.17350000 0.17350400 8060.89339162 0 -92.67393796 0 1678.81902607 0 215.45315544 0 -174.52996606 0 32508
0.17450000 0.17449800 8188.09832942 0 -9.57006147 0 1562.72746761 0 68.94288023 0 -320.37587857 0 32791
0.17550000 0.17549800 7988.37914597 0 204.04364114 0 1242.13641982 0 -255.93713342 0 -594.02010791 0 33633
0.17650000 0.17650100 7750.24005630 0 158.79821231 0 1630.19521865 0 -198.20856242 0 -430.87081904 0 33984
0.17750000 0.17750300 7637.22075939 0 90.58147274 0 1719.13552697 0 13.16480713 0 -471.04535263 0 34069
0.17850000 0.17849800 7604.29099566 0 27.11819836 0 1773.40475364 0 252.79166996 0 -310.21079656 0 34536
