### header ###
fiducial parameters:
Omega_m = 0.31
Omega_nu = 0
Omega_de = 0.69
Omega_k = 0
H_0 = 100
w_de = -1
zeff = 0
beta = 0
fgrowth = 0
b_1 = 2
gamma = 0.55
Lx = 3500 Ly = 3500 Lz = 3500
nx = 700 ny = 700 nz = 700
xoffset = 1379.75464 yoffset = 22.6059522 zoffset = 368.141391
bins = 400 dk = 0.001
kx_ny = 0.628318531 ky_ny = 0.628318531 kz_ny = 0.628318531
############################
A(data) = 3.32015191 (not used)
A(ran) = 3.32512557 (used)
Ngal = 187208
weighted Ngal = 0
Nran = 9399747
weighted Nran = 0
SN(data) = 6638.36455
SN(ran) = 132.258142
SN(data+ran) = 6770.62269
############################
13 columns: k_central k_mean P_0(k) sigma^{lin}_{P_0(k)} P^img_1(k) sigma^{lin}_{P_1(k)} P_2(k) sigma^{lin}_{P_2(k)} P^img_3(k) sigma^{lin}_{P_3(k)} P_4(k) sigma^{lin}_{P_4(k)} N_modes
### header ###
0.00050000 0 0 0 0 0 0 0 0 0 0 0 0
0.00150000 0.00179520 71506.83222867 0 -76872.53148828 0 -98607.50649984 0 99762.76557396 0 125862.90296843 0 3
0.00250000 0.00253879 93447.54894362 0 -49502.34113128 0 -19298.12813006 0 -156638.75626036 0 -92847.73701266 0 6
0.00350000 0.00331552 140026.36147131 0 -24805.35106273 0 -130961.52620553 0 18173.59167148 0 45204.28048990 0 7
0.00450000 0.00420575 150543.03441761 0 -12455.74690876 0 -84451.14636300 0 -64395.04583350 0 -19475.47636926 0 24
0.00550000 0.00557378 138591.16058621 0 22860.06602998 0 -59620.28554729 0 -84038.99748441 0 -1525.94905853 0 45
0.00650000 0.00659388 101106.57499621 0 8830.30081512 0 -4482.20778431 0 -12371.56472393 0 -42197.67882118 0 40
0.00750000 0.00754703 86327.66597467 0 12752.88007501 0 -5287.45086514 0 -27802.52521405 0 -16796.28683445 0 57
0.00850000 0.00846663 82412.47345195 0 843.66187794 0 -16096.65413096 0 -10797.94570091 0 -46388.37667609 0 75
0.00950000 0.00948925 66438.93160712 0 8210.15872015 0 11761.32706783 0 -20954.59839428 0 -32063.20852171 0 112
0.01050000 0.01054430 67583.43222021 0 3047.90528616 0 3128.28319044 0 -2772.26685960 0 -13828.39344307 0 105
0.01150000 0.01145670 69192.09942558 0 -5768.29861763 0 7550.69833200 0 11267.76880364 0 -27503.17380842 0 144
0.01250000 0.01249090 75442.32164181 0 -3391.52165881 0 5363.81375613 0 3031.01339321 0 -4670.22575497 0 169
0.01350000 0.01339930 75132.65542302 0 7353.76303899 0 14425.54348677 0 -14205.93778719 0 -6425.82913751 0 180
0.01450000 0.01448870 80394.65199116 0 -5391.79684603 0 4808.53298092 0 15379.94098416 0 13723.35980797 0 267
0.01550000 0.01550050 74069.34237159 0 -2171.12398501 0 16484.40237627 0 21744.73526487 0 27905.56243370 0 238
0.01650000 0.01653350 81216.84242093 0 1615.00027883 0 -5410.00859142 0 9654.14383323 0 35175.62020932 0 315
0.01750000 0.01747870 79496.04321442 0 2274.74903810 0 7091.80005827 0 4596.76875758 0 34633.70432643 0 297
0.01850000 0.01844180 82768.38996202 0 894.93869967 0 13430.21947263 0 -9813.09177670 0 22091.66790541 0 388
0.01950000 0.01947590 70285.02597286 0 7729.25551167 0 11392.76659324 0 -12818.65087291 0 19863.00279063 0 399
0.02050000 0.02045430 65680.18282389 0 5509.98464071 0 33414.33813394 0 -5833.86977399 0 12764.30400786 0 462
0.02150000 0.02154770 60582.77961846 0 -1981.06523410 0 26051.11430395 0 3243.58727392 0 13664.68737612 0 571
0.02250000 0.02255340 67862.70855936 0 -2176.58085391 0 21839.78682271 0 14391.27168820 0 -7734.86765733 0 510
0.02350000 0.02348930 67333.99120084 0 1569.24909142 0 23835.31497764 0 -6327.58331495 0 -5553.08503205 0 555
0.02450000 0.02439640 64293.33955749 0 4930.55832974 0 15713.56418836 0 -1545.05919087 0 -3120.02024872 0 592
0.02550000 0.02547300 62112.03385368 0 900.37671354 0 27195.17126916 0 1498.80889960 0 -337.97649900 0 837
0.02650000 0.02652900 58452.27159668 0 -1679.78396020 0 16686.59489663 0 3051.60974594 0 -10710.97962564 0 723
0.02750000 0.02749970 61271.21021304 0 2286.82735157 0 19503.31527360 0 5740.60389885 0 -1948.31292952 0 826
0.02850000 0.02848090 59259.37799860 0 -256.80668326 0 15703.80393505 0 -1628.28753277 0 -923.04822922 0 831
0.02950000 0.02946900 57168.57646189 0 459.58925530 0 14079.38723001 0 4697.22172834 0 -2708.81412186 0 996
0.03050000 0.03053250 57211.72121802 0 1719.41280690 0 18798.58061951 0 -157.96748165 0 -256.48503855 0 1041
0.03150000 0.03150510 51922.99486523 0 2384.28569916 0 12221.50082922 0 -1907.95206382 0 -4964.15356530 0 1036
0.03250000 0.03246190 53246.50739706 0 -366.16810341 0 17621.91553528 0 6830.84637647 0 10029.60303232 0 1059
0.03350000 0.03345080 53961.00230446 0 -1113.45635283 0 9352.30799948 0 -523.17508741 0 -11045.05756892 0 1302
0.03450000 0.03451200 51614.77050204 0 2525.65409546 0 13424.45205022 0 -3905.97573806 0 -2725.35109651 0 1339
0.03550000 0.03553350 50726.69836239 0 1631.53725348 0 13453.51098622 0 -3423.95231869 0 -13101.58730706 0 1365
0.03650000 0.03647120 48008.68963826 0 1255.64549771 0 16943.46701795 0 -6280.94483178 0 -10100.96379349 0 1308
0.03750000 0.03744890 46865.51996881 0 2339.85436418 0 16681.04929816 0 -4242.10555277 0 -18670.69911870 0 1579
0.03850000 0.03847530 45378.63410593 0 63.98999532 0 20259.18034562 0 2424.20291697 0 -15715.11695594 0 1662
0.03950000 0.03950240 46344.34462421 0 -1130.69207289 0 15551.52180095 0 3522.28687083 0 -17324.22780918 0 1683
0.04050000 0.04050350 47579.79305227 0 -1343.65414549 0 14650.58387285 0 4306.43449507 0 -18950.30819376 0 1822
0.04150000 0.04152450 48325.89787098 0 1660.30781836 0 7972.85147025 0 621.03160896 0 -12939.32309570 0 1887
0.04250000 0.04250150 43867.56943370 0 2271.55477337 0 12200.98211486 0 -2710.23379507 0 -13240.44909285 0 1920
0.04350000 0.04349210 41842.31687096 0 1232.15434257 0 12749.88545183 0 269.21107793 0 -5354.79661301 0 2005
0.04450000 0.04448520 40817.93392082 0 1339.73895297 0 15030.12463241 0 307.82286186 0 -10838.59493773 0 2151
0.04550000 0.04548030 39411.68105975 0 1014.15021183 0 13601.57846548 0 -164.81407753 0 -6700.87973063 0 2274
0.04650000 0.04648670 36730.60602146 0 1965.23809606 0 14093.80578605 0 -1063.68904300 0 -8915.38138691 0 2311
0.04750000 0.04749250 35706.00124738 0 1030.56629244 0 18122.90490143 0 -1710.24038702 0 -6484.46829578 0 2568
0.04850000 0.04851840 34808.83432624 0 -178.91653445 0 16676.61281938 0 1381.51949187 0 -9072.07781739 0 2493
0.04950000 0.04949480 36037.51712416 0 -544.84839536 0 15543.31431521 0 3535.46321281 0 -9178.03202184 0 2644
0.05050000 0.05050630 35545.51162754 0 112.38044396 0 10548.63777591 0 714.17215357 0 -9564.05004042 0 2829
0.05150000 0.05149060 35225.30877165 0 -630.24173891 0 11620.46886659 0 2080.57545312 0 -8541.24204025 0 2784
0.05250000 0.05249300 36141.21981563 0 298.33434287 0 9253.44106989 0 736.37451162 0 -8826.59635533 0 3055
0.05350000 0.05348950 35555.60461676 0 588.77397176 0 7129.51012789 0 94.88707540 0 -9141.81926380 0 3009
0.05450000 0.05448610 33531.90482159 0 576.44056075 0 8738.12187728 0 770.11615098 0 -5714.11812054 0 3336
0.05550000 0.05550870 33616.64156628 0 957.25680797 0 6912.31121806 0 -117.05760171 0 -6085.05211128 0 3349
0.05650000 0.05647670 33139.27644962 0 199.92769795 0 7556.11083611 0 1461.48702187 0 -4805.07252747 0 3324
0.05750000 0.05747970 31458.96011197 0 604.93384571 0 8744.03348525 0 -199.12358617 0 -2576.50723347 0 3639
0.05850000 0.05849280 31131.21524215 0 1176.02179481 0 10081.57638122 0 -899.69016845 0 -1942.64532788 0 3846
0.05950000 0.05951020 30178.48142430 0 587.57168601 0 10722.01536660 0 1007.68958961 0 2194.77041690 0 3787
0.06050000 0.06049470 30085.42628190 0 -548.98541182 0 10155.58793846 0 1464.85874574 0 1298.62388588 0 3930
0.06150000 0.06148310 31230.25963090 0 -361.74604318 0 10740.97022219 0 559.38119072 0 2650.59642908 0 4083
0.06250000 0.06249100 31116.46395021 0 311.44635590 0 9552.07154772 0 473.73496789 0 1982.19653619 0 4303
0.06350000 0.06350600 30973.72024548 0 271.94949445 0 11730.71536426 0 -726.76953507 0 2602.78227904 0 4470
0.06450000 0.06451750 30120.36355229 0 836.10988194 0 10654.82489549 0 -1138.26736040 0 -777.44854128 0 4479
0.06550000 0.06550280 29731.83892319 0 890.23714129 0 13956.49676783 0 -711.44704648 0 -383.26074702 0 4636
0.06650000 0.06648880 28497.72143876 0 405.39212142 0 12066.44589588 0 273.98029261 0 -452.06831465 0 4653
0.06750000 0.06749660 28809.27316104 0 -49.58508146 0 12178.02333718 0 1209.51720960 0 233.86121501 0 5220
0.06850000 0.06852730 27668.65446688 0 169.47348937 0 11363.37492133 0 1927.62784721 0 -1401.74983510 0 5029
0.06950000 0.06949320 27966.34219297 0 435.06440061 0 9577.17092641 0 167.57245821 0 169.89273661 0 5040
0.07050000 0.07048030 27254.62008481 0 65.56683079 0 9790.36591415 0 2147.82138022 0 1687.03760301 0 5475
0.07150000 0.07148790 27138.49525276 0 -64.74530583 0 8651.75472664 0 1390.82500611 0 2233.16814074 0 5509
0.07250000 0.07249820 27061.18961003 0 -159.98164302 0 6149.63615111 0 1881.24446157 0 2426.27697080 0 5916
0.07350000 0.07351270 26654.03177006 0 609.20062918 0 7540.13951251 0 -256.66360682 0 3609.05330456 0 5721
0.07450000 0.07449140 26140.95299924 0 618.87326204 0 5984.56586693 0 -261.05017521 0 3171.41685537 0 6028
0.07550000 0.07549160 25363.46009316 0 458.99476715 0 8669.20117944 0 -235.01691773 0 4416.10425050 0 6183
0.07650000 0.07648840 25169.91870642 0 250.36269783 0 7552.50619710 0 -122.56327188 0 1779.69346231 0 6330
0.07750000 0.07749960 24388.76570536 0 345.12921192 0 7688.15153578 0 -452.47203422 0 2380.25959466 0 6583
0.07850000 0.07848650 24436.56876420 0 416.86818290 0 8316.45675170 0 -24.41394272 0 1970.78369453 0 6549
0.07950000 0.07947320 23783.96273577 0 569.74036867 0 8653.52931815 0 -161.10961775 0 750.42373080 0 6828
0.08050000 0.08048110 23109.72887329 0 828.55677682 0 9221.63151704 0 -1166.87155733 0 1246.47307783 0 7147
0.08150000 0.08149960 22274.45083112 0 369.18601810 0 10212.05322212 0 -181.45420031 0 532.20997644 0 7386
0.08250000 0.08250610 22006.82024875 0 14.95359537 0 9795.61205031 0 321.35301302 0 514.89439977 0 7227
0.08350000 0.08350160 22188.05040689 0 -255.46353931 0 9471.90437618 0 840.21140657 0 -828.61001457 0 7798
0.08450000 0.08449610 22604.41394033 0 -76.93264578 0 9216.62938722 0 1014.02931779 0 -1016.98290353 0 7371
0.08550000 0.08548940 22193.04144552 0 14.61664481 0 8556.95826633 0 -3.50810123 0 -1846.65101829 0 8256
0.08650000 0.08650700 22132.37259821 0 369.74390530 0 7691.67853641 0 -163.57297259 0 -363.62932843 0 8037
0.08750000 0.08749060 21932.95287708 0 314.99332069 0 7798.24275669 0 213.13398616 0 -2163.23814398 0 8155
0.08850000 0.08849210 21115.97530987 0 687.21167203 0 7861.17420817 0 19.91612962 0 -1594.74775320 0 8718
0.08950000 0.08949900 20211.82093465 0 779.33848124 0 8908.84867190 0 -243.36304344 0 -1097.18889427 0 8571
0.09050000 0.09049190 19232.91189200 0 423.90000176 0 7791.94295682 0 904.56364039 0 -219.84194207 0 8932
0.09150000 0.09150830 18726.04419147 0 -157.40515797 0 7433.59747462 0 2057.66104023 0 884.93887651 0 9285
0.09250000 0.09250820 19189.76713588 0 82.26462780 0 6161.15990474 0 1348.41226898 0 1170.84220584 0 9204
0.09350000 0.09350330 18648.40581283 0 -34.39202714 0 4892.14951471 0 1548.07599644 0 3131.71037030 0 9349
0.09450000 0.09448040 18398.63205756 0 219.17203377 0 5896.52394555 0 -50.38564406 0 2493.22343558 0 9564
0.09550000 0.09549270 18428.02372947 0 260.41797699 0 4489.11760001 0 -698.78422693 0 1992.95499723 0 10155
0.09650000 0.09649430 17916.05407834 0 258.76538864 0 5937.27300314 0 -787.19326692 0 556.29340149 0 9913
0.09750000 0.09749140 17865.58913223 0 117.94600659 0 5857.31656434 0 -621.58949617 0 1088.41464836 0 10476
0.09850000 0.09850240 17767.09930333 0 -186.01600962 0 5478.58546215 0 435.21302265 0 -248.99071677 0 10575
0.09950000 0.09950330 17972.61918278 0 7.16553434 0 5442.43925130 0 509.84568691 0 -906.99372164 0 10882
0.10050000 0.10051200 17770.98122226 0 288.41437632 0 4774.71592142 0 -255.86725888 0 -1271.98283081 0 10875
0.10150000 0.10150300 17453.99481348 0 350.30436441 0 5612.40075333 0 80.09496785 0 -594.59130456 0 11118
0.10250000 0.10250800 16889.45288881 0 234.17953236 0 5375.02695624 0 -13.95427853 0 440.54567014 0 11575
0.10350000 0.10349800 16784.97381356 0 193.42049270 0 4879.52773258 0 638.21520039 0 -32.13042118 0 11364
0.10450000 0.10450100 16444.14133134 0 262.37779149 0 5442.17306257 0 46.18230224 0 -151.91390636 0 12093
0.10550000 0.10551000 16356.18813954 0 222.48053782 0 5292.75245728 0 -398.43794093 0 530.68050038 0 12067
0.10650000 0.10649700 16170.52150263 0 83.80785694 0 5137.00986974 0 550.37292056 0 316.13349573 0 12054
0.10750000 0.10749900 15975.09461240 0 66.00105115 0 5467.02843493 0 109.75105390 0 482.76209309 0 12807
0.10850000 0.10850100 15905.77463148 0 184.71501222 0 5080.97714275 0 21.68517554 0 179.08512064 0 12736
0.10950000 0.10950300 15711.34594897 0 290.22335054 0 5590.89492245 0 340.82693662 0 446.81330554 0 12933
0.11050000 0.11050200 15115.41593695 0 344.97282604 0 5259.22376891 0 -330.79938546 0 92.72850665 0 13428
0.11150000 0.11150900 14826.60116841 0 193.16206781 0 5455.20521898 0 313.92412930 0 726.45121771 0 13453
0.11250000 0.11250000 14472.57016183 0 315.43142297 0 5221.74661442 0 -116.17696067 0 -187.31589790 0 13668
0.11350000 0.11349100 14401.58650136 0 25.16004754 0 5254.67637816 0 412.30193711 0 637.57080185 0 13791
0.11450000 0.11448600 13907.14094141 0 163.93676385 0 5002.55128913 0 380.79184658 0 -67.96951679 0 14205
0.11550000 0.11549300 14078.27811032 0 86.40086787 0 4682.89190189 0 -492.32603221 0 -192.36128339 0 14776
0.11650000 0.11649800 13759.29528609 0 211.43925126 0 5247.37837057 0 496.80022106 0 -119.66957859 0 14553
0.11750000 0.11747300 13624.09359529 0 102.09846074 0 4468.44360889 0 -129.41763159 0 -111.28130634 0 14568
0.11850000 0.11849100 13558.32279739 0 -8.33633218 0 4525.48563480 0 368.69578719 0 -243.93867656 0 16015
0.11950000 0.11950300 13842.47926320 0 -50.45762592 0 4267.68185293 0 465.79588911 0 -335.35454005 0 15270
0.12050000 0.12050700 13570.52311403 0 85.81181440 0 3998.89778609 0 142.36882227 0 -634.59725195 0 15999
0.12150000 0.12150000 13650.49064402 0 87.33363754 0 3885.14647019 0 -22.69403081 0 7.01995128 0 15670
0.12250000 0.12250700 13418.57371584 0 21.37506567 0 3681.30136148 0 449.47186545 0 151.65437235 0 16887
0.12350000 0.12352200 13354.68842142 0 91.62404525 0 3554.86171627 0 225.31433864 0 1.12190784 0 16407
0.12450000 0.12449800 13253.20396934 0 246.11144204 0 3315.73551007 0 142.14921657 0 -38.38164160 0 16306
0.12550000 0.12549900 12754.54375455 0 457.25344923 0 3986.07636242 0 -474.36051140 0 36.40197386 0 17523
0.12650000 0.12650100 12341.39666823 0 244.46994489 0 4248.36098785 0 -163.53193516 0 695.71529273 0 17154
0.12750000 0.12750600 12258.43451505 0 51.70472011 0 4398.13651144 0 -68.41283193 0 86.15630698 0 18007
0.12850000 0.12850300 12179.79792869 0 109.37716965 0 4864.93171740 0 -125.14419341 0 599.14313178 0 17496
0.12950000 0.12949900 12067.00045573 0 97.11196950 0 4616.98800962 0 -91.61361953 0 98.55937071 0 18405
0.13050000 0.13049000 12232.48111419 0 59.60753067 0 5015.37271280 0 203.41255203 0 771.63453584 0 18100
0.13150000 0.13148800 11995.68405935 0 16.22486837 0 5263.05023186 0 11.52896649 0 922.13320547 0 19059
0.13250000 0.13249300 12215.17884696 0 20.32705847 0 5099.47725926 0 213.34915538 0 771.73879309 0 18957
0.13350000 0.13349100 12070.66055072 0 24.45775295 0 5408.51127983 0 133.75539872 0 1134.91781892 0 19468
0.13450000 0.13450700 12106.37420489 0 -34.31472150 0 4627.00336047 0 464.44830869 0 1387.87474772 0 19953
0.13550000 0.13551000 12077.09344495 0 164.75418507 0 5013.68685087 0 109.76336513 0 1279.83539825 0 19956
0.13650000 0.13649900 11989.36207709 0 117.57666973 0 4268.68006066 0 258.91844716 0 1528.01202116 0 19723
0.13750000 0.13749600 11853.71673841 0 128.39391411 0 4534.97969939 0 310.49251297 0 1002.65085884 0 20946
0.13850000 0.13851100 11478.94519353 0 171.56972559 0 3818.24437020 0 209.26204930 0 1139.04374419 0 20955
0.13950000 0.13949800 11248.58103292 0 85.15188819 0 3758.60700421 0 298.51402026 0 1235.19333053 0 20506
0.14050000 0.14048300 11171.05356625 0 4.86011814 0 3570.58903354 0 489.30368105 0 1274.06797584 0 21447
0.14150000 0.14148400 11137.33632753 0 -12.22005897 0 2636.85443606 0 661.32038188 0 1354.60115688 0 21771
0.14250000 0.14249400 10946.30155129 0 112.01110710 0 2543.57746973 0 260.32148357 0 1309.40452931 0 22470
0.14350000 0.14350900 10717.17960473 0 261.34409193 0 2466.89293403 0 -31.68566418 0 1697.85152003 0 22519
0.14450000 0.14449900 10412.41569499 0 255.09198421 0 2474.40167436 0 -288.06833098 0 1148.61544715 0 22218
0.14550000 0.14550500 10366.98615229 0 65.65023659 0 2786.89614838 0 -195.56220283 0 1486.03184071 0 23559
0.14650000 0.14650700 10105.91046733 0 34.59177960 0 2559.07187186 0 11.18525030 0 597.48056136 0 23044
0.14750000 0.14750500 10194.36276299 0 -6.30436944 0 2642.68840566 0 -15.74927784 0 1059.26698278 0 23649
0.14850000 0.14849900 10325.43852852 0 -17.56335402 0 2396.17546228 0 308.62919188 0 593.39456441 0 23640
0.14950000 0.14949500 10299.34094210 0 -68.12800999 0 2275.55869547 0 84.51858084 0 496.79356635 0 24457
0.15050000 0.15050000 10440.62060883 0 11.59961742 0 2286.64989242 0 301.20474464 0 859.64096539 0 24591
0.15150000 0.15149900 10304.33198073 0 134.41643405 0 1967.63379460 0 -15.09434266 0 376.91880061 0 25020
0.15250000 0.15250500 10211.64284783 0 271.17976538 0 2381.20234640 0 -338.48003935 0 1193.34624445 0 25297
0.15350000 0.15350100 9846.03263163 0 193.06890176 0 2448.75882702 0 24.20542822 0 578.67543694 0 25452
0.15450000 0.15450400 9560.41212782 0 202.20361156 0 3090.22929371 0 -79.12992280 0 1219.78765797 0 26061
0.15550000 0.15549900 9426.13100637 0 232.80976954 0 2885.53016284 0 -255.07645653 0 756.14789754 0 26128
0.15650000 0.15649500 9193.38223841 0 109.01903490 0 3244.57439045 0 112.08430900 0 1341.26953815 0 26331
0.15750000 0.15749700 9122.24330119 0 37.89118887 0 3398.97494316 0 -42.15242674 0 440.99375450 0 27345
0.15850000 0.15849900 9186.40587553 0 49.36181567 0 3155.12388706 0 11.21231282 0 1093.77391472 0 26980
0.15950000 0.15949700 9000.59505306 0 -21.86862393 0 3286.62111808 0 102.09191693 0 792.03790175 0 27777
0.16050000 0.16050000 9066.14402702 0 58.61930502 0 2842.09703559 0 121.75139626 0 639.91326265 0 28224
0.16150000 0.16150500 9111.92848802 0 12.81964908 0 2846.81079429 0 242.88944933 0 334.93751104 0 28075
0.16250000 0.16249700 9098.91851400 0 17.91061939 0 2627.67092499 0 179.94136105 0 -29.11328287 0 28590
0.16350000 0.16349900 8934.73552558 0 8.13124485 0 2338.56778534 0 46.14170846 0 217.34087716 0 29163
0.16450000 0.16449100 8979.88778836 0 168.27896746 0 2452.71838433 0 -255.04540118 0 -520.56089229 0 28996
0.16550000 0.16550500 8540.07746457 0 259.38095007 0 2363.94444395 0 -385.95590788 0 -664.93722120 0 30777
0.16650000 0.16650700 8384.17960027 0 125.69542589 0 2440.11878459 0 101.56641602 0 -770.15497017 0 29211
0.16750000 0.16749900 8256.46446741 0 8.76181267 0 2420.39863642 0 206.38721105 0 -890.13732052 0 30922
0.16850000 0.16850800 8283.19425205 0 140.22045742 0 2416.59435587 0 108.04544963 0 -730.84000435 0 30867
0.16950000 0.16949900 8124.27958218 0 69.83494520 0 2188.82553534 0 94.43433274 0 -570.13188793 0 30852
0.17050000 0.17049200 8093.33514269 0 19.88196874 0 2200.24946819 0 6.55244624 0 -439.01841232 0 31257
0.17150000 0.17149500 8131.30030985 0 -11.23294245 0 2187.80514522 0 297.88514940 0 -364.41347605 0 32608
0.17250000 0.17250900 8076.80925924 0 -2.39499980 0 2231.42682282 0 99.94399573 0 -25.94375152 0 32361
0.17350000 0.17350400 8082.42140490 0 123.48605946 0 2166.62095905 0 7.76342749 0 56.74844192 0 32508
0.17450000 0.17449800 8064.13202113 0 6.62666853 0 1987.29848679 0 144.08130308 0 371.52182417 0 32791
0.17550000 0.17549800 7984.86323654 0 -43.27840505 0 2144.61602430 0 256.26543285 0 620.00456412 0 33633
0.17650000 0.17650100 8052.79681785 0 103.42563337 0 1850.95440270 0 261.84874139 0 683.80223809 0 33984
0.17750000 0.17750300 7976.62247721 0 47.72652959 0 1936.83354067 0 12.45053405 0 849.97165989 0 34069
0.17850000 0.17849800 7831.12815564 0 145.46215710 0 1991.25804410 0 -117.96707986 0 865.65683061 0 34536
