### header ###
fiducial parameters:
Omega_m = 0.31
Omega_nu = 0
Omega_de = 0.69
Omega_k = 0
H_0 = 100
w_de = -1
zeff = 0
beta = 0
fgrowth = 0
b_1 = 2
gamma = 0.55
Lx = 3500 Ly = 3500 Lz = 3500
nx = 700 ny = 700 nz = 700
xoffset = 1379.75464 yoffset = 22.6059522 zoffset = 368.141391
bins = 400 dk = 0.001
kx_ny = 0.628318531 ky_ny = 0.628318531 kz_ny = 0.628318531
############################
A(data) = 3.29871333 (not used)
A(ran) = 3.29809696 (used)
Ngal = 185755
weighted Ngal = 0
Nran = 9399747
weighted Nran = 0
SN(data) = 6641.67301
SN(ran) = 131.183069
SN(data+ran) = 6772.85608
############################
13 columns: k_central k_mean P_0(k) sigma^{lin}_{P_0(k)} P^img_1(k) sigma^{lin}_{P_1(k)} P_2(k) sigma^{lin}_{P_2(k)} P^img_3(k) sigma^{lin}_{P_3(k)} P_4(k) sigma^{lin}_{P_4(k)} N_modes
### header ###
0.00050000 0 0 0 0 0 0 0 0 0 0 0 0
0.00150000 0.00179520 11938.67530704 0 -9485.53545723 0 -4633.49171068 0 -15990.95502404 0 -9270.36623643 0 3
0.00250000 0.00253879 24433.01958118 0 -6610.58629628 0 -13031.60185431 0 -14144.93620398 0 -3215.45999846 0 6
0.00350000 0.00331552 33877.28469456 0 -12433.00995502 0 -27006.62092104 0 3182.99606499 0 33793.98980548 0 7
0.00450000 0.00420575 36483.93780133 0 -11572.44398381 0 -33317.73380852 0 3193.54379329 0 311.14023887 0 24
0.00550000 0.00557378 57513.73451092 0 -11266.32694804 0 -53085.46321737 0 -11737.03734652 0 -4102.82230150 0 45
0.00650000 0.00659388 53338.56433173 0 -5179.01223258 0 -21117.30625351 0 -32751.08455644 0 -43425.58523531 0 40
0.00750000 0.00754703 73719.74784378 0 -4886.69264581 0 -57801.77289566 0 -9313.74390769 0 -2254.14159417 0 57
0.00850000 0.00846663 59573.03704829 0 -4773.68444011 0 -29083.44754960 0 -26830.93636138 0 -30792.49008735 0 75
0.00950000 0.00948925 73142.34013066 0 994.49661084 0 -38291.91381586 0 -21157.90003434 0 -13722.58342419 0 112
0.01050000 0.01054430 72573.69446312 0 -2964.69912665 0 -17667.61126670 0 -23909.18234931 0 -35095.20903144 0 105
0.01150000 0.01145670 74350.83695014 0 -2328.67443766 0 -29097.42245775 0 -5865.64605325 0 -18374.45324821 0 144
0.01250000 0.01249090 81712.39710058 0 -4622.46706091 0 -12768.62957467 0 -7585.02558656 0 -20710.14841354 0 169
0.01350000 0.01339930 83120.64637710 0 -735.51827122 0 -21612.08454937 0 7715.83516336 0 2464.38632352 0 180
0.01450000 0.01448870 88474.25623203 0 -1217.02594993 0 -8282.30695630 0 3123.82452927 0 5139.59411862 0 267
0.01550000 0.01550050 83853.99631931 0 2027.44861974 0 -10832.04004033 0 -2876.76811725 0 -15207.58378359 0 238
0.01650000 0.01653350 82920.45027218 0 3357.29422503 0 8676.41045746 0 -5436.84928803 0 19399.83440608 0 315
0.01750000 0.01747870 77658.23188010 0 2825.73752009 0 313.12667224 0 -8710.93735356 0 24594.06376087 0 297
0.01850000 0.01844180 77558.85475544 0 2104.79862726 0 16643.45014050 0 107.25908377 0 22357.85663217 0 388
0.01950000 0.01947590 78457.24170825 0 29.08788403 0 27973.32964705 0 -3125.32184086 0 15216.90038902 0 399
0.02050000 0.02045430 78825.46944693 0 757.43558551 0 14376.63130823 0 1905.90019239 0 4287.84564899 0 462
0.02150000 0.02154770 78629.26617291 0 1821.25217728 0 32385.74052896 0 2359.27505004 0 16265.01850063 0 571
0.02250000 0.02255340 76917.56174789 0 685.99496773 0 16466.10190130 0 -1663.00297922 0 6186.01527710 0 510
0.02350000 0.02348930 73810.47383482 0 1845.97445527 0 37222.38969414 0 8172.63720087 0 23794.05572499 0 555
0.02450000 0.02439640 74299.81744417 0 201.71781714 0 21935.28202844 0 -240.89303388 0 -3657.47747043 0 592
0.02550000 0.02547300 73911.40372705 0 1726.82172646 0 33020.71155425 0 5424.52696822 0 20662.23444272 0 837
0.02650000 0.02652900 71217.79563620 0 2702.15940369 0 23514.55756190 0 5179.95498432 0 3723.54773065 0 723
0.02750000 0.02749970 67331.32931357 0 1609.01103248 0 30223.62259588 0 -5346.43385051 0 19112.79422906 0 826
0.02850000 0.02848090 62970.60340944 0 4599.43064485 0 29137.90532661 0 1545.41410917 0 -3927.71448408 0 831
0.02950000 0.02946900 61183.58975714 0 2194.36004261 0 25490.12156231 0 781.68981500 0 6912.00066454 0 996
0.03050000 0.03053250 57293.79607543 0 -903.29258922 0 26172.11926266 0 6049.81537857 0 2861.48444785 0 1041
0.03150000 0.03150510 61251.24605853 0 -1918.94344000 0 13655.92533053 0 10636.56878531 0 6905.16848722 0 1036
0.03250000 0.03246190 60290.74840281 0 -593.18050430 0 15571.04230758 0 5344.49289105 0 5796.61444344 0 1059
0.03350000 0.03345080 59662.21027176 0 1214.07569154 0 2219.53705969 0 7683.95906333 0 5751.12944476 0 1302
0.03450000 0.03451200 57802.54927945 0 1489.35919980 0 9082.43699534 0 -2919.92396457 0 14362.76731204 0 1339
0.03550000 0.03553350 54475.74475483 0 2310.15213875 0 4152.15594552 0 -498.85431074 0 6349.90989440 0 1365
0.03650000 0.03647120 51051.67043297 0 2890.53229266 0 12208.85686469 0 -3867.58910542 0 8720.43141815 0 1308
0.03750000 0.03744890 49033.62714824 0 2205.50669555 0 12201.98032259 0 -8165.96030031 0 4883.35419553 0 1579
0.03850000 0.03847530 48329.77978991 0 1608.90012051 0 19615.78001066 0 1892.70166802 0 1200.47788408 0 1662
0.03950000 0.03950240 45860.65752530 0 51.39693939 0 19544.79635019 0 1051.00071369 0 1129.51640601 0 1683
0.04050000 0.04050350 43795.03300566 0 1449.83017387 0 17561.35759994 0 90.80673495 0 1547.32179505 0 1822
0.04150000 0.04152450 44392.51578526 0 1544.89282292 0 20829.37878073 0 -1126.39977967 0 963.55328048 0 1887
0.04250000 0.04250150 41564.14965149 0 877.62423212 0 22789.63692936 0 961.98831259 0 807.96818793 0 1920
0.04350000 0.04349210 41846.19878989 0 537.43614844 0 20621.75157386 0 486.53310005 0 3098.29259390 0 2005
0.04450000 0.04448520 41062.82754944 0 13.93309434 0 19764.29113779 0 68.89762815 0 -3693.34640136 0 2151
0.04550000 0.04548030 39867.52925433 0 1597.32091089 0 19758.85645129 0 553.93652214 0 1618.87110656 0 2274
0.04650000 0.04648670 39547.77004631 0 99.11869977 0 23860.27017077 0 1395.79386234 0 1059.81599703 0 2311
0.04750000 0.04749250 39577.16171822 0 -325.25156875 0 19561.76588152 0 2185.26526112 0 1477.49161906 0 2568
0.04850000 0.04851840 39240.65480281 0 1215.09608166 0 20344.02800228 0 101.75474455 0 -699.83456328 0 2493
0.04950000 0.04949480 37673.46867403 0 1634.40987349 0 19920.12245492 0 -370.68776616 0 1457.81583568 0 2644
0.05050000 0.05050630 35732.06556021 0 1418.86355200 0 24101.28188046 0 403.29033959 0 5781.97406347 0 2829
0.05150000 0.05149060 35919.17405273 0 477.26085940 0 24096.40175380 0 2555.84433355 0 6842.81377798 0 2784
0.05250000 0.05249300 34945.69969658 0 -273.31260256 0 21196.05375184 0 5323.74126156 0 8960.45601130 0 3055
0.05350000 0.05348950 34031.78506805 0 124.19922343 0 18269.30870114 0 3482.13673788 0 8556.69207760 0 3009
0.05450000 0.05448610 34071.60246509 0 314.14595324 0 17233.72364209 0 1602.23431114 0 13236.12352604 0 3336
0.05550000 0.05550870 34380.27047616 0 -158.94350699 0 16836.21514346 0 3103.67182442 0 12222.94268482 0 3349
0.05650000 0.05647670 34006.94078688 0 -509.83681396 0 12479.59298220 0 810.10878894 0 9612.21910877 0 3324
0.05750000 0.05747970 34959.89642868 0 180.52919449 0 12975.14766185 0 54.33366652 0 8104.12687732 0 3639
0.05850000 0.05849280 34320.48892461 0 80.86957704 0 10618.46795190 0 -102.73520636 0 2632.00758299 0 3846
0.05950000 0.05951020 33989.41669571 0 335.37339508 0 13714.26502648 0 -1705.24934840 0 6933.12939473 0 3787
0.06050000 0.06049470 34748.27639090 0 -185.29951829 0 8825.84215394 0 309.12496838 0 -1177.61892717 0 3930
0.06150000 0.06148310 34001.39518841 0 461.63890850 0 14551.20674819 0 781.14190987 0 2797.27750872 0 4083
0.06250000 0.06249100 33176.98651925 0 1175.52269095 0 12178.13424915 0 -1911.65652360 0 -1483.02612634 0 4303
0.06350000 0.06350600 33470.23776656 0 591.96269088 0 14604.99905339 0 914.20078141 0 2618.12140442 0 4470
0.06450000 0.06451750 30502.34437518 0 783.49102538 0 16760.35135634 0 -676.07721942 0 -1297.51476618 0 4479
0.06550000 0.06550280 31414.70623615 0 1179.49333946 0 16072.47532161 0 -381.33087876 0 3199.89904914 0 4636
0.06650000 0.06648880 29824.45041771 0 22.14490565 0 16305.94501737 0 2505.26847547 0 1762.80156936 0 4653
0.06750000 0.06749660 29224.08392690 0 246.90002614 0 15817.15596786 0 1462.48522959 0 4563.65044350 0 5220
0.06850000 0.06852730 29435.14940483 0 177.96712799 0 12540.04000557 0 706.97507587 0 1835.20490304 0 5029
0.06950000 0.06949320 29466.75931613 0 -38.16181408 0 13395.61493815 0 2833.03552768 0 4979.61469384 0 5040
0.07050000 0.07048030 27963.79121768 0 107.27239320 0 9922.97226486 0 568.27743980 0 3014.12150026 0 5475
0.07150000 0.07148790 29119.27211574 0 -231.92247379 0 10889.42589334 0 763.43481394 0 2943.39293732 0 5509
0.07250000 0.07249820 28178.18405468 0 545.56710493 0 8179.01463912 0 846.41804039 0 2645.27265454 0 5916
0.07350000 0.07351270 27844.00629063 0 252.83714387 0 7222.27689917 0 697.67621635 0 1458.28166595 0 5721
0.07450000 0.07449140 27649.24487222 0 252.35467680 0 7762.34055217 0 1226.85275043 0 2607.16330183 0 6028
0.07550000 0.07549160 27116.09103492 0 0.73299281 0 6862.71138530 0 -56.55478962 0 1794.24511271 0 6183
0.07650000 0.07648840 26535.79961059 0 912.42508078 0 7995.16695850 0 -29.09320780 0 2359.31941483 0 6330
0.07750000 0.07749960 25343.49593866 0 921.93910953 0 8398.76452425 0 -2156.81634095 0 1307.07537795 0 6583
0.07850000 0.07848650 24875.66925138 0 457.61169489 0 9798.22957279 0 -596.28493033 0 1889.77359202 0 6549
0.07950000 0.07947320 24604.15675009 0 170.64915625 0 10115.74835902 0 -217.12016234 0 -1665.54286332 0 6828
0.08050000 0.08048110 24657.39449544 0 11.07651220 0 9914.72041433 0 245.41380575 0 -1094.38171232 0 7147
0.08150000 0.08149960 24507.66333664 0 -73.42117282 0 9844.92351194 0 475.51510500 0 -1437.16402696 0 7386
0.08250000 0.08250610 24521.97098070 0 200.32698104 0 9525.79650215 0 234.17731413 0 -1879.34786689 0 7227
0.08350000 0.08350160 23694.34586443 0 620.06889307 0 8970.44917975 0 145.17822245 0 -1894.72026586 0 7798
0.08450000 0.08449610 23329.66730877 0 570.91603555 0 10753.27035960 0 82.26573692 0 -1114.44346936 0 7371
0.08550000 0.08548940 22098.65535949 0 622.38251675 0 9058.33582437 0 190.90611835 0 -2363.55625206 0 8256
0.08650000 0.08650700 21607.09351074 0 647.66268195 0 10137.69783778 0 379.51303158 0 -1060.42046726 0 8037
0.08750000 0.08749060 20851.33935069 0 591.38705776 0 9188.09173747 0 -8.04075178 0 -1637.40449666 0 8155
0.08850000 0.08849210 19871.09936441 0 159.79198355 0 9349.90120975 0 380.93935950 0 238.95429265 0 8718
0.08950000 0.08949900 20174.22177700 0 -110.25104506 0 8344.51747998 0 1500.55021752 0 -1089.58809700 0 8571
0.09050000 0.09049190 20042.45835726 0 58.37574234 0 7808.47993147 0 590.42656010 0 -558.33750909 0 8932
0.09150000 0.09150830 19929.99362020 0 294.84616143 0 7413.74423209 0 171.74940298 0 143.70752974 0 9285
0.09250000 0.09250820 19109.68869391 0 283.30022541 0 7383.82018272 0 276.71870914 0 -783.57531848 0 9204
0.09350000 0.09350330 19371.10820598 0 116.62393591 0 7644.91805008 0 -23.33077643 0 326.78769952 0 9349
0.09450000 0.09448040 19174.57219606 0 -157.44508628 0 5960.80852306 0 757.82266828 0 -291.00306169 0 9564
0.09550000 0.09549270 19334.72907999 0 139.76793658 0 6926.50795015 0 170.78225061 0 -103.82292004 0 10155
0.09650000 0.09649430 18670.14455885 0 564.88353353 0 6112.60264450 0 -79.69113737 0 -1245.95179157 0 9913
0.09750000 0.09749140 18516.08783324 0 168.48082724 0 6981.54246941 0 87.57442742 0 423.68039606 0 10476
0.09850000 0.09850240 17957.42424296 0 189.47868130 0 6599.53946412 0 308.56929942 0 -785.31663640 0 10575
0.09950000 0.09950330 17846.73409742 0 141.00571416 0 6113.17938674 0 510.26937064 0 -347.64691362 0 10882
0.10050000 0.10051200 17580.32354672 0 264.34093335 0 5449.97017402 0 -104.42872122 0 -1837.85569911 0 10875
0.10150000 0.10150300 16797.61777808 0 531.86504022 0 6183.07610991 0 -745.78317400 0 -1715.24251685 0 11118
0.10250000 0.10250800 16398.33468795 0 570.98147361 0 6551.54785492 0 -235.57591406 0 -1325.16512018 0 11575
0.10350000 0.10349800 15611.41426447 0 153.87039350 0 5501.99897891 0 891.27194996 0 -2298.91675625 0 11364
0.10450000 0.10450100 15636.48036957 0 -84.99372772 0 5727.70483680 0 1106.90589191 0 -1330.95472498 0 12093
0.10550000 0.10551000 15248.28847639 0 328.54676336 0 4765.36604239 0 599.60008910 0 -1081.60021695 0 12067
0.10650000 0.10649700 15276.01646876 0 250.62223184 0 4749.96036983 0 328.19295418 0 914.58897331 0 12054
0.10750000 0.10749900 14683.96837566 0 146.63116925 0 4635.18866381 0 49.96162760 0 -282.38076518 0 12807
0.10850000 0.10850100 14631.39610213 0 65.13760147 0 4472.58062536 0 424.95366547 0 642.19472186 0 12736
0.10950000 0.10950300 14600.67348658 0 -11.90340530 0 4008.65803941 0 24.38333102 0 1.75756652 0 12933
0.11050000 0.11050200 14147.26535534 0 412.77774946 0 4526.90530801 0 121.93218277 0 562.04973271 0 13428
0.11150000 0.11150900 14143.16161247 0 154.17207406 0 4495.29539671 0 214.07784702 0 1461.13210356 0 13453
0.11250000 0.11250000 14080.49634971 0 -328.15080763 0 4264.45431462 0 933.09352630 0 1506.73910542 0 13668
0.11350000 0.11349100 14210.26335400 0 -119.79712736 0 3711.56923795 0 753.58139457 0 2173.00948849 0 13791
0.11450000 0.11448600 14428.64902191 0 -26.69850747 0 3495.95636928 0 133.00674292 0 1741.76156875 0 14205
0.11550000 0.11549300 14640.82361953 0 26.32972517 0 3233.09500160 0 238.09694313 0 2808.76798876 0 14776
0.11650000 0.11649800 14374.85671671 0 80.76731621 0 3411.05325664 0 -192.18936984 0 2561.63393836 0 14553
0.11750000 0.11747300 14597.23521553 0 84.02546622 0 3716.62682376 0 86.84218660 0 2804.46460434 0 14568
0.11850000 0.11849100 14294.66736278 0 168.24902123 0 3432.84745864 0 261.21099757 0 2860.64151689 0 16015
0.11950000 0.11950300 13900.26439930 0 300.26753850 0 3596.63116398 0 -177.83957923 0 2136.54163292 0 15270
0.12050000 0.12050700 13594.03645156 0 382.10615342 0 4353.77172365 0 -294.80290576 0 3482.90203047 0 15999
0.12150000 0.12150000 13402.26965632 0 145.08616552 0 4515.96938782 0 -102.51083144 0 2317.01758967 0 15670
0.12250000 0.12250700 13315.20376028 0 -83.78356722 0 4190.91967886 0 14.56828719 0 2649.73131572 0 16887
0.12350000 0.12352200 13429.22126491 0 0.85969975 0 4570.59353279 0 -206.50588686 0 1939.18487443 0 16407
0.12450000 0.12449800 13411.36443782 0 140.13505520 0 4383.29648992 0 -293.39765111 0 1188.82103609 0 16306
0.12550000 0.12549900 13331.84055570 0 220.17689622 0 4934.02987439 0 -521.67888494 0 759.92445010 0 17523
0.12650000 0.12650100 13129.53712337 0 218.10062415 0 4736.87275743 0 -524.84763991 0 -20.29933048 0 17154
0.12750000 0.12750600 12982.46785183 0 88.01108785 0 5711.15677096 0 189.27238504 0 327.17478230 0 18007
0.12850000 0.12850300 12776.83706041 0 34.97875146 0 5033.61773178 0 215.53633941 0 -137.34894653 0 17496
0.12950000 0.12949900 12742.45434987 0 101.28858154 0 4811.97125197 0 213.16725975 0 -147.29885931 0 18405
0.13050000 0.13049000 12563.10969522 0 131.53715933 0 4853.05304547 0 454.00927412 0 -104.56225923 0 18100
0.13150000 0.13148800 12479.14933432 0 -20.58104688 0 4666.32165365 0 519.64365030 0 288.14486024 0 19059
0.13250000 0.13249300 12548.02566737 0 74.33320195 0 4284.01918604 0 420.82441285 0 417.73995098 0 18957
0.13350000 0.13349100 12310.67405268 0 100.57153566 0 3814.68409598 0 63.37066288 0 693.25526525 0 19468
0.13450000 0.13450700 12111.03250761 0 190.74751424 0 4171.43244582 0 -179.27588923 0 740.08673524 0 19953
0.13550000 0.13551000 12032.72865716 0 217.28098469 0 4423.36898450 0 -266.61019224 0 497.33038028 0 19956
0.13650000 0.13649900 11595.29184952 0 378.28412695 0 4485.89006169 0 -9.15001566 0 495.86079668 0 19723
0.13750000 0.13749600 11358.71661861 0 243.10129119 0 4847.50744699 0 -236.42993623 0 560.11875532 0 20946
0.13850000 0.13851100 10987.58298633 0 199.23117078 0 4690.79992531 0 75.85280684 0 817.43230628 0 20955
0.13950000 0.13949800 10784.80263253 0 127.19717396 0 4985.04938035 0 396.67887709 0 704.55275846 0 20506
0.14050000 0.14048300 10786.34430890 0 64.31485648 0 4585.50010149 0 361.56082020 0 1513.28291162 0 21447
0.14150000 0.14148400 10649.98913362 0 -96.91809538 0 4300.24560717 0 332.55290370 0 705.59422185 0 21771
0.14250000 0.14249400 10604.01612227 0 60.27000786 0 3880.09997558 0 324.20345063 0 1187.12408296 0 22470
0.14350000 0.14350900 10609.50626476 0 25.78681108 0 3753.82669832 0 403.27592104 0 1050.66021395 0 22519
0.14450000 0.14449900 10607.98677078 0 -145.03292777 0 3268.40937269 0 306.66161354 0 1175.94415644 0 22218
0.14550000 0.14550500 10880.15365269 0 -50.29369803 0 3203.58132652 0 617.12307116 0 1312.72079720 0 23559
0.14650000 0.14650700 10677.63948761 0 87.54425937 0 2821.27885892 0 -119.98235035 0 840.52085097 0 23044
0.14750000 0.14750500 10383.50094455 0 270.24255924 0 3023.84847998 0 -71.40545869 0 1376.32881170 0 23649
0.14850000 0.14849900 10361.95074888 0 232.30401096 0 3447.19946749 0 -430.15432772 0 1180.10335529 0 23640
0.14950000 0.14949500 10064.05229004 0 125.20297675 0 3210.32477427 0 104.45733651 0 839.28085515 0 24457
0.15050000 0.15050000 9946.46342000 0 141.10442581 0 3592.78251863 0 118.11348366 0 1209.87212790 0 24591
0.15150000 0.15149900 9838.60152968 0 -32.07352333 0 2877.87723694 0 430.81314482 0 1458.12638919 0 25020
0.15250000 0.15250500 9807.09143915 0 -13.78713419 0 2822.13288108 0 658.69176820 0 1656.47026422 0 25297
0.15350000 0.15350100 9836.73820859 0 92.60051423 0 2353.61853959 0 263.15639351 0 1608.45647263 0 25452
0.15450000 0.15450400 9629.12209292 0 123.77997618 0 2109.31274442 0 65.15656742 0 1996.44872427 0 26061
0.15550000 0.15549900 9351.90871639 0 179.52211380 0 2444.98782005 0 -168.37102439 0 1369.68518473 0 26128
0.15650000 0.15649500 9244.34628839 0 172.96721641 0 2130.79639290 0 -214.69229933 0 1671.19937376 0 26331
0.15750000 0.15749700 9033.91300869 0 54.30250026 0 2295.12356689 0 212.07921333 0 1140.04195191 0 27345
0.15850000 0.15849900 9099.87235694 0 -34.05784938 0 1935.70223859 0 269.06134677 0 1394.64037786 0 26980
0.15950000 0.15949700 9054.70900297 0 -7.28107133 0 1999.66517139 0 334.78445252 0 1020.29029846 0 27777
0.16050000 0.16050000 9082.75864005 0 119.84260126 0 1687.29270054 0 -223.23695746 0 1054.07075701 0 28224
0.16150000 0.16150500 8697.76101158 0 211.64887488 0 1881.42192072 0 -409.49142781 0 540.25331247 0 28075
0.16250000 0.16249700 8776.68596907 0 99.17770493 0 2134.21248156 0 -240.05343027 0 721.17402621 0 28590
0.16350000 0.16349900 8573.89452407 0 -69.74488468 0 1904.65797833 0 217.13901737 0 354.02102451 0 29163
0.16450000 0.16449100 8994.49489474 0 -124.49646750 0 1701.78889495 0 301.28127390 0 -50.25476793 0 28996
0.16550000 0.16550500 8743.34583104 0 10.59035177 0 1628.47608312 0 131.32420835 0 -94.85568731 0 30777
0.16650000 0.16650700 8703.41752203 0 136.56590802 0 1162.31307539 0 26.72900826 0 -340.21802991 0 29211
0.16750000 0.16749900 8761.96795072 0 37.69853478 0 1281.96490806 0 -60.99714674 0 -336.58566291 0 30922
0.16850000 0.16850800 8578.77465072 0 55.09984641 0 1096.76077406 0 119.67179683 0 -319.38210732 0 30867
0.16950000 0.16949900 8445.38082503 0 183.35744971 0 1389.40533290 0 114.27925688 0 -204.03144082 0 30852
0.17050000 0.17049200 8301.84964532 0 73.04950681 0 829.86221070 0 -56.94187240 0 -239.31475655 0 31257
0.17150000 0.17149500 8139.37470123 0 136.08565920 0 1375.53024552 0 17.75090616 0 -301.71493970 0 32608
0.17250000 0.17250900 8051.07768232 0 235.45945649 0 1232.67562883 0 -388.73868920 0 -193.35949112 0 32361
0.17350000 0.17350400 7763.58276623 0 189.96669397 0 1920.69584911 0 -135.93149156 0 25.79158030 0 32508
0.17450000 0.17449800 7734.84547493 0 -21.35865070 0 1616.32013126 0 10.42066755 0 75.20064446 0 32791
0.17550000 0.17549800 7906.43738292 0 -73.74048838 0 1992.02333669 0 215.74263568 0 -2.58502527 0 33633
0.17650000 0.17650100 7904.50751465 0 -32.71104534 0 1638.08105968 0 192.20267927 0 297.48586631 0 33984
0.17750000 0.17750300 7896.61058242 0 38.07463727 0 1660.13035921 0 212.67924708 0 449.27111478 0 34069
0.17850000 0.17849800 7919.90209601 0 60.35596464 0 1644.17012680 0 85.77432616 0 635.33925302 0 34536
