### header ###
fiducial parameters:
Omega_m = 0.31
Omega_nu = 0
Omega_de = 0.69
Omega_k = 0
H_0 = 100
w_de = -1
zeff = 0
beta = 0
fgrowth = 0
b_1 = 2
gamma = 0.55
Lx = 3500 Ly = 3500 Lz = 3500
nx = 700 ny = 700 nz = 700
xoffset = 1379.75464 yoffset = 22.6059522 zoffset = 368.141391
bins = 400 dk = 0.001
kx_ny = 0.628318531 ky_ny = 0.628318531 kz_ny = 0.628318531
############################
A(data) = 3.3242019 (not used)
A(ran) = 3.31650066 (used)
Ngal = 185950
weighted Ngal = 0
Nran = 9399747
weighted Nran = 0
SN(data) = 6690.96766
SN(ran) = 131.915084
SN(data+ran) = 6822.88274
############################
13 columns: k_central k_mean P_0(k) sigma^{lin}_{P_0(k)} P^img_1(k) sigma^{lin}_{P_1(k)} P_2(k) sigma^{lin}_{P_2(k)} P^img_3(k) sigma^{lin}_{P_3(k)} P_4(k) sigma^{lin}_{P_4(k)} N_modes
### header ###
0.00050000 0 0 0 0 0 0 0 0 0 0 0 0
0.00150000 0.00179520 28594.21485221 0 -5023.99057283 0 -23454.88692231 0 36351.84164568 0 117816.23958249 0 3
0.00250000 0.00253879 48928.70442511 0 -7027.29365682 0 11505.78589015 0 -30851.71707905 0 -28533.43509294 0 6
0.00350000 0.00331552 52518.14849347 0 -6095.02309734 0 -6419.47388166 0 3194.27581229 0 21229.32734268 0 7
0.00450000 0.00420575 61130.90657164 0 -4798.43999169 0 17841.07758697 0 -2383.17657946 0 18778.83828894 0 24
0.00550000 0.00557378 78262.48028983 0 -9162.60416688 0 15965.00162318 0 15990.06772828 0 43186.68085305 0 45
0.00650000 0.00659388 70343.80931668 0 -4096.23413051 0 7732.86015068 0 46426.08674572 0 -59731.86298859 0 40
0.00750000 0.00754703 99018.98990662 0 -3013.21202211 0 -1404.77773187 0 -9990.06291520 0 43181.91163836 0 57
0.00850000 0.00846663 76656.14223582 0 6144.10164383 0 25824.29932636 0 -567.78831801 0 11489.92547851 0 75
0.00950000 0.00948925 82721.69602287 0 8255.49953327 0 34235.97400387 0 5397.75281879 0 33009.62035730 0 112
0.01050000 0.01054430 77829.47996098 0 -3470.51316348 0 23256.68723285 0 -9331.83364992 0 -18044.04649112 0 105
0.01150000 0.01145670 82044.13480130 0 -2850.89235477 0 37673.02502615 0 3340.38014968 0 -2092.74249618 0 144
0.01250000 0.01249090 84232.64978312 0 713.47340817 0 33997.73509342 0 -12342.17305201 0 -16775.43538419 0 169
0.01350000 0.01339930 78744.06006133 0 4351.78639939 0 27887.04013479 0 -579.92208747 0 -14577.82562087 0 180
0.01450000 0.01448870 82276.49537737 0 1538.83702938 0 42677.70582510 0 -3965.87929278 0 -15794.08627821 0 267
0.01550000 0.01550050 81372.67373806 0 2822.52107297 0 58260.17206553 0 -4819.60199547 0 -41408.42924634 0 238
0.01650000 0.01653350 76653.81308446 0 2649.96423085 0 45309.42503697 0 6667.00721515 0 -13760.29349381 0 315
0.01750000 0.01747870 81786.48629619 0 -874.88581559 0 53351.09738428 0 -8604.05148857 0 -35445.91267895 0 297
0.01850000 0.01844180 76637.73084889 0 2461.52479470 0 39110.44415064 0 6209.88353293 0 -8897.32491827 0 388
0.01950000 0.01947590 75913.91933605 0 2555.97742791 0 53290.53944894 0 4497.60236567 0 -19944.96673608 0 399
0.02050000 0.02045430 72953.78978254 0 4595.93691781 0 46895.46620057 0 -3111.34693270 0 -14485.10321438 0 462
0.02150000 0.02154770 68188.01336586 0 3137.24487758 0 44501.87498717 0 6391.00277910 0 -14065.07958595 0 571
0.02250000 0.02255340 64814.95854996 0 2897.94121222 0 49403.07491859 0 913.50203601 0 -14340.14127027 0 510
0.02350000 0.02348930 62243.24271358 0 929.10624099 0 39629.06851994 0 7033.26072078 0 -5518.40285919 0 555
0.02450000 0.02439640 64156.69601109 0 -1463.16179261 0 39922.09794331 0 10606.60037116 0 -14794.76943317 0 592
0.02550000 0.02547300 62485.36354296 0 549.99692899 0 31043.92752217 0 7743.51879095 0 -1672.39722303 0 837
0.02650000 0.02652900 61549.82108037 0 2708.49247715 0 32966.36468920 0 4465.34916495 0 -6957.99585829 0 723
0.02750000 0.02749970 57834.38101469 0 1230.44629824 0 26317.08120677 0 -761.84433630 0 603.73599644 0 826
0.02850000 0.02848090 57945.29298417 0 318.54472195 0 26661.24104808 0 8434.03453055 0 2671.73625046 0 831
0.02950000 0.02946900 58788.66760011 0 -2542.86763312 0 20058.87332874 0 6471.66905450 0 1354.00223224 0 996
0.03050000 0.03053250 63187.99086963 0 -1527.97874757 0 18739.46453978 0 5531.98957546 0 8704.79283045 0 1041
0.03150000 0.03150510 60825.34409572 0 1534.92183686 0 9258.96448597 0 -3858.18377041 0 -13030.27091068 0 1036
0.03250000 0.03246190 59587.01195645 0 5332.37021278 0 24612.25332386 0 -7775.63889731 0 10730.40031150 0 1059
0.03350000 0.03345080 52404.24190081 0 3476.53568342 0 20063.42071949 0 -4539.62691091 0 -11236.15889234 0 1302
0.03450000 0.03451200 52442.83926619 0 -615.56364887 0 28410.87736666 0 7161.95187897 0 6340.69310974 0 1339
0.03550000 0.03553350 52120.52908287 0 -2428.52848378 0 16626.14787326 0 8009.89606805 0 -8784.84909002 0 1365
0.03650000 0.03647120 54855.28551440 0 305.78540898 0 19957.05614075 0 3176.52989717 0 139.59491391 0 1308
0.03750000 0.03744890 53170.19996205 0 1886.09131464 0 13676.11130898 0 -2365.00919886 0 -3302.39280014 0 1579
0.03850000 0.03847530 49903.73154883 0 1361.91025567 0 16618.38403540 0 -926.37337007 0 -2380.61451297 0 1662
0.03950000 0.03950240 48938.68650237 0 972.71571827 0 15970.32539772 0 1776.22191767 0 -3467.35217235 0 1683
0.04050000 0.04050350 45860.87934924 0 2160.32115918 0 17196.12448443 0 -445.04758698 0 -5878.02382904 0 1822
0.04150000 0.04152450 45042.34901446 0 2219.24868857 0 18246.68265937 0 660.97544565 0 -2197.57648973 0 1887
0.04250000 0.04250150 40900.89607399 0 1382.59533797 0 17740.14769474 0 13.65670171 0 -6438.37328126 0 1920
0.04350000 0.04349210 38793.01409398 0 1666.07524077 0 18110.37184887 0 -34.35453890 0 327.45982606 0 2005
0.04450000 0.04448520 38491.55536093 0 -239.29035592 0 17260.00977885 0 3399.31877027 0 174.58098556 0 2151
0.04550000 0.04548030 39380.51479633 0 -1333.00659642 0 10346.57834991 0 4278.96160023 0 -1723.08399309 0 2274
0.04650000 0.04648670 40692.71430727 0 -419.76187618 0 12388.09060738 0 2985.57275931 0 -838.89377238 0 2311
0.04750000 0.04749250 39071.07040147 0 1533.03633338 0 10118.49897586 0 -2171.93364239 0 -340.14815537 0 2568
0.04850000 0.04851840 37567.21500726 0 1505.86290086 0 10803.44693460 0 -1613.13695774 0 680.97287375 0 2493
0.04950000 0.04949480 36128.24311520 0 386.00470915 0 12415.59677581 0 1781.64551297 0 -3206.66467928 0 2644
0.05050000 0.05050630 36852.05462804 0 -1189.85251741 0 10484.44192797 0 3706.66692890 0 2144.77130106 0 2829
0.05150000 0.05149060 36728.16595813 0 -298.93215839 0 7367.37193764 0 1898.21399290 0 2507.89708914 0 2784
0.05250000 0.05249300 37247.01215137 0 740.19431985 0 6976.80652831 0 2093.75179510 0 2279.18551688 0 3055
0.05350000 0.05348950 37261.20888346 0 266.72886805 0 6589.31338053 0 -1329.29104544 0 2120.55921812 0 3009
0.05450000 0.05448610 36238.04596499 0 96.94859617 0 8452.49028227 0 96.19661302 0 7144.05068709 0 3336
0.05550000 0.05550870 36157.41296318 0 809.34127811 0 9559.55810566 0 -164.75085771 0 4046.65648015 0 3349
0.05650000 0.05647670 34629.15693568 0 961.52248231 0 8189.69546178 0 -1944.60846973 0 5069.96358418 0 3324
0.05750000 0.05747970 34629.93331947 0 735.05133183 0 11691.34161509 0 1387.70837977 0 5382.70206453 0 3639
0.05850000 0.05849280 33743.30303543 0 -206.95840769 0 12208.63504076 0 1308.01812969 0 6356.15423828 0 3846
0.05950000 0.05951020 33556.63819079 0 440.79411295 0 10107.38559652 0 1870.76328045 0 6143.89091109 0 3787
0.06050000 0.06049470 34062.17494769 0 644.21331970 0 11733.82089940 0 -1324.99875222 0 5979.13118042 0 3930
0.06150000 0.06148310 31209.96274048 0 1589.90090013 0 10540.61884052 0 -1851.27604742 0 3915.42543786 0 4083
0.06250000 0.06249100 30437.23904910 0 1356.53102515 0 14186.75001647 0 -1478.22363806 0 4311.41444250 0 4303
0.06350000 0.06350600 29126.25956982 0 101.85811450 0 12537.48903027 0 1156.26837305 0 3448.67459669 0 4470
0.06450000 0.06451750 29209.11081102 0 -249.16595768 0 13078.29579347 0 2279.72898553 0 1736.79271252 0 4479
0.06550000 0.06550280 28840.77216037 0 379.96444329 0 10865.97910299 0 1060.36833864 0 -133.86298333 0 4636
0.06650000 0.06648880 28737.29129284 0 840.86135071 0 10468.79224908 0 -1796.36353132 0 591.17965238 0 4653
0.06750000 0.06749660 27529.57085715 0 546.21926731 0 11955.20119049 0 -272.99428520 0 1337.62053435 0 5220
0.06850000 0.06852730 27229.66489167 0 -229.30051483 0 11991.80214042 0 1494.71624792 0 595.36547010 0 5029
0.06950000 0.06949320 27748.06743703 0 -189.35889638 0 10147.33608793 0 1574.88341947 0 1509.47863106 0 5040
0.07050000 0.07048030 27016.38117436 0 203.28833062 0 9705.28534236 0 1337.33216323 0 2943.63694365 0 5475
0.07150000 0.07148790 27611.64571457 0 -13.32385489 0 9194.22516938 0 931.04941870 0 2718.75183433 0 5509
0.07250000 0.07249820 27848.77550532 0 -135.62870188 0 9575.93980355 0 778.37798359 0 4004.56538773 0 5916
0.07350000 0.07351270 27067.73341623 0 842.61375983 0 10324.73978312 0 -688.73782073 0 2794.70435103 0 5721
0.07450000 0.07449140 25889.84830033 0 1036.21836640 0 9819.20302622 0 -1403.35805866 0 2277.39983417 0 6028
0.07550000 0.07549160 25003.21801629 0 705.93915808 0 11390.32652992 0 -726.19722930 0 2826.05916480 0 6183
0.07650000 0.07648840 24528.84752281 0 300.52818163 0 11604.16480708 0 459.39183200 0 2193.08455497 0 6330
0.07750000 0.07749960 23975.06405919 0 -183.28868429 0 10292.54203837 0 1662.50387536 0 1777.71922926 0 6583
0.07850000 0.07848650 24344.95547741 0 -209.32859648 0 9761.19606618 0 1202.36338757 0 1234.53894991 0 6549
0.07950000 0.07947320 24211.41746615 0 -18.17813906 0 7498.14824086 0 1266.31522917 0 1411.76518595 0 6828
0.08050000 0.08048110 24239.36728246 0 161.54661091 0 6480.45328248 0 531.53674079 0 -106.72005160 0 7147
0.08150000 0.08149960 24243.47102533 0 102.06618536 0 5737.44290772 0 618.28321036 0 1055.40170064 0 7386
0.08250000 0.08250610 22635.02564390 0 713.61204813 0 5567.79195920 0 -105.15508371 0 -205.15830643 0 7227
0.08350000 0.08350160 22971.97620719 0 382.26808490 0 5652.57306868 0 -26.30698822 0 989.17283631 0 7798
0.08450000 0.08449610 21482.98301689 0 395.10836360 0 5366.04308672 0 411.48784326 0 -67.96641125 0 7371
0.08550000 0.08548940 21872.39494174 0 441.51060428 0 6230.63516242 0 -667.90855286 0 -217.32202212 0 8256
0.08650000 0.08650700 20683.64045283 0 441.77679300 0 6616.22062433 0 -515.92366284 0 -224.44367968 0 8037
0.08750000 0.08749060 20818.06575984 0 278.46113618 0 7054.50036293 0 215.01948964 0 -198.37714862 0 8155
0.08850000 0.08849210 20350.46089651 0 -67.75878404 0 7397.35144300 0 461.89733339 0 1568.30633968 0 8718
0.08950000 0.08949900 21110.54062337 0 -135.00315837 0 7080.52031097 0 651.32277695 0 11.88455027 0 8571
0.09050000 0.09049190 20467.14028840 0 331.06224683 0 6820.63138408 0 268.62546273 0 1536.88497872 0 8932
0.09150000 0.09150830 19864.44464624 0 687.41020446 0 6959.17152516 0 -674.48674177 0 953.62333185 0 9285
0.09250000 0.09250820 19736.56314542 0 229.07314529 0 7693.77477263 0 -106.48059265 0 694.49637019 0 9204
0.09350000 0.09350330 19162.70461532 0 48.13368743 0 7895.98947539 0 10.50227657 0 665.33428605 0 9349
0.09450000 0.09448040 19399.94531804 0 85.30128661 0 7484.19551510 0 338.77617430 0 361.04729778 0 9564
0.09550000 0.09549270 19140.30039749 0 26.00198030 0 7271.47744883 0 -291.78499107 0 -469.18979538 0 10155
0.09650000 0.09649430 19511.19002344 0 72.76978683 0 7402.56430556 0 440.21847983 0 266.57802777 0 9913
0.09750000 0.09749140 18944.09712347 0 127.72622406 0 6561.88485048 0 422.04000803 0 -894.73240341 0 10476
0.09850000 0.09850240 19187.43798452 0 245.59237402 0 7790.64528678 0 194.74699985 0 204.87548091 0 10575
0.09950000 0.09950330 18461.51914426 0 279.96953897 0 6200.99948418 0 587.20124003 0 -58.26405398 0 10882
0.10050000 0.10051200 18090.07495846 0 332.26342346 0 7078.97863460 0 269.91204157 0 651.73647859 0 10875
0.10150000 0.10150300 17557.25385707 0 404.81648829 0 5829.01182973 0 402.57939387 0 -213.39684752 0 11118
0.10250000 0.10250800 17170.72564342 0 243.08909087 0 6464.11594938 0 899.66798605 0 1988.52960965 0 11575
0.10350000 0.10349800 16587.88324379 0 329.44404119 0 5312.43933187 0 439.77594107 0 728.62398320 0 11364
0.10450000 0.10450100 16175.06889338 0 241.93227903 0 5319.39351235 0 172.47143990 0 969.57025482 0 12093
0.10550000 0.10551000 15590.89555012 0 578.34491927 0 5648.43605222 0 -431.55958238 0 451.44388026 0 12067
0.10650000 0.10649700 15000.73296050 0 612.10208630 0 5841.99962136 0 -446.42844100 0 1550.27205344 0 12054
0.10750000 0.10749900 14365.65102325 0 37.04171410 0 6048.08515185 0 111.89686777 0 517.97220692 0 12807
0.10850000 0.10850100 14669.10617175 0 -156.21950902 0 5960.18741604 0 481.36682051 0 808.82331921 0 12736
0.10950000 0.10950300 14992.52547476 0 7.69746814 0 5753.59169048 0 335.04287741 0 291.81604643 0 12933
0.11050000 0.11050200 14707.70353713 0 127.55209226 0 5875.70576888 0 -333.89826589 0 432.26830986 0 13428
0.11150000 0.11150900 14973.33770404 0 136.35628440 0 6527.01412727 0 -289.05101103 0 1078.88731018 0 13453
0.11250000 0.11250000 14578.49109268 0 152.29100706 0 6324.88815409 0 172.81304877 0 711.03112660 0 13668
0.11350000 0.11349100 14604.22266960 0 221.31928950 0 6712.03747476 0 214.59580591 0 1594.99175953 0 13791
0.11450000 0.11448600 14217.25080808 0 126.22003951 0 6631.81484724 0 119.35237036 0 1068.00130038 0 14205
0.11550000 0.11549300 14254.62814179 0 203.77634329 0 6959.72608501 0 -8.03160154 0 1978.74717394 0 14776
0.11650000 0.11649800 13854.23593196 0 83.04101158 0 6093.82524806 0 528.92587302 0 1474.71881983 0 14553
0.11750000 0.11747300 13980.23192930 0 -62.73680098 0 6793.82396106 0 674.67418300 0 2323.88304058 0 14568
0.11850000 0.11849100 13691.86080864 0 32.60279525 0 5257.77082211 0 511.60585987 0 2088.82730365 0 16015
0.11950000 0.11950300 13981.45196096 0 71.90600441 0 5891.98764600 0 648.97587967 0 2245.57919012 0 15270
0.12050000 0.12050700 13578.17603992 0 -93.49590656 0 4472.25898064 0 560.43929091 0 2294.21408874 0 15999
0.12150000 0.12150000 13748.31500111 0 20.48022790 0 4567.66545679 0 719.95399454 0 2534.85978893 0 15670
0.12250000 0.12250700 13680.10413988 0 132.45440131 0 3938.24002998 0 -75.19121694 0 2555.97742791 0 16887
0.12350000 0.12352200 13372.32342456 0 201.86754830 0 4240.18677570 0 -36.47772673 0 2169.42703188 0 16407
0.12450000 0.12449800 13132.19901063 0 186.13579454 0 3950.46252902 0 318.91184057 0 2311.12816409 0 16306
0.12550000 0.12549900 12704.74428025 0 252.28036578 0 3730.42427276 0 -523.94481647 0 1555.45164241 0 17523
0.12650000 0.12650100 12673.24528092 0 176.45872521 0 4266.46182127 0 391.26859122 0 1801.72057945 0 17154
0.12750000 0.12750600 12254.66350809 0 233.02715700 0 4022.56640038 0 -249.91017700 0 729.36487515 0 18007
0.12850000 0.12850300 11922.26033555 0 197.32792138 0 4033.55777655 0 -97.15300693 0 1001.78019988 0 17496
0.12950000 0.12949900 11891.09407213 0 19.99997907 0 3634.85142866 0 361.30017707 0 997.66869317 0 18405
0.13050000 0.13049000 11879.00466745 0 -33.13140170 0 3995.37078546 0 50.17590952 0 316.69581942 0 18100
0.13150000 0.13148800 11997.23682692 0 18.58973338 0 3576.30099997 0 -146.88404854 0 561.56504740 0 19059
0.13250000 0.13249300 11961.85590866 0 38.86355411 0 3698.47053435 0 109.28200718 0 86.51921095 0 18957
0.13350000 0.13349100 11830.53613679 0 104.71465228 0 3467.58508748 0 -10.35820192 0 490.11112018 0 19468
0.13450000 0.13450700 11832.86528815 0 9.46112373 0 3735.14912266 0 91.36539854 0 109.14336722 0 19953
0.13550000 0.13551000 12063.11853680 0 -81.64485171 0 3806.45442784 0 456.72883561 0 1222.91537551 0 19956
0.13650000 0.13649900 11778.62933507 0 4.97942614 0 3290.81359052 0 457.48747348 0 969.99172030 0 19723
0.13750000 0.13749600 12018.53192506 0 30.78317348 0 3314.58202558 0 214.97401573 0 969.60907401 0 20946
0.13850000 0.13851100 12007.44072812 0 11.53118473 0 2985.72803607 0 69.78448025 0 1141.56144590 0 20955
0.13950000 0.13949800 11923.14763131 0 80.89652865 0 3428.31115909 0 -244.72393330 0 1062.05309145 0 20506
0.14050000 0.14048300 11921.81668767 0 182.10747181 0 3243.07707886 0 -367.53121151 0 818.84976125 0 21447
0.14150000 0.14148400 11564.34741003 0 152.06031016 0 3093.66756477 0 -40.78077841 0 305.74880803 0 21771
0.14250000 0.14249400 11506.78409787 0 108.03147472 0 3443.49500771 0 114.11621628 0 285.59832142 0 22470
0.14350000 0.14350900 11335.31419305 0 91.77000541 0 2922.13111277 0 420.81775813 0 111.59740545 0 22519
0.14450000 0.14449900 11263.22141289 0 154.46377254 0 3182.92951781 0 268.68757343 0 251.95539371 0 22218
0.14550000 0.14550500 10916.18895158 0 238.85669012 0 2367.03888790 0 -271.50030098 0 35.66729297 0 23559
0.14650000 0.14650700 10648.76910196 0 208.98366026 0 3067.40361039 0 97.81370953 0 252.01639530 0 23044
0.14750000 0.14750500 10421.68793564 0 64.43985427 0 2579.33548869 0 17.96064069 0 216.41254397 0 23649
0.14850000 0.14849900 10281.21792629 0 153.97686899 0 3187.06653427 0 111.66173440 0 287.88643535 0 23640
0.14950000 0.14949500 10080.02361365 0 269.58041478 0 2699.29787488 0 -233.74808480 0 -195.88495666 0 24457
0.15050000 0.15050000 9814.15653160 0 161.07967152 0 3135.03772938 0 -168.87456473 0 223.37337918 0 24591
0.15150000 0.15149900 9780.10655697 0 3.20964821 0 3337.40770890 0 160.66153339 0 48.76156009 0 25020
0.15250000 0.15250500 9692.58592185 0 71.14592468 0 3234.63667798 0 -2.93232392 0 36.04517005 0 25297
0.15350000 0.15350100 9714.73504216 0 54.26057553 0 3124.10180919 0 -25.48490870 0 -208.04312676 0 25452
0.15450000 0.15450400 9671.77883638 0 -4.96281153 0 3079.85902457 0 171.09391324 0 -36.88277724 0 26061
0.15550000 0.15549900 9569.27399418 0 102.80818643 0 3016.55047239 0 250.13643741 0 -6.62002490 0 26128
0.15650000 0.15649500 9620.84805999 0 23.99125721 0 2657.19569126 0 198.90398047 0 -51.80975374 0 26331
0.15750000 0.15749700 9362.77808940 0 98.33854497 0 2867.14095830 0 234.06085656 0 -173.71143572 0 27345
0.15850000 0.15849900 9220.47803256 0 207.65160750 0 2522.82584024 0 19.71948270 0 500.01223170 0 26980
0.15950000 0.15949700 9015.37961859 0 128.27523830 0 2598.62308018 0 92.63290053 0 182.79512602 0 27777
0.16050000 0.16050000 8922.25792901 0 4.33845478 0 2447.42788338 0 248.97740733 0 690.84958463 0 28224
0.16150000 0.16150500 8951.33904741 0 66.20956565 0 2536.55674206 0 267.36993923 0 477.51484781 0 28075
0.16250000 0.16249700 8753.57191463 0 59.35099129 0 2066.82236891 0 132.77493691 0 893.45913400 0 28590
0.16350000 0.16349900 8793.72204758 0 102.54765422 0 2418.40222097 0 -156.40916848 0 833.86169632 0 29163
0.16450000 0.16449100 8624.81420926 0 70.65769019 0 2372.42920962 0 -93.26265869 0 823.91178354 0 28996
0.16550000 0.16550500 8538.59124418 0 183.08238802 0 2782.57058157 0 -236.53530260 0 835.34791671 0 30777
0.16650000 0.16650700 8638.27892235 0 -16.74260544 0 2709.49068488 0 152.94871504 0 565.43698426 0 29211
0.16750000 0.16749900 8471.35640828 0 18.95696291 0 2615.16005483 0 -25.66469700 0 505.27056817 0 30922
0.16850000 0.16850800 8553.51999527 0 121.04932349 0 3035.12822728 0 -18.12479040 0 705.68516967 0 30867
0.16950000 0.16949900 8245.15144652 0 137.72826546 0 2642.52203770 0 84.02801720 0 725.50624773 0 30852
0.17050000 0.17049200 8240.84806210 0 100.07786648 0 2786.00885262 0 235.77444649 0 680.85308882 0 31257
0.17150000 0.17149500 8096.18558031 0 24.78782697 0 2762.27369115 0 103.48075661 0 624.64733917 0 32608
0.17250000 0.17250900 7994.91186098 0 46.85298692 0 2471.26286562 0 428.51061233 0 1293.88794478 0 32361
0.17350000 0.17350400 7961.99318843 0 111.53196739 0 2168.28463859 0 185.36828372 0 1003.18656365 0 32508
0.17450000 0.17449800 7902.97692947 0 80.18979758 0 2022.11375401 0 -3.24119158 0 1361.22260146 0 32791
0.17550000 0.17549800 7705.28743507 0 112.70763427 0 2440.76207402 0 26.05843449 0 879.11267075 0 33633
0.17650000 0.17650100 7569.65318759 0 95.93974090 0 1809.63969407 0 -61.32378249 0 1269.52058509 0 33984
0.17750000 0.17750300 7461.21455502 0 53.18328757 0 2463.27720382 0 -182.02317872 0 940.73092451 0 34069
0.17850000 0.17849800 7573.74583926 0 -40.78954046 0 1933.45072561 0 147.93438490 0 630.75969780 0 34536
