### header ###
fiducial parameters:
Omega_m = 0.31
Omega_nu = 0
Omega_de = 0.69
Omega_k = 0
H_0 = 100
w_de = -1
zeff = 0
beta = 0
fgrowth = 0
b_1 = 2
gamma = 0.55
Lx = 3500 Ly = 3500 Lz = 3500
nx = 700 ny = 700 nz = 700
xoffset = 1379.75464 yoffset = 22.6059522 zoffset = 368.141391
bins = 400 dk = 0.001
kx_ny = 0.628318531 ky_ny = 0.628318531 kz_ny = 0.628318531
############################
A(data) = 3.33729471 (not used)
A(ran) = 3.33288994 (used)
Ngal = 187413
weighted Ngal = 0
Nran = 9399747
weighted Nran = 0
SN(data) = 6679.97126
SN(ran) = 132.566973
SN(data+ran) = 6812.53823
############################
13 columns: k_central k_mean P_0(k) sigma^{lin}_{P_0(k)} P^img_1(k) sigma^{lin}_{P_1(k)} P_2(k) sigma^{lin}_{P_2(k)} P^img_3(k) sigma^{lin}_{P_3(k)} P_4(k) sigma^{lin}_{P_4(k)} N_modes
### header ###
0.00050000 0 0 0 0 0 0 0 0 0 0 0 0
0.00150000 0.00179520 32766.94496807 0 -26537.68511407 0 -53050.96959486 0 36301.70943547 0 -13068.53554015 0 3
0.00250000 0.00253879 65493.29615532 0 -28374.83097658 0 -24944.10193655 0 -19067.09849763 0 -715.37998492 0 6
0.00350000 0.00331552 85171.63051676 0 -25303.01306980 0 -31458.29464015 0 -47059.28317949 0 18602.26643353 0 7
0.00450000 0.00420575 98752.91209183 0 -5952.20175423 0 -21303.52745027 0 -28901.55191965 0 13150.83222151 0 24
0.00550000 0.00557378 109354.43269479 0 -6094.42417270 0 -33147.81667127 0 -9284.39660057 0 16583.00311714 0 45
0.00650000 0.00659388 87790.37302821 0 4348.13739560 0 24996.00873827 0 -1067.86044217 0 -17917.16319804 0 40
0.00750000 0.00754703 106211.85295148 0 9418.87736357 0 -21452.92587316 0 -11931.46602902 0 11714.96586459 0 57
0.00850000 0.00846663 90664.10215749 0 1078.12867231 0 30121.69449592 0 3293.50875138 0 23644.99003801 0 75
0.00950000 0.00948925 81761.53110306 0 9301.65450302 0 5913.19401457 0 3107.48719617 0 11654.62975319 0 112
0.01050000 0.01054430 76172.12240100 0 2057.90504656 0 32371.32197293 0 852.47161568 0 48807.47764247 0 105
0.01150000 0.01145670 82963.92776422 0 -2990.06469407 0 2301.92247062 0 45254.96725995 0 54023.00209540 0 144
0.01250000 0.01249090 85651.87934462 0 -14745.52451872 0 6619.93617530 0 36871.90787058 0 56054.68755238 0 169
0.01350000 0.01339930 100308.67428776 0 -8878.93571373 0 -19287.70240493 0 20077.61745158 0 33935.51347854 0 180
0.01450000 0.01448870 100804.33987937 0 5581.54504342 0 -14469.90827456 0 -16048.40742423 0 48916.50410847 0 267
0.01550000 0.01550050 87023.19493530 0 15502.83144635 0 11141.10733449 0 -28439.04900691 0 30487.03852340 0 238
0.01650000 0.01653350 75198.20439698 0 7862.17241590 0 14686.18661505 0 -2015.71413337 0 44590.60456276 0 315
0.01750000 0.01747870 72617.17195516 0 527.73578759 0 27953.92005239 0 7511.42440361 0 15357.53676633 0 297
0.01850000 0.01844180 69252.43553698 0 -498.99405982 0 14334.26293588 0 10755.78806131 0 25361.35276574 0 388
0.01950000 0.01947590 67461.20722984 0 3734.50583324 0 12963.72372899 0 2711.48710033 0 11079.75083297 0 399
0.02050000 0.02045430 64340.58805649 0 1589.19106353 0 9207.47914973 0 2099.77431504 0 30561.23863098 0 462
0.02150000 0.02154770 63268.95660735 0 -3012.38018233 0 1954.06926073 0 13098.03812403 0 24554.02453988 0 571
0.02250000 0.02255340 65964.22837774 0 -2123.75348284 0 -1637.83705334 0 6646.22231207 0 17949.77131706 0 510
0.02350000 0.02348930 69710.50197094 0 1661.64985319 0 -11478.05789778 0 -436.45412759 0 15609.86149690 0 555
0.02450000 0.02439640 62695.98537300 0 1163.07836798 0 -4196.14363262 0 -1125.06883603 0 10409.28797745 0 592
0.02550000 0.02547300 59011.37883484 0 4103.13285501 0 -3802.15104343 0 -5546.48576987 0 19003.54593912 0 837
0.02650000 0.02652900 57098.92374505 0 2451.03252239 0 1396.81425246 0 -4299.04775790 0 7410.15068427 0 723
0.02750000 0.02749970 53385.92374270 0 2313.91205452 0 2845.34675629 0 -1127.86381766 0 5633.48511873 0 826
0.02850000 0.02848090 51428.32748134 0 1436.73147028 0 5898.98619128 0 -3238.47423212 0 149.77330535 0 831
0.02950000 0.02946900 49671.26006080 0 656.78408232 0 7609.74786455 0 90.83047011 0 6559.43369595 0 996
0.03050000 0.03053250 48660.85201881 0 -1338.13072941 0 6903.40498691 0 626.51509673 0 886.29311165 0 1041
0.03150000 0.03150510 52955.03074126 0 -729.72866641 0 7071.30352631 0 -1123.41624769 0 -5622.09445946 0 1036
0.03250000 0.03246190 53440.71425562 0 -1098.94241250 0 6284.67147395 0 -2048.16697564 0 -9013.16137920 0 1059
0.03350000 0.03345080 54106.18607251 0 803.09582511 0 10055.87807789 0 -6901.84112814 0 -11941.89175415 0 1302
0.03450000 0.03451200 55032.07919375 0 2093.38578560 0 15085.13696928 0 -5956.56059463 0 -8564.30063871 0 1339
0.03550000 0.03553350 52505.94817682 0 961.67110435 0 21849.76889997 0 -920.36305044 0 -13892.61147340 0 1365
0.03650000 0.03647120 49731.37434826 0 1136.82550480 0 22652.66064705 0 425.27531018 0 -4579.74377027 0 1308
0.03750000 0.03744890 52243.19772112 0 1219.68783720 0 25556.22509613 0 1769.04591324 0 -12198.32022759 0 1579
0.03850000 0.03847530 51499.75478968 0 1158.88589553 0 29401.21034217 0 142.96774690 0 -2169.90395334 0 1662
0.03950000 0.03950240 47128.15951254 0 1773.12747372 0 27399.13838104 0 1995.18432782 0 -4263.56701887 0 1683
0.04050000 0.04050350 48486.94205067 0 804.93030908 0 29116.05566863 0 2435.51593786 0 186.85117675 0 1822
0.04150000 0.04152450 44703.73477163 0 676.62845190 0 24746.12407103 0 -732.26522315 0 -1630.74977849 0 1887
0.04250000 0.04250150 44026.17355006 0 1901.86299670 0 28419.86123619 0 1838.02206706 0 -741.33338578 0 1920
0.04350000 0.04349210 41867.05024015 0 2287.86992409 0 26321.85042146 0 -783.76165059 0 -2440.58461487 0 2005
0.04450000 0.04448520 40271.58155915 0 316.13571397 0 24014.43780835 0 4416.70317513 0 1049.50783858 0 2151
0.04550000 0.04548030 39730.77479595 0 -569.86126272 0 22399.22679678 0 8439.06993396 0 1230.37975106 0 2274
0.04650000 0.04648670 39827.93368122 0 -831.43161507 0 17476.84267919 0 3686.51422404 0 6272.90371399 0 2311
0.04750000 0.04749250 39897.69731002 0 651.32055871 0 17402.08801176 0 2453.45040333 0 7294.97969516 0 2568
0.04850000 0.04851840 38480.35325201 0 2031.61890979 0 16592.31972257 0 -2306.24803743 0 8612.11478875 0 2493
0.04950000 0.04949480 35883.68222249 0 1374.37676104 0 18825.53222810 0 -5.00007795 0 10214.27146151 0 2644
0.05050000 0.05050630 35478.18806207 0 133.21858478 0 21767.80495452 0 1712.23680247 0 10127.57157497 0 2829
0.05150000 0.05149060 36386.77891606 0 -845.84240726 0 16464.88186964 0 3124.58982186 0 9618.95146532 0 2784
0.05250000 0.05249300 37082.19696472 0 -292.52921039 0 17605.83329970 0 1868.62267944 0 9413.39831227 0 3055
0.05350000 0.05348950 37547.69450063 0 104.06703729 0 14753.06653265 0 145.75052822 0 6929.15874622 0 3009
0.05450000 0.05448610 36172.71881496 0 974.34279687 0 15822.92339027 0 -862.62560649 0 6960.24737127 0 3336
0.05550000 0.05550870 34508.59562485 0 394.57931351 0 14141.71975686 0 57.05810814 0 5235.79916095 0 3349
0.05650000 0.05647670 35229.85616240 0 -159.92840528 0 14599.56436688 0 3074.36888208 0 3796.12852348 0 3324
0.05750000 0.05747970 35023.22716325 0 -526.33496942 0 11584.20065257 0 2352.78669982 0 1723.83819448 0 3639
0.05850000 0.05849280 35309.60186845 0 764.55613395 0 9343.36849474 0 939.11050064 0 3113.23243618 0 3846
0.05950000 0.05951020 32936.30754547 0 1356.33138360 0 10483.42153785 0 -1439.27135438 0 1086.93064621 0 3787
0.06050000 0.06049470 32017.84552619 0 1723.26145224 0 10852.10401561 0 -1570.77967660 0 -823.05110665 0 3930
0.06150000 0.06148310 29319.24639672 0 1366.35782564 0 12314.22323570 0 -1816.56060097 0 320.23502037 0 4083
0.06250000 0.06249100 28744.83330677 0 577.32896563 0 14824.49384099 0 -1560.46486343 0 -826.43170348 0 4303
0.06350000 0.06350600 28250.94230667 0 -105.44711492 0 13300.78520425 0 1713.20173661 0 -1992.98827082 0 4470
0.06450000 0.06451750 29033.31533939 0 -861.35788267 0 12876.87965689 0 3145.49672811 0 -1968.59872873 0 4479
0.06550000 0.06550280 29557.92895504 0 -437.89820143 0 9241.48475958 0 1719.61244844 0 -1715.51979677 0 4636
0.06650000 0.06648880 30593.84675001 0 134.48187212 0 11149.53664417 0 -87.95374636 0 610.48498978 0 4653
0.06750000 0.06749660 29858.72221628 0 524.65132572 0 9023.25436842 0 -18.09229320 0 -1747.15189047 0 5220
0.06850000 0.06852730 29260.90670077 0 202.96224943 0 9697.18876859 0 295.46948670 0 797.12099731 0 5029
0.06950000 0.06949320 28569.37057105 0 714.68789423 0 10671.83879161 0 -847.59148902 0 -2035.70047027 0 5040
0.07050000 0.07048030 28031.00387118 0 1009.86900981 0 10237.74043425 0 -48.26556176 0 594.07001830 0 5475
0.07150000 0.07148790 27293.43927413 0 222.01692579 0 10900.43945191 0 1207.89789484 0 171.76714890 0 5509
0.07250000 0.07249820 26413.57462022 0 363.55945389 0 11631.33823960 0 654.86974173 0 928.02595841 0 5916
0.07350000 0.07351270 26452.72654545 0 419.26942704 0 11014.40150055 0 284.72655334 0 1621.47753785 0 5721
0.07450000 0.07449140 25754.64660953 0 -40.27324524 0 10883.80265649 0 1818.87866113 0 2505.46811701 0 6028
0.07550000 0.07549160 25731.46600791 0 22.85551864 0 9295.03305844 0 306.40207953 0 3941.24574435 0 6183
0.07650000 0.07648840 25788.47476022 0 356.10173306 0 10521.12051628 0 181.43534528 0 3124.06853560 0 6330
0.07750000 0.07749960 25935.98767963 0 350.69366543 0 10838.32874900 0 -99.55502746 0 2299.84841679 0 6583
0.07850000 0.07848650 25023.73673064 0 403.32804966 0 10718.10017408 0 -695.66870970 0 2980.06043443 0 6549
0.07950000 0.07947320 24245.46744078 0 853.45651397 0 10706.02186060 0 -1030.79588021 0 1366.16927529 0 6828
0.08050000 0.08048110 23655.19393920 0 373.66353431 0 11929.13687766 0 1007.13724800 0 1032.68471105 0 7147
0.08150000 0.08149960 23507.57010782 0 -106.96305972 0 11435.13496559 0 448.84632194 0 1207.64279731 0 7386
0.08250000 0.08250610 23115.71811964 0 161.25158507 0 9964.23151751 0 924.49895778 0 454.05585715 0 7227
0.08350000 0.08350160 22823.24325611 0 193.62457072 0 9615.38009990 0 1338.44128292 0 1736.85925970 0 7798
0.08450000 0.08449610 22537.64493470 0 36.40452483 0 7999.52579891 0 259.84345298 0 1061.21570608 0 7371
0.08550000 0.08548940 22215.44566335 0 330.70621941 0 8593.31520992 0 1104.27949647 0 965.86579504 0 8256
0.08650000 0.08650700 22025.67528357 0 356.93579107 0 7232.50298275 0 824.52734497 0 3446.88891398 0 8037
0.08750000 0.08749060 21237.86756433 0 228.56627759 0 7893.69359763 0 87.48004134 0 2061.43204719 0 8155
0.08850000 0.08849210 21550.63931827 0 206.29293588 0 7403.82870201 0 606.98238979 0 2664.54915484 0 8718
0.08950000 0.08949900 20426.54650757 0 373.30861600 0 7434.64004714 0 31.12788788 0 2106.88377228 0 8571
0.09050000 0.09049190 20217.69926904 0 327.76261574 0 7051.78301968 0 81.31854870 0 4066.56517867 0 8932
0.09150000 0.09150830 20085.49220141 0 243.41849942 0 7046.10432684 0 854.72645602 0 3224.41059439 0 9285
0.09250000 0.09250820 19870.54480456 0 -67.29217739 0 6875.00043152 0 1653.22054351 0 4202.26597333 0 9204
0.09350000 0.09350330 19866.99562153 0 -179.86815915 0 5874.67428757 0 990.16993491 0 3850.03174065 0 9349
0.09450000 0.09448040 19817.75070708 0 293.76144237 0 5877.74654912 0 -388.23736710 0 3625.04681056 0 9564
0.09550000 0.09549270 18841.28172776 0 890.25821456 0 6262.26725612 0 -1050.04465252 0 3911.34387738 0 10155
0.09650000 0.09649430 18505.66210811 0 592.11242204 0 6912.16703250 0 -749.60741870 0 2924.98155038 0 9913
0.09750000 0.09749140 17419.27936703 0 27.36198287 0 6762.22514095 0 594.52032090 0 2869.99139591 0 10476
0.09850000 0.09850240 17470.18796102 0 248.35851854 0 6708.39956216 0 717.96534293 0 2335.61752695 0 10575
0.09950000 0.09950330 17086.98710646 0 495.55689789 0 6516.62167573 0 176.22248271 0 2441.72700815 0 10882
0.10050000 0.10051200 16455.23252829 0 441.23443347 0 6605.70616962 0 -209.20437508 0 3049.55787450 0 10875
0.10150000 0.10150300 15756.48712055 0 374.23916743 0 6716.06357925 0 364.05744863 0 2909.25423311 0 11118
0.10250000 0.10250800 15329.25421411 0 267.22353543 0 6744.67886738 0 -354.78964446 0 2952.08843572 0 11575
0.10350000 0.10349800 15287.55131358 0 218.95131895 0 6664.63369901 0 115.47488791 0 1734.27501081 0 11364
0.10450000 0.10450100 15088.13159245 0 -38.44197771 0 6801.86507885 0 697.57972294 0 3117.16981110 0 12093
0.10550000 0.10551000 15326.25959093 0 -340.08049907 0 5609.31740058 0 585.95680773 0 1786.31490689 0 12067
0.10650000 0.10649700 15777.11674688 0 -262.00845463 0 5643.28973683 0 687.12072422 0 2455.33590681 0 12054
0.10750000 0.10749900 15942.15375747 0 3.19274523 0 4329.89237662 0 293.42537910 0 849.77645482 0 12807
0.10850000 0.10850100 15903.33456815 0 91.72530788 0 5031.96514344 0 -391.60798185 0 2234.93164105 0 12736
0.10950000 0.10950300 15951.35945093 0 5.51246907 0 4329.82582943 0 531.90496852 0 922.82751440 0 12933
0.11050000 0.11050200 15516.02997072 0 112.00334326 0 4859.21975097 0 -142.15919864 0 874.63626366 0 13428
0.11150000 0.11150900 15288.32769737 0 411.69303040 0 4423.73499400 0 -173.25780577 0 968.93694747 0 13453
0.11250000 0.11250000 15164.10629155 0 262.15707667 0 4624.53002355 0 -155.15253587 0 145.00852714 0 13668
0.11350000 0.11349100 14444.17669764 0 173.80349266 0 4738.95790246 0 287.98292876 0 1011.85211583 0 13791
0.11450000 0.11448600 14634.61254924 0 -29.33865599 0 4122.93064156 0 429.26925021 0 -468.95244377 0 14205
0.11550000 0.11549300 14392.38080789 0 -6.57153419 0 3868.69822512 0 383.95949243 0 91.80039528 0 14776
0.11650000 0.11649800 14477.22846455 0 250.62888656 0 3468.28383289 0 -231.81378006 0 -628.24865082 0 14553
0.11750000 0.11747300 14031.80599510 0 150.13266013 0 3195.01892248 0 -32.42234148 0 -328.83846184 0 14568
0.11850000 0.11849100 14007.95992167 0 63.64261903 0 3407.96990389 0 126.78347232 0 -849.12096508 0 16015
0.11950000 0.11950300 13646.38690115 0 216.91719343 0 3196.53841646 0 -217.72130521 0 -1920.24111004 0 15270
0.12050000 0.12050700 13357.12848474 0 560.30065095 0 3578.78542809 0 -942.12508797 0 -1714.32194750 0 15999
0.12150000 0.12150000 12762.86215226 0 351.28704446 0 4078.69894813 0 -267.62614588 0 -2256.35983356 0 15670
0.12250000 0.12250700 12499.66804868 0 52.18918359 0 4094.37080942 0 395.74610743 0 -1664.71102355 0 16887
0.12350000 0.12352200 12354.04063275 0 -24.91138291 0 3826.77350065 0 744.19602371 0 -1669.53569422 0 16407
0.12450000 0.12449800 12557.34227281 0 -153.14392010 0 2906.28179233 0 863.07369084 0 -610.82105305 0 16306
0.12550000 0.12549900 12400.62365993 0 14.64980749 0 2700.54008894 0 646.81975099 0 -656.32157941 0 17523
0.12650000 0.12650100 12496.78433747 0 147.96211289 0 2773.73089760 0 180.85194832 0 248.38624654 0 17154
0.12750000 0.12750600 12229.26466708 0 147.81459997 0 2153.68862341 0 -1.51279490 0 336.94169033 0 18007
0.12850000 0.12850300 12098.72127900 0 176.48423496 0 2844.35963977 0 -397.07261458 0 377.43565039 0 17496
0.12950000 0.12949900 12207.19318515 0 21.38271860 0 3137.65525186 0 -419.57998055 0 1.21866745 0 18405
0.13050000 0.13049000 12068.66413527 0 146.64447869 0 3268.83083817 0 -66.72264443 0 -232.96726454 0 18100
0.13150000 0.13148800 11983.37283074 0 136.31968345 0 3415.56737380 0 -493.24549244 0 -214.60467887 0 19059
0.13250000 0.13249300 11826.98695377 0 99.05614542 0 3840.65967923 0 -112.67546980 0 -666.91034514 0 18957
0.13350000 0.13349100 11813.56660546 0 156.54115373 0 4560.56709075 0 50.50043794 0 -145.25142435 0 19468
0.13450000 0.13450700 11650.30418638 0 57.19009338 0 4173.24031092 0 169.70418627 0 40.80773002 0 19953
0.13550000 0.13551000 11678.25400269 0 94.51729489 0 4093.86061436 0 317.56869662 0 268.52453283 0 19956
0.13650000 0.13649900 11454.21182434 0 213.07076633 0 4339.39753240 0 44.02539717 0 906.79075273 0 19723
0.13750000 0.13749600 11193.90143196 0 181.83906485 0 4270.19955464 0 147.07703537 0 495.72215672 0 20946
0.13850000 0.13851100 11148.98208432 0 53.55251352 0 4484.80312439 0 -130.55447928 0 1213.75404683 0 20955
0.13950000 0.13949800 11022.81971904 0 146.91399478 0 4400.25493006 0 -47.84276533 0 391.51925227 0 20506
0.14050000 0.14048300 10917.70844556 0 -39.04101326 0 4190.58694295 0 491.90567585 0 1065.76309683 0 21447
0.14150000 0.14148400 11023.01936058 0 -194.67047060 0 3763.94186994 0 305.98061405 0 149.27863797 0 21771
0.14250000 0.14249400 11306.14434508 0 -85.31304328 0 3658.06530387 0 257.75719884 0 548.39203279 0 22470
0.14350000 0.14350900 11224.95678342 0 159.97942478 0 3676.32141405 0 -280.96552845 0 300.10006143 0 22519
0.14450000 0.14449900 11115.15393363 0 74.71618098 0 3499.62755547 0 -130.78517617 0 219.67113764 0 22218
0.14550000 0.14550500 11132.56711284 0 175.39951590 0 3847.73586288 0 -80.19867054 0 176.20030032 0 23559
0.14650000 0.14650700 10967.53010225 0 140.06850802 0 3782.19798012 0 119.22593071 0 151.64217204 0 23044
0.14750000 0.14750500 10606.01253772 0 91.72242417 0 4160.86253513 0 391.97731871 0 780.73375382 0 23649
0.14850000 0.14849900 10791.55717147 0 183.37630474 0 3781.35504915 0 200.49334899 0 733.73369763 0 23640
0.14950000 0.14949500 10413.50263229 0 55.98725307 0 4140.12199683 0 200.72293677 0 1141.69454026 0 24457
0.15050000 0.15050000 10227.99127214 0 250.84183754 0 3616.25149138 0 -161.44679014 0 693.14989888 0 24591
0.15150000 0.15149900 10022.17193037 0 254.34665578 0 4269.64499479 0 -358.65381748 0 1369.52990797 0 25020
0.15250000 0.15250500 9676.04894720 0 156.64873834 0 3818.97638920 0 148.28486672 0 525.25357771 0 25297
0.15350000 0.15350100 9670.11515684 0 -4.47842569 0 4281.14656603 0 282.07242991 0 914.19967230 0 25452
0.15450000 0.15450400 9558.44898596 0 -43.83318672 0 3323.31079758 0 465.65281267 0 564.76818508 0 26061
0.15550000 0.15549900 9737.32781034 0 -33.33181963 0 3365.18006606 0 452.27904739 0 685.32505943 0 26128
0.15650000 0.15649500 9551.88299737 0 -16.29751571 0 2864.53452701 0 206.20642454 0 498.23098547 0 26331
0.15750000 0.15749700 9577.40384155 0 66.16553360 0 2712.33003129 0 25.39850828 0 616.58292987 0 27345
0.15850000 0.15849900 9399.57868088 0 136.37181208 0 2627.42691866 0 14.72234392 0 623.64469496 0 26980
0.15950000 0.15949700 9340.81751944 0 130.35372861 0 2577.43889401 0 -62.26187592 0 178.46401362 0 27777
0.16050000 0.16050000 9178.27602817 0 184.22478131 0 2430.45835205 0 24.47583160 0 189.27903976 0 28224
0.16150000 0.16150500 8902.99251991 0 68.56899598 0 2492.45814299 0 147.52290149 0 107.01186099 0 28075
0.16250000 0.16249700 8873.29029449 0 83.33182277 0 2231.58209957 0 269.60037894 0 191.45735084 0 28590
0.16350000 0.16349900 8637.12543787 0 230.02033351 0 2145.61423203 0 -103.01093351 0 143.82398731 0 29163
0.16450000 0.16449100 8358.11528744 0 181.97992305 0 2379.87140277 0 -25.11756826 0 107.97047314 0 28996
0.16550000 0.16550500 8191.14840858 0 128.47487985 0 2603.22592691 0 59.90976579 0 894.59709081 0 30777
0.16650000 0.16650700 8140.93856000 0 -36.50944755 0 2110.93205917 0 490.07119188 0 842.16678460 0 29211
0.16750000 0.16749900 8287.54200126 0 -166.72841812 0 2126.40427891 0 560.40934468 0 1449.04269889 0 30922
0.16850000 0.16850800 8399.97346472 0 6.70016989 0 1932.01996120 0 279.83755372 0 1418.64172806 0 30867
0.16950000 0.16949900 8358.94712721 0 134.07149783 0 1702.92019704 0 -252.99796623 0 2026.81642152 0 30852
0.17050000 0.17049200 8217.62309570 0 147.58612131 0 2275.75833702 0 -253.00573006 0 1934.19383580 0 31257
0.17150000 0.17149500 8092.20384060 0 86.91294844 0 2332.64508617 0 7.91415686 0 1736.39342943 0 32608
0.17250000 0.17250900 8085.60457842 0 23.77054239 0 2580.30042282 0 -11.79460066 0 1881.26664396 0 32361
0.17350000 0.17350400 8135.37077913 0 19.43710083 0 2364.76519253 0 -30.97327660 0 1634.38769109 0 32508
0.17450000 0.17449800 8097.25033522 0 21.98241962 0 2251.47970690 0 147.53177445 0 1555.47382481 0 32791
0.17550000 0.17549800 8112.22345110 0 54.28996721 0 2056.62955891 0 166.29807968 0 1238.49850722 0 33633
0.17650000 0.17650100 8045.59863103 0 20.28213912 0 2011.99858239 0 49.87267620 0 1200.44461049 0 33984
0.17750000 0.17750300 7917.27348234 0 88.45761944 0 2015.25939430 0 18.36291840 0 1079.37532285 0 34069
0.17850000 0.17849800 7878.15483070 0 163.61844650 0 1772.30672514 0 -62.52573550 0 929.83936911 0 34536
