### header ###
fiducial parameters:
Omega_m = 0.31
Omega_nu = 0
Omega_de = 0.69
Omega_k = 0
H_0 = 100
w_de = -1
zeff = 0
beta = 0
fgrowth = 0
b_1 = 2
gamma = 0.55
Lx = 3500 Ly = 3500 Lz = 3500
nx = 700 ny = 700 nz = 700
xoffset = 1379.75464 yoffset = 22.6059522 zoffset = 368.141391
bins = 400 dk = 0.001
kx_ny = 0.628318531 ky_ny = 0.628318531 kz_ny = 0.628318531
############################
A(data) = 3.39428854 (not used)
A(ran) = 3.40026589 (used)
Ngal = 190570
weighted Ngal = 0
Nran = 9399747
weighted Nran = 0
SN(data) = 6596.94757
SN(ran) = 135.246878
SN(data+ran) = 6732.19445
############################
13 columns: k_central k_mean P_0(k) sigma^{lin}_{P_0(k)} P^img_1(k) sigma^{lin}_{P_1(k)} P_2(k) sigma^{lin}_{P_2(k)} P^img_3(k) sigma^{lin}_{P_3(k)} P_4(k) sigma^{lin}_{P_4(k)} N_modes
### header ###
0.00050000 0 0 0 0 0 0 0 0 0 0 0 0
0.00150000 0.00179520 39747.07885547 0 -28712.77974759 0 -23803.26141846 0 33926.75143295 0 75937.76540949 0 3
0.00250000 0.00253879 52853.98993706 0 -25942.19874992 0 -20068.30084614 0 -16708.11181871 0 -49410.83875645 0 6
0.00350000 0.00331552 85467.10000346 0 -22603.41573260 0 -27203.93331475 0 -39296.11078755 0 -11567.00929730 0 7
0.00450000 0.00420575 101531.25692736 0 -14188.74643192 0 -40401.79221132 0 -25548.12852235 0 -4091.85310771 0 24
0.00550000 0.00557378 110003.26771626 0 -6824.59094139 0 -27456.47986926 0 -24912.27020131 0 717.94759701 0 45
0.00650000 0.00659388 119890.29341181 0 -17723.06725144 0 -18804.23712996 0 -20251.97106761 0 -48877.68491915 0 40
0.00750000 0.00754703 141118.84437071 0 -13611.67145471 0 -14815.50997147 0 -8386.25365410 0 -38543.24033871 0 57
0.00850000 0.00846663 143975.93670457 0 2975.39104051 0 -9009.56783139 0 -49067.56621091 0 -27902.34598658 0 75
0.00950000 0.00948925 130155.19618739 0 15861.40984368 0 -4943.62375975 0 -20895.81505045 0 -9163.79092495 0 112
0.01050000 0.01054430 120546.89227115 0 11842.07098162 0 35460.66397089 0 -23067.69323685 0 -50196.65006024 0 105
0.01150000 0.01145670 115460.46935069 0 6598.74089794 0 29155.54032976 0 -3965.67965123 0 -28713.44521941 0 144
0.01250000 0.01249090 100671.68916387 0 6785.51665454 0 57525.93482756 0 -4192.39480805 0 -45578.49747493 0 169
0.01350000 0.01339930 96420.10063771 0 7542.19138394 0 38792.12679823 0 -16932.93038085 0 -27594.56527127 0 180
0.01450000 0.01448870 95463.04125305 0 630.50570939 0 49101.28344963 0 23356.84074129 0 -21901.23205381 0 267
0.01550000 0.01550050 88673.23230528 0 8145.33067399 0 58206.37976033 0 -6103.86278130 0 -44350.25832489 0 238
0.01650000 0.01653350 86566.68126891 0 8627.49827892 0 46992.18143795 0 5965.00099551 0 -5216.66684622 0 315
0.01750000 0.01747870 71996.50857394 0 1508.64679129 0 57181.33133838 0 10698.32456992 0 -22693.91989970 0 297
0.01850000 0.01844180 71778.78837784 0 6350.67518699 0 56777.50085749 0 2811.40769363 0 11070.05712684 0 388
0.01950000 0.01947590 75031.06005897 0 -4049.93947445 0 43487.58502626 0 24233.37803611 0 -3865.00485653 0 399
0.02050000 0.02045430 75520.18184439 0 -3913.11846889 0 39483.33019204 0 10380.22904145 0 5865.94551557 0 462
0.02150000 0.02154770 75153.61778525 0 1926.75164265 0 30382.67036011 0 825.71077568 0 6342.05732696 0 571
0.02250000 0.02255340 75656.82539079 0 2300.44734142 0 35905.31005654 0 4623.30999188 0 16381.03242071 0 510
0.02350000 0.02348930 74326.54722882 0 456.79205543 0 32900.70480327 0 1211.06997717 0 9191.81837964 0 555
0.02450000 0.02439640 74464.07807098 0 2579.62385981 0 37454.86118218 0 8386.03183016 0 14211.15064976 0 592
0.02550000 0.02547300 69055.67770312 0 -3.79755929 0 27132.61691838 0 9288.22306352 0 17351.29032974 0 837
0.02650000 0.02652900 68426.58501221 0 2431.94457244 0 31620.22611560 0 9448.96778089 0 19520.72845281 0 723
0.02750000 0.02749970 64060.20259764 0 3665.28567309 0 24603.82401418 0 1279.53593593 0 31361.35757882 0 826
0.02850000 0.02848090 61159.41094780 0 2306.38113179 0 28241.07114138 0 4498.23456390 0 17532.63139984 0 831
0.02950000 0.02946900 56673.57634209 0 3433.12473857 0 24787.38332367 0 -1246.60617219 0 20725.01061745 0 996
0.03050000 0.03053250 53790.86334328 0 2251.51298049 0 28166.98194577 0 1382.98352987 0 15142.25663356 0 1041
0.03150000 0.03150510 51274.93622754 0 2031.01998516 0 33727.55353576 0 -30.43845908 0 16039.53446667 0 1036
0.03250000 0.03246190 48698.67300041 0 977.44722289 0 26787.90251723 0 3078.11770665 0 15942.37558141 0 1059
0.03350000 0.03345080 50080.96887607 0 -765.67967220 0 28339.45005831 0 6636.22914362 0 11717.62775186 0 1302
0.03450000 0.03451200 52967.00923396 0 -2227.10125601 0 20813.74019303 0 7987.79131253 0 15344.22732999 0 1339
0.03550000 0.03553350 54155.43098696 0 -1572.68736247 0 20019.49957957 0 3581.54713613 0 12527.06330514 0 1365
0.03650000 0.03647120 54218.98354548 0 2288.82376702 0 21620.95750693 0 -2819.95900648 0 11823.32685877 0 1308
0.03750000 0.03744890 51107.90280150 0 3187.05544307 0 19076.63692700 0 -5914.85769411 0 8507.86862863 0 1579
0.03850000 0.03847530 47313.27158961 0 3408.96811161 0 33090.80791896 0 -3664.40946853 0 11156.08045037 0 1662
0.03950000 0.03950240 45664.01060341 0 2357.42282015 0 32354.68517751 0 -2756.72809268 0 3582.44552308 0 1683
0.04050000 0.04050350 43530.39704648 0 895.73948409 0 35045.52046912 0 7058.73720017 0 6395.12870436 0 1822
0.04150000 0.04152450 42221.41398265 0 -72.37305471 0 28483.08105879 0 5084.73705852 0 6394.77378606 0 1887
0.04250000 0.04250150 43406.28655262 0 -642.71046252 0 28633.14495350 0 3024.91323489 0 10008.44102855 0 1920
0.04350000 0.04349210 41131.37114658 0 976.44679693 0 24299.03792204 0 5036.84527010 0 5925.92670866 0 2005
0.04450000 0.04448520 40753.05041867 0 817.81827993 0 21231.54558207 0 1911.56779403 0 7972.56309912 0 2151
0.04550000 0.04548030 40916.64557366 0 -666.73399511 0 18755.65768732 0 2905.63850290 0 3720.42001311 0 2274
0.04650000 0.04648670 40638.47835420 0 -309.82593203 0 16559.71160354 0 1675.33639023 0 5014.78487937 0 2311
0.04750000 0.04749250 39709.47969781 0 13.45561831 0 11808.02100699 0 3007.74406201 0 2376.56622608 0 2568
0.04850000 0.04851840 41327.57442059 0 -1082.00726388 0 8339.77044769 0 5145.62772976 0 3555.71573843 0 2493
0.04950000 0.04949480 41201.24568735 0 -635.00651712 0 5767.91042574 0 2605.29998074 0 4116.58647691 0 2644
0.05050000 0.05050630 40826.80687838 0 1319.86352804 0 4530.01084315 0 -475.20566061 0 4185.29644200 0 2829
0.05150000 0.05149060 38704.72816627 0 1946.30542287 0 5908.01442559 0 -3706.89984403 0 1672.98505647 0 2784
0.05250000 0.05249300 36637.21814316 0 1319.63061290 0 9566.61210692 0 -1894.76463065 0 3423.06502293 0 3055
0.05350000 0.05348950 35759.79355258 0 835.19042171 0 12625.77495798 0 -1651.45704320 0 2127.74631374 0 3009
0.05450000 0.05448610 35582.33440141 0 -151.11090370 0 10233.28177308 0 2832.10386714 0 3055.24765854 0 3336
0.05550000 0.05550870 35550.05901829 0 -359.66866200 0 9980.26938830 0 1707.71159412 0 1290.15021141 0 3349
0.05650000 0.05647670 35089.44160903 0 930.64237177 0 10735.90154518 0 -21.38560231 0 3141.35971165 0 3324
0.05750000 0.05747970 34712.56273673 0 1429.23382114 0 11436.35499725 0 -2167.13115411 0 3339.55940111 0 3639
0.05850000 0.05849280 33473.23238974 0 562.85384449 0 13405.70792738 0 262.64730757 0 5237.49611409 0 3846
0.05950000 0.05951020 32407.92292286 0 96.00839541 0 13585.82896582 0 624.51535392 0 4454.03614406 0 3787
0.06050000 0.06049470 33240.87181367 0 443.24194012 0 12352.93151305 0 -178.16787866 0 2059.63527328 0 3930
0.06150000 0.06148310 31612.79501364 0 335.06616893 0 14291.78365157 0 405.25791793 0 -682.46685798 0 4083
0.06250000 0.06249100 31381.09990939 0 873.75784086 0 14341.47221390 0 -2059.81273244 0 -71.24008894 0 4303
0.06350000 0.06350600 30967.84191110 0 576.91970046 0 14110.55349344 0 140.24042157 0 -2165.42310978 0 4470
0.06450000 0.06451750 30786.05719312 0 -352.22092325 0 14498.63447466 0 19.93709199 0 -3897.69061394 0 4479
0.06550000 0.06550280 30705.42419131 0 -482.08331183 0 11930.24599736 0 2202.56752836 0 -3656.29071236 0 4636
0.06650000 0.06648880 31456.18731273 0 -120.65891336 0 11813.45569349 0 64.08471414 0 -5244.18410585 0 4653
0.06750000 0.06749660 31493.01008660 0 359.83392083 0 10255.76362929 0 140.10178161 0 -6358.36138648 0 5220
0.06850000 0.06852730 29864.26781475 0 972.95306989 0 12115.46898639 0 -480.35973983 0 -5683.99442963 0 5029
0.06950000 0.06949320 29604.84471813 0 846.88165242 0 10968.20666526 0 -1449.59725874 0 -5146.31538398 0 5040
0.07050000 0.07048030 28660.54020996 0 -75.40560978 0 11814.12116531 0 1404.54481674 0 -5184.45801028 0 5475
0.07150000 0.07148790 28658.10014663 0 622.35478876 0 12942.65045479 0 443.37281624 0 -5550.47860077 0 5509
0.07250000 0.07249820 28342.33376952 0 322.15379744 0 10832.48368821 0 -585.41999380 0 -3319.27360189 0 5916
0.07350000 0.07351270 27543.65667728 0 46.16666365 0 12144.19518649 0 2254.23032374 0 -3147.98115622 0 5721
0.07450000 0.07449140 28216.67050810 0 140.36686122 0 12826.63653471 0 -217.46842592 0 -955.76282374 0 6028
0.07550000 0.07549160 26958.37421432 0 933.02143352 0 11531.85020298 0 975.82125342 0 -1264.99537673 0 6183
0.07650000 0.07648840 26992.20236501 0 563.08897786 0 13195.08609733 0 -123.90863407 0 323.02001992 0 6330
0.07750000 0.07749960 25251.21718005 0 492.76746185 0 12360.58443895 0 746.72148926 0 3635.57235646 0 6583
0.07850000 0.07848650 25063.88686359 0 419.81289569 0 12529.72519241 0 1970.55077940 0 1302.80526713 0 6549
0.07950000 0.07947320 25087.62202506 0 -144.60258933 0 11945.66276111 0 719.32401456 0 3854.98950569 0 6828
0.08050000 0.08048110 24568.33218395 0 58.59501530 0 10685.09277196 0 1200.98807914 0 1877.20726588 0 7147
0.08150000 0.08149960 24308.90908733 0 165.95647082 0 10088.88548001 0 819.99104542 0 1929.82390420 0 7386
0.08250000 0.08250610 24274.08272891 0 101.47214085 0 8444.94826835 0 78.23552868 0 1743.75798420 0 7227
0.08350000 0.08350160 23968.52025299 0 210.81814423 0 8137.35610338 0 -76.83071768 0 -107.00287712 0 7798
0.08450000 0.08449610 23392.66530744 0 372.57881524 0 7215.92164332 0 711.55574021 0 423.37760639 0 7371
0.08550000 0.08548940 22648.66781615 0 365.76660208 0 6100.47996623 0 992.07318431 0 -1404.55590793 0 8256
0.08650000 0.08650700 22431.28035596 0 191.63037351 0 5783.75974618 0 984.37811187 0 1186.18133122 0 8037
0.08750000 0.08749060 21942.82404236 0 414.81298410 0 5088.76316301 0 361.57634787 0 -1191.47183216 0 8155
0.08850000 0.08849210 21385.71321965 0 387.14044772 0 4908.29829747 0 162.00578646 0 1826.08793915 0 8718
0.08950000 0.08949900 20581.93417682 0 315.91167180 0 4707.71400066 0 1.13348705 0 -933.50500970 0 8571
0.09050000 0.09049190 20441.18688754 0 459.18886309 0 5401.06908668 0 16.84442263 0 1863.22126653 0 8932
0.09150000 0.09150830 19613.89450718 0 353.18585738 0 4504.20162785 0 206.54803341 0 73.71198401 0 9285
0.09250000 0.09250820 19321.19781971 0 348.18372756 0 5483.95360147 0 1.24960080 0 302.56674363 0 9204
0.09350000 0.09350330 18640.30923906 0 309.34901056 0 4685.34305641 0 72.40455371 0 22.80649555 0 9349
0.09450000 0.09448040 18429.24376114 0 540.22225712 0 5628.52735369 0 -767.39658949 0 -682.24392492 0 9564
0.09550000 0.09549270 17872.24385040 0 343.89919818 0 5231.72869167 0 -117.63101659 0 -331.76321047 0 10155
0.09650000 0.09649430 17565.79407872 0 118.43623749 0 5333.74552120 0 -22.77255649 0 -1657.00264167 0 9913
0.09750000 0.09749140 17464.42053861 0 -62.97237800 0 5612.24547657 0 267.20911688 0 -992.72312845 0 10476
0.09850000 0.09850240 17482.94283751 0 68.78860168 0 5088.51915668 0 847.34415533 0 -1330.22270599 0 10575
0.09950000 0.09950330 17665.39302731 0 55.69366909 0 4468.39924411 0 -16.47896769 0 -1007.02411779 0 10882
0.10050000 0.10051200 17151.20513679 0 268.58886178 0 4880.78103784 0 -62.15029848 0 -906.35043221 0 10875
0.10150000 0.10150300 16782.09010236 0 581.68669691 0 5299.39608425 0 -183.52381766 0 18.07443637 0 11118
0.10250000 0.10250800 16442.47765180 0 7.10344582 0 5827.17069104 0 141.62016647 0 54.75491018 0 11575
0.10350000 0.10349800 16548.73131856 0 209.99517742 0 5613.02186036 0 58.92497841 0 -783.61968326 0 11364
0.10450000 0.10450100 16012.91559400 0 376.13908946 0 6701.61174963 0 -1103.74933726 0 -56.35448261 0 12093
0.10550000 0.10551000 15516.14088269 0 362.24514705 0 6907.80819210 0 -497.20394063 0 -1181.81139962 0 12067
0.10650000 0.10649700 15350.88204816 0 133.71990689 0 7854.07584213 0 -69.24711176 0 -89.55853165 0 12054
0.10750000 0.10749900 15311.28647505 0 156.24169141 0 7272.80839246 0 148.63202118 0 -1443.91856590 0 12807
0.10850000 0.10850100 15141.03660190 0 122.59654547 0 7665.50331161 0 760.14405580 0 -672.36832316 0 12736
0.10950000 0.10950300 15190.28151635 0 -136.64021904 0 6807.12230620 0 487.03109479 0 -558.65915380 0 12933
0.11050000 0.11050200 14969.89943299 0 -229.92162186 0 5843.87403364 0 1070.42139955 0 -490.50374856 0 13428
0.11150000 0.11150900 15526.45569585 0 147.53953828 0 6111.65989276 0 381.69799737 0 304.66852545 0 13453
0.11250000 0.11250000 15134.27097176 0 -156.83285221 0 4645.13746748 0 358.35546428 0 -839.61691842 0 13668
0.11350000 0.11349100 15195.93802679 0 148.68747717 0 4975.24476225 0 148.73738755 0 114.14061691 0 13791
0.11450000 0.11448600 14859.87475926 0 403.31141287 0 4402.72826698 0 -158.75828400 0 -921.17936253 0 14205
0.11550000 0.11549300 14803.75330270 0 289.02661039 0 4755.43942113 0 -12.66991792 0 -622.26384094 0 14776
0.11650000 0.11649800 14016.83287922 0 209.74451637 0 4584.43534658 0 126.12243698 0 -196.23987496 0 14553
0.11750000 0.11747300 13701.06650211 0 377.26706419 0 4346.25189212 0 347.53600165 0 -135.32147573 0 14568
0.11850000 0.11849100 13464.71309514 0 -251.66480435 0 4084.42200576 0 1216.23847495 0 234.04311064 0 16015
0.11950000 0.11950300 13695.52090363 0 89.16401777 0 3490.10021729 0 538.69389018 0 184.19261684 0 15270
0.12050000 0.12050700 13469.37139786 0 114.33582198 0 3013.30075168 0 -128.37062260 0 369.88476351 0 15999
0.12150000 0.12150000 13319.64023906 0 90.97864850 0 3246.55971470 0 -328.34934005 0 167.01457101 0 15670
0.12250000 0.12250700 13426.11572976 0 92.94134671 0 3508.97743449 0 -407.33751736 0 130.37147453 0 16887
0.12350000 0.12352200 13223.81229743 0 129.53519828 0 4143.85973020 0 -282.79779419 0 -582.18469165 0 16407
0.12450000 0.12449800 13191.75873825 0 284.80640995 0 3996.59081713 0 -711.12207441 0 -1170.28764599 0 16306
0.12550000 0.12549900 12840.05688302 0 194.97436939 0 4963.54354947 0 -425.63910144 0 -992.13640413 0 17523
0.12650000 0.12650100 12906.04950486 0 -133.45593640 0 4725.80374288 0 528.81607017 0 -514.87332649 0 17154
0.12750000 0.12750600 13085.50507148 0 -231.84594453 0 4752.20079162 0 790.86112575 0 -408.04846308 0 18007
0.12850000 0.12850300 13383.41462151 0 72.21445059 0 4286.29288141 0 385.63648141 0 -881.36085637 0 17496
0.12950000 0.12949900 13192.09147415 0 223.58078456 0 4115.29989806 0 -328.22179129 0 -406.74746568 0 18405
0.13050000 0.13049000 12852.25719966 0 399.62802636 0 4402.66171979 0 -468.64189025 0 -44.84392750 0 18100
0.13150000 0.13148800 12281.50420471 0 246.05931342 0 4566.66724907 0 -252.62641113 0 -61.97073200 0 19059
0.13250000 0.13249300 12106.15238095 0 278.85709191 0 5154.73360246 0 184.82814242 0 -891.78769062 0 18957
0.13350000 0.13349100 11743.47024075 0 189.05610670 0 4699.58415329 0 210.84919958 0 -585.21702490 0 19468
0.13450000 0.13450700 11584.53338848 0 175.61024864 0 4666.85403110 0 279.53587316 0 67.16451771 0 19953
0.13550000 0.13551000 11296.60591570 0 36.59573707 0 4468.67652403 0 487.58010904 0 -90.69072103 0 19956
0.13650000 0.13649900 11235.60433249 0 75.62344089 0 4327.45231329 0 223.25581249 0 63.32463442 0 19723
0.13750000 0.13749600 11345.29627031 0 -111.46098373 0 3725.88797321 0 528.72734060 0 187.14842083 0 20946
0.13850000 0.13851100 11372.58061480 0 -7.70696221 0 3642.63744892 0 236.73272590 0 459.75229590 0 20955
0.13950000 0.13949800 11256.34487078 0 165.28101692 0 3152.32890543 0 68.59783309 0 319.10815476 0 20506
0.14050000 0.14048300 11261.89046926 0 105.77131061 0 3508.73342816 0 115.16655263 0 685.00341472 0 21447
0.14150000 0.14148400 10979.58623333 0 17.81867337 0 3295.40534606 0 247.65866402 0 390.16390801 0 21771
0.14250000 0.14249400 10985.28710856 0 -51.88961036 0 2981.38028686 0 528.95249190 0 973.73056280 0 22470
0.14350000 0.14350900 10950.87112443 0 95.33793255 0 3126.45314295 0 83.69206484 0 630.61329400 0 22519
0.14450000 0.14449900 10931.99390723 0 178.12018651 0 2696.04815417 0 -327.56408331 0 949.03490367 0 22218
0.14550000 0.14550500 10833.04933925 0 48.47618359 0 3128.98193585 0 59.72210274 0 483.54513159 0 23559
0.14650000 0.14650700 10588.48844654 0 160.27888710 0 3236.24490154 0 -227.50041356 0 208.41135449 0 23044
0.14750000 0.14750500 10572.08456626 0 184.83923362 0 3340.67961200 0 -285.67041420 0 260.43905026 0 23649
0.14850000 0.14849900 10311.49689396 0 124.64287130 0 3136.42412900 0 -72.96221909 0 -61.76831766 0 23640
0.14950000 0.14949500 10182.49518225 0 78.23730327 0 3641.96088590 0 318.45044678 0 -33.96967437 0 24457
0.15050000 0.15050000 10078.39320770 0 -3.05644551 0 2856.39358845 0 267.41763138 0 -62.97492898 0 24591
0.15150000 0.15149900 10001.35375370 0 91.72575153 0 2762.63970065 0 633.48924137 0 192.22264343 0 25020
0.15250000 0.15250500 9942.50386269 0 96.72566311 0 2478.92688272 0 -5.54006397 0 -109.79386592 0 25297
0.15350000 0.15350100 9789.26788565 0 76.53813190 0 2264.96660239 0 273.41353245 0 244.06622532 0 25452
0.15450000 0.15450400 9667.57527274 0 -33.02104429 0 1972.32537091 0 229.52233877 0 720.81467143 0 26061
0.15550000 0.15549900 9674.03034936 0 55.90229451 0 1623.81778040 0 166.66630742 0 -58.11709562 0 26128
0.15650000 0.15649500 9727.20154753 0 34.51136842 0 1679.75068661 0 -49.25423106 0 224.18192744 0 26331
0.15750000 0.15749700 9577.20420000 0 118.38299975 0 1632.22490769 0 -161.20500204 0 -313.71228744 0 27345
0.15850000 0.15849900 9491.12542049 0 173.43859228 0 2121.66833782 0 -254.01502899 0 -13.93797447 0 26980
0.15950000 0.15949700 9337.23506283 0 118.33863496 0 1821.98419628 0 -167.47929216 0 -312.39021676 0 27777
0.16050000 0.16050000 9228.75206548 0 51.49443102 0 2386.73685368 0 269.50499464 0 207.23236026 0 28224
0.16150000 0.16150500 9259.46358983 0 74.55136579 0 1924.93268635 0 214.82206633 0 -81.05857104 0 28075
0.16250000 0.16249700 9077.20195038 0 24.42425754 0 2379.60521404 0 278.62528590 0 522.17355232 0 28590
0.16350000 0.16349900 9128.04399719 0 116.83466865 0 2137.89475895 0 -67.81712374 0 660.22235338 0 29163
0.16450000 0.16449100 8933.48222032 0 79.95089320 0 2216.23188300 0 101.20118291 0 609.21282949 0 28996
0.16550000 0.16550500 8885.76789105 0 66.49882407 0 1908.65080923 0 9.44745938 0 780.59955034 0 30777
0.16650000 0.16650700 8725.72191909 0 117.56114205 0 2062.66317005 0 -4.12071240 0 604.85398909 0 29211
0.16750000 0.16749900 8627.37627575 0 188.64795065 0 1997.64657354 0 -228.92230501 0 524.39290083 0 30922
0.16850000 0.16850800 8495.09156975 0 -20.59269264 0 2046.39238413 0 282.68355486 0 348.69614086 0 30867
0.16950000 0.16949900 8554.74002694 0 -23.93302842 0 1798.23794361 0 206.31844563 0 153.94470452 0 30852
0.17050000 0.17049200 8498.35238165 0 106.28949133 0 1766.19547563 0 -291.97908702 0 -37.24401753 0 31257
0.17150000 0.17149500 8314.94834892 0 103.94115220 0 1498.23215736 0 -84.64136039 0 -431.89453652 0 32608
0.17250000 0.17250900 8221.85993293 0 95.75008143 0 1873.97972757 0 -79.39733156 0 -120.74431558 0 32361
0.17350000 0.17350400 8206.40989558 0 89.79033766 0 1730.89219574 0 -116.80583154 0 -721.81620651 0 32508
0.17450000 0.17449800 8008.27675330 0 192.55427022 0 1979.19082182 0 -145.57195995 0 -733.48636394 0 32791
0.17550000 0.17549800 7900.62559572 0 137.47316793 0 2085.23375584 0 -110.66807406 0 -634.22236949 0 33633
0.17650000 0.17650100 7615.28237183 0 167.50036543 0 2156.25068990 0 19.88274512 0 -510.87716823 0 33984
0.17750000 0.17750300 7546.00675569 0 137.42658491 0 2225.26011731 0 42.84363013 0 -577.95783649 0 34069
0.17850000 0.17849800 7472.36120796 0 62.55124525 0 2393.35829826 0 72.37760210 0 -117.14300393 0 34536
