### header ###
fiducial parameters:
Omega_m = 0.31
Omega_nu = 0
Omega_de = 0.69
Omega_k = 0
H_0 = 100
w_de = -1
zeff = 0
beta = 0
fgrowth = 0
b_1 = 2
gamma = 0.55
Lx = 3500 Ly = 3500 Lz = 3500
nx = 700 ny = 700 nz = 700
xoffset = 1379.75464 yoffset = 22.6059522 zoffset = 368.141391
bins = 400 dk = 0.001
kx_ny = 0.628318531 ky_ny = 0.628318531 kz_ny = 0.628318531
############################
A(data) = 3.30201189 (not used)
A(ran) = 3.29850767 (used)
Ngal = 185155
weighted Ngal = 0
Nran = 9399747
weighted Nran = 0
SN(data) = 6693.16001
SN(ran) = 131.199405
SN(data+ran) = 6824.35942
############################
13 columns: k_central k_mean P_0(k) sigma^{lin}_{P_0(k)} P^img_1(k) sigma^{lin}_{P_1(k)} P_2(k) sigma^{lin}_{P_2(k)} P^img_3(k) sigma^{lin}_{P_3(k)} P_4(k) sigma^{lin}_{P_4(k)} N_modes
### header ###
0.00050000 0 0 0 0 0 0 0 0 0 0 0 0
0.00150000 0.00179520 43691.10849026 0 -43112.25892153 0 -44154.49869875 0 6349.11132822 0 -121048.21437321 0 3
0.00250000 0.00253879 81546.14005833 0 -45673.21629687 0 -42005.46837806 0 -35564.14483841 0 32701.06325820 0 6
0.00350000 0.00331552 111534.18563102 0 -31145.07923833 0 -46007.06132501 0 -77211.36755505 0 -28357.52870934 0 7
0.00450000 0.00420575 128125.50714587 0 -3354.76543213 0 -47814.48277970 0 -73355.40202403 0 1754.18370933 0 24
0.00550000 0.00557378 117180.71399736 0 7322.49695479 0 -530.34554623 0 -68378.56012943 0 -10614.87440408 0 45
0.00650000 0.00659388 118669.15262781 0 5049.41159624 0 24850.82497022 0 -6051.66760846 0 -5588.32176476 0 40
0.00750000 0.00754703 129444.25046301 0 -7980.23820741 0 25404.94116975 0 7657.37346425 0 -12244.34869493 0 57
0.00850000 0.00846663 139356.45317564 0 -4410.08173055 0 40569.71293312 0 -284.27070514 0 -19753.31085281 0 75
0.00950000 0.00948925 140715.12480179 0 11962.52138047 0 46132.83549841 0 -1392.66614480 0 -3416.39921357 0 112
0.01050000 0.01054430 124722.72792215 0 17071.68125467 0 72527.77690776 0 -10163.48487069 0 23935.46848608 0 105
0.01150000 0.01145670 114621.97486141 0 19073.75321580 0 107302.67217134 0 9484.04923683 0 6821.34122069 0 144
0.01250000 0.01249090 88405.26898701 0 17426.71046899 0 114027.48670498 0 12333.74374233 0 38468.26384734 0 169
0.01350000 0.01339930 75808.22022913 0 6715.87502891 0 109269.58503813 0 31385.64730014 0 19302.12096096 0 180
0.01450000 0.01448870 71828.25511623 0 3674.92392323 0 106673.69039240 0 26141.72938302 0 37751.66161251 0 267
0.01550000 0.01550050 65876.71883382 0 2705.70858672 0 73260.68320209 0 43718.61465869 0 15384.48837491 0 238
0.01650000 0.01653350 66714.32602735 0 -2393.71321656 0 76154.82013376 0 5388.62476370 0 25692.09225874 0 315
0.01750000 0.01747870 66894.11432988 0 -83.77602520 0 47434.05472437 0 20467.91667219 0 15342.56365045 0 297
0.01850000 0.01844180 68751.33525886 0 1074.17909708 0 55554.14183410 0 13509.18879490 0 14833.69953446 0 388
0.01950000 0.01947590 63863.55567574 0 -1669.11422874 0 30327.99075916 0 2775.20602679 0 -1881.44410311 0 399
0.02050000 0.02045430 69209.62351676 0 -350.61159057 0 29106.51723925 0 13280.04466595 0 1350.97433548 0 462
0.02150000 0.02154770 68840.84121823 0 -2457.33232226 0 19966.26183422 0 1954.32435826 0 9513.58509431 0 571
0.02250000 0.02255340 71109.98920186 0 -1728.75159473 0 10519.39028956 0 9936.75862267 0 3196.56059886 0 510
0.02350000 0.02348930 77464.13593350 0 -2223.46334341 0 6814.98596484 0 6922.80349037 0 16000.60436538 0 555
0.02450000 0.02439640 74090.63746973 0 1107.29630204 0 189.42322532 0 6705.14984146 0 5732.78460501 0 592
0.02550000 0.02547300 72538.75719273 0 3776.77438481 0 8376.99250464 0 1617.34052138 0 24735.14378605 0 837
0.02650000 0.02652900 65856.42194340 0 2295.74467392 0 6137.33601369 0 -3101.60886178 0 9161.49504719 0 723
0.02750000 0.02749970 65179.30436971 0 1395.63858559 0 10399.99355441 0 5180.23226424 0 24210.64108237 0 826
0.02850000 0.02848090 61857.49088372 0 671.81043595 0 9839.34463987 0 -5891.26671820 0 8168.46691082 0 831
0.02950000 0.02946900 61660.17849001 0 964.96518985 0 13560.31921284 0 -872.50564473 0 11591.74266650 0 996
0.03050000 0.03053250 59581.02271010 0 3382.24941816 0 20136.17897147 0 -4986.60214792 0 860.59037185 0 1041
0.03150000 0.03150510 57380.75105951 0 2934.45343258 0 18987.79643945 0 -9680.37451401 0 -6923.63533014 0 1036
0.03250000 0.03246190 55898.74532329 0 -944.41652926 0 29652.09321713 0 2442.38138877 0 3742.96841651 0 1059
0.03350000 0.03345080 50817.09161752 0 1918.74379845 0 20751.18584225 0 -3760.89179078 0 -17298.38532030 0 1302
0.03450000 0.03451200 54637.56531830 0 3289.12772859 0 31163.04697739 0 2279.39624962 0 -1836.76876181 0 1339
0.03550000 0.03553350 49213.30453881 0 -240.69006497 0 25211.62160694 0 -96.48276590 0 -16382.69610025 0 1365
0.03650000 0.03647120 51604.78842478 0 500.68435824 0 28599.87136266 0 5823.37750168 0 3555.00590183 0 1308
0.03750000 0.03744890 48804.81575520 0 1379.73380916 0 23323.67806242 0 -373.52489434 0 -12345.61132307 0 1579
0.03850000 0.03847530 47051.07569375 0 2200.94821360 0 23093.86846165 0 -1396.27078381 0 -5534.81783068 0 1662
0.03950000 0.03950240 46348.00471920 0 445.96150161 0 24623.34452081 0 5464.43309484 0 -1583.74528583 0 1683
0.04050000 0.04050350 44745.88132003 0 465.41102458 0 20865.86881869 0 2558.79459194 0 -10980.98372415 0 1822
0.04150000 0.04152450 42756.12058752 0 475.67925472 0 18602.04460959 0 2008.06120748 0 797.75874113 0 1887
0.04250000 0.04250150 42697.44815566 0 1072.23481025 0 16211.22619543 0 2875.49262960 0 -7398.24982995 0 1920
0.04350000 0.04349210 40772.34910136 0 792.61242575 0 16590.21239515 0 2203.64337446 0 3341.00125671 0 2005
0.04450000 0.04448520 39154.91985040 0 727.64352139 0 12823.97464744 0 3258.43838663 0 -1692.76066063 0 2151
0.04550000 0.04548030 39739.20410563 0 -203.47022625 0 11277.52905695 0 2446.27439890 0 5131.03171458 0 2274
0.04650000 0.04648670 38501.87017409 0 -225.37090375 0 11254.34845533 0 3461.78439148 0 5866.75517294 0 2311
0.04750000 0.04749250 38773.04993947 0 200.90039592 0 7181.78293911 0 2718.06418012 0 4938.83236266 0 2568
0.04850000 0.04851840 38337.27681138 0 -332.37988102 0 4613.64955934 0 2110.48841129 0 8150.33280381 0 2493
0.04950000 0.04949480 36911.28161975 0 679.16944512 0 6675.36997765 0 486.91907370 0 3459.18905139 0 2644
0.05050000 0.05050630 38384.96895826 0 612.37160238 0 5621.78390595 0 -3263.78434356 0 2753.86656387 0 2829
0.05150000 0.05149060 35537.74778968 0 703.81408474 0 7574.92150614 0 -1695.84401338 0 -495.25521733 0 2784
0.05250000 0.05249300 35740.71669383 0 966.84403861 0 7656.30870934 0 -3186.07941774 0 -1281.51016899 0 3055
0.05350000 0.05348950 34028.23588502 0 1068.09224819 0 9346.08583800 0 -2206.57145045 0 -7009.88047761 0 3009
0.05450000 0.05448610 34166.21037506 0 538.56079581 0 10980.16297557 0 807.07534657 0 -5483.45449761 0 3336
0.05550000 0.05550870 33042.56121224 0 433.19775216 0 10279.54315555 0 530.74704756 0 -4138.38067891 0 3349
0.05650000 0.05647670 32161.14379076 0 585.37673813 0 10037.68851490 0 1554.02087801 0 -5167.56611733 0 3324
0.05750000 0.05747970 32671.67158629 0 -5.96392515 0 9678.31155138 0 646.83527866 0 -4683.11372583 0 3639
0.05850000 0.05849280 31921.68484865 0 440.04878452 0 8744.33294757 0 -1343.33250078 0 -3813.76352663 0 3846
0.05950000 0.05951020 31318.32373467 0 462.92881470 0 10265.56824740 0 242.75857320 0 -1993.11027399 0 3787
0.06050000 0.06049470 31016.64317767 0 163.03726778 0 11200.66706210 0 -1013.68438156 0 -4188.62380109 0 3930
0.06150000 0.06148310 31645.29222070 0 54.83853781 0 9619.63911953 0 805.14436918 0 -4343.92274076 0 4083
0.06250000 0.06249100 32035.59144131 0 -239.84380665 0 12943.31592661 0 -163.92789089 0 -2915.03274672 0 4303
0.06350000 0.06350600 32150.05259381 0 -1064.32235035 0 8613.37918520 0 2535.20361603 0 -189.10823533 0 4470
0.06450000 0.06451750 32821.84639297 0 117.40031970 0 10787.30924304 0 2004.24583573 0 -1595.55741058 0 4479
0.06550000 0.06550280 32985.55245992 0 995.60462142 0 10745.53979533 0 -1439.33790156 0 2343.80283030 0 4636
0.06650000 0.06648880 30468.51622449 0 1438.27314665 0 12321.76524963 0 -1141.56144590 0 -653.75174908 0 4653
0.06750000 0.06749660 30602.27605969 0 992.47690388 0 15425.74762756 0 -1661.93822431 0 1986.82156532 0 5220
0.06850000 0.06852730 29500.69837879 0 642.33558006 0 15448.15184539 0 -992.00885537 0 1443.09781733 0 5029
0.06950000 0.06949320 28942.47843639 0 248.00581848 0 16425.72994441 0 577.61179115 0 1132.87703869 0 5040
0.07050000 0.07048030 28830.56825918 0 -501.67591124 0 15344.22732999 0 1735.67250162 0 328.98153828 0 5475
0.07150000 0.07148790 29278.31987998 0 -392.74704777 0 12553.79308978 0 3205.28937085 0 -1242.91280361 0 5509
0.07250000 0.07249820 29818.23934742 0 -82.73755643 0 11400.53043111 0 1738.47857445 0 1908.10734058 0 5916
0.07350000 0.07351270 29256.35931002 0 524.94635156 0 9048.74193901 0 354.43250792 0 -575.10518064 0 5721
0.07450000 0.07449140 28328.80250924 0 813.46276689 0 9872.23003883 0 378.93850757 0 1571.43405722 0 6028
0.07550000 0.07549160 26364.55152971 0 886.18552704 0 7636.27800765 0 1091.91613924 0 -268.40696615 0 6183
0.07650000 0.07648840 25806.66432322 0 464.53038354 0 8462.64981868 0 1079.91102766 0 1497.61105033 0 6330
0.07750000 0.07749960 24357.26670602 0 402.09249032 0 6931.33262082 0 1035.90337641 0 138.04547370 0 6583
0.07850000 0.07848650 25166.25861143 0 181.80357302 0 6612.49398215 0 1277.17351098 0 2234.53235796 0 6549
0.07950000 0.07947320 24259.33143697 0 -50.33529002 0 5206.04147954 0 -341.33602256 0 294.40362267 0 6828
0.08050000 0.08048110 24066.89916992 0 256.10461049 0 5289.07017990 0 633.23858032 0 908.33464735 0 7147
0.08150000 0.08149960 23804.03780224 0 636.02912547 0 5839.90338513 0 -1553.90996604 0 -368.58154786 0 7386
0.08250000 0.08250610 22739.28289522 0 359.34036257 0 5080.63331565 0 -10.20161641 0 -1196.81778909 0 7227
0.08350000 0.08350160 22857.95870256 0 370.78425958 0 6708.22210301 0 151.02439237 0 -1234.57222350 0 7798
0.08450000 0.08449610 22284.87655625 0 179.51545909 0 5843.75203047 0 -1061.62497125 0 -2484.74976111 0 7371
0.08550000 0.08548940 21684.17732953 0 478.50861906 0 6016.39760217 0 486.15821759 0 -3418.71727373 0 8256
0.08650000 0.08650700 21085.58543024 0 487.35828510 0 6255.43507880 0 -395.14163720 0 -2923.29568845 0 8037
0.08750000 0.08749060 20504.62853409 0 196.55819232 0 5777.48212871 0 194.16471201 0 -3209.43747851 0 8155
0.08850000 0.08849210 20279.80997195 0 369.92580093 0 6015.64340078 0 812.00427449 0 -2126.24900216 0 8718
0.08950000 0.08949900 19561.10040970 0 405.11484149 0 6571.06836155 0 -49.21164086 0 -2363.93335276 0 8571
0.09050000 0.09049190 19005.43144260 0 614.41238262 0 5890.02450414 0 -332.42646405 0 -1155.41435088 0 8932
0.09150000 0.09150830 18532.72462866 0 197.96566521 0 6867.58042076 0 731.46111138 0 -299.45788112 0 9285
0.09250000 0.09250820 18412.38514177 0 119.54535719 0 7055.55402664 0 224.63555739 0 -313.09118041 0 9204
0.09350000 0.09350330 18173.48075951 0 432.61879168 0 6686.15062108 0 216.85286449 0 1337.89781427 0 9349
0.09450000 0.09448040 17446.89644743 0 299.28153109 0 7530.81181587 0 -238.13687144 0 716.12864071 0 9564
0.09550000 0.09549270 17644.54157705 0 441.10355735 0 7198.40864334 0 -421.94129638 0 699.14690907 0 10155
0.09650000 0.09649430 16639.45730960 0 303.91543318 0 8190.51621035 0 106.89773257 0 480.71576725 0 9913
0.09750000 0.09749140 16712.99194537 0 149.53706285 0 7558.00743079 0 133.46813672 0 1118.56939462 0 10476
0.09850000 0.09850240 16667.29621394 0 -549.66973868 0 7088.22869285 0 1472.01256777 0 378.35400149 0 10575
0.09950000 0.09950330 17008.68325601 0 -230.61260343 0 5385.75214369 0 980.20671269 0 -398.27046385 0 10882
0.10050000 0.10051200 17169.61652373 0 230.84662768 0 4613.50537378 0 118.06911887 0 -154.70556063 0 10875
0.10150000 0.10150300 16687.81492830 0 395.66735993 0 4781.83646986 0 -530.73595637 0 -707.59729202 0 11118
0.10250000 0.10250800 16296.73932390 0 401.15972066 0 5154.20122501 0 -353.71379835 0 -180.36504477 0 11575
0.10350000 0.10349800 15703.80393505 0 181.40539905 0 4346.18534493 0 523.14514117 0 -732.88965754 0 11364
0.10450000 0.10450100 15536.65959704 0 -97.60907695 0 4621.46885319 0 1027.23893335 0 -9.46841065 0 12093
0.10550000 0.10551000 15853.09144597 0 -184.39225838 0 3823.62360072 0 900.93349163 0 -217.97418450 0 12067
0.10650000 0.10649700 15620.95269385 0 151.50353207 0 3870.91646451 0 264.67366925 0 1099.47478996 0 12054
0.10750000 0.10749900 15750.38696223 0 347.59367588 0 3523.82854721 0 -280.83243409 0 1120.27743895 0 12807
0.10850000 0.10850100 15047.87054753 0 303.48953121 0 4347.92666285 0 -372.28046205 0 1236.30245023 0 12736
0.10950000 0.10950300 14960.02826770 0 191.12572405 0 4113.32566501 0 -199.32655507 0 889.97206168 0 12933
0.11050000 0.11050200 14743.41719130 0 141.85751809 0 4671.57888100 0 -45.47424022 0 492.75193418 0 13428
0.11150000 0.11150900 14453.38239111 0 366.64391576 0 5171.45912746 0 -668.24572525 0 591.98376415 0 13453
0.11250000 0.11250000 14341.25038996 0 379.29342588 0 5142.07854674 0 -186.14688574 0 -755.77523333 0 13668
0.11350000 0.11349100 13639.28853511 0 192.07180315 0 5333.03568460 0 -240.62019043 0 -274.83098742 0 13791
0.11450000 0.11448600 13459.94388045 0 137.51198712 0 5281.48380118 0 168.32000489 0 -1041.39684626 0 14205
0.11550000 0.11549300 13429.22126491 0 54.51168023 0 4917.85890924 0 275.37223783 0 -805.58136234 0 14776
0.11650000 0.11649800 13304.11256333 0 149.38511346 0 5074.10060065 0 325.01421713 0 -1612.30511797 0 14553
0.11750000 0.11747300 13040.03116399 0 66.61184337 0 4763.26980617 0 -95.34292359 0 -980.89991250 0 14568
0.11850000 0.11849100 13061.32626214 0 61.35106683 0 4528.10315728 0 502.34360130 0 -767.91122103 0 16015
0.11950000 0.11950300 12836.28587606 0 35.70511395 0 4377.35160836 0 303.83114008 0 -993.61153332 0 15270
0.12050000 0.12050700 12874.21776962 0 91.81204104 0 4331.09022589 0 313.84649092 0 -328.47023410 0 15999
0.12150000 0.12150000 13056.88978336 0 -50.99610354 0 4088.15973913 0 26.65347721 0 -577.94563618 0 15670
0.12250000 0.12250700 12991.00807348 0 -177.09535991 0 4402.14043354 0 320.63319434 0 -234.35033680 0 16887
0.12350000 0.12352200 13127.87344382 0 134.62273032 0 3946.36987734 0 -298.27888689 0 -541.33137681 0 16407
0.12450000 0.12449800 12982.46785183 0 231.79936150 0 4236.55995430 0 -331.07001067 0 -618.90099003 0 16306
0.12550000 0.12549900 12777.28070829 0 232.47259715 0 4910.69399601 0 -71.99429033 0 -484.79510949 0 17523
0.12650000 0.12650100 12616.79108845 0 61.59440769 0 4265.80744065 0 127.35799632 0 -557.78738572 0 17154
0.12750000 0.12750600 12616.01470466 0 -87.22649658 0 4667.06476384 0 325.62090560 0 -491.14703798 0 18007
0.12850000 0.12850300 12585.95756093 0 134.43639821 0 4089.35758840 0 -98.74792105 0 -891.62021355 0 17496
0.12950000 0.12949900 12564.10790295 0 66.50159687 0 4399.20126635 0 166.38126366 0 -790.33983950 0 18405
0.13050000 0.13049000 12286.82797924 0 135.74959593 0 4016.42187727 0 -104.56370108 0 -1073.82306965 0 18100
0.13150000 0.13148800 12317.55059479 0 40.80151895 0 4505.39947713 0 229.70090704 0 -255.21509650 0 19059
0.13250000 0.13249300 12131.88395787 0 18.09118408 0 3807.99610422 0 429.43894552 0 -1149.82438762 0 18957
0.13350000 0.13349100 12173.47594643 0 -46.36142507 0 4008.02584118 0 222.46279191 0 -210.12272618 0 19468
0.13450000 0.13450700 12234.69935358 0 -28.47043709 0 3283.34921498 0 358.38873787 0 -767.75372603 0 19953
0.13550000 0.13551000 12248.89608568 0 85.52344328 0 3262.20939359 0 354.96377625 0 -100.81365648 0 19956
0.13650000 0.13649900 12185.12170323 0 105.57721466 0 2800.37195267 0 -260.52223424 0 -863.41973619 0 19723
0.13750000 0.13749600 11845.73107661 0 301.34671196 0 3442.13079049 0 -455.89477760 0 -1015.48891931 0 20946
0.13850000 0.13851100 11603.16659935 0 264.04479839 0 3357.87096727 0 -217.05139692 0 -1001.37648031 0 20955
0.13950000 0.13949800 11118.70311665 0 116.08712198 0 3541.72973908 0 50.28926155 0 -1243.97755852 0 20506
0.14050000 0.14048300 11346.40539000 0 44.99920426 0 3339.23775640 0 232.07885966 0 -1176.08834200 0 21447
0.14150000 0.14148400 11062.88112241 0 28.16775833 0 3090.21820252 0 498.97631391 0 -1307.44138745 0 21771
0.14250000 0.14249400 11074.34942006 0 61.64331987 0 2740.27984760 0 528.70737644 0 -1224.13540718 0 22470
0.14350000 0.14350900 10929.54275270 0 9.15342066 0 2396.39728622 0 94.59038588 0 -1078.09983520 0 22519
0.14450000 0.14449900 10842.99814292 0 147.32325994 0 2113.68267601 0 56.46661461 0 -984.57109869 0 22218
0.14550000 0.14550500 10538.89970499 0 147.86007388 0 2205.69524590 0 63.34238033 0 -814.97006056 0 23559
0.14650000 0.14650700 10578.73928443 0 42.56113735 0 1921.89369838 0 -6.17266148 0 -1258.76212405 0 23044
0.14750000 0.14750500 10637.10116277 0 -43.62944144 0 1801.90912980 0 427.09426648 0 -673.85787091 0 23649
0.14850000 0.14849900 10346.52289392 0 87.89019380 0 1717.99313369 0 39.86619831 0 -1431.71824926 0 23640
0.14950000 0.14949500 10531.53515022 0 55.21597124 0 1494.52769758 0 -250.19300252 0 -965.48980346 0 24457
0.15050000 0.15050000 10193.79711194 0 249.16706680 0 2305.10564414 0 -92.24437590 0 -938.42062819 0 24591
0.15150000 0.15149900 10054.32531032 0 316.25217154 0 2087.17471531 0 -430.81869042 0 -938.03798190 0 25020
0.15250000 0.15250500 9735.34248609 0 187.79060113 0 2588.35263181 0 -41.22819730 0 -472.39182394 0 25297
0.15350000 0.15350100 9431.79860801 0 227.61354377 0 2936.51639521 0 -66.91396757 0 -397.16134416 0 25452
0.15450000 0.15450400 9370.39774171 0 135.31371189 0 2903.78627301 0 -68.03783856 0 -427.63108042 0 26061
0.15550000 0.15549900 9152.47790407 0 126.96647706 0 3397.64399953 0 103.80118129 0 -107.33206384 0 26128
0.15650000 0.15649500 9093.01799723 0 113.56387467 0 3129.85814041 0 242.49682096 0 59.48608206 0 26331
0.15750000 0.15749700 8925.08618423 0 -13.12620976 0 3174.30056658 0 41.65831391 0 14.14626715 0 27345
0.15850000 0.15849900 9053.69970405 0 11.82809607 0 2968.14848890 0 388.90505715 0 669.26056977 0 26980
0.15950000 0.15949700 9118.76066534 0 -132.14828428 0 2502.46240264 0 585.92686150 0 372.75405616 0 27777
0.16050000 0.16050000 9113.25943166 0 -10.53691438 0 2149.71797490 0 201.53592151 0 461.24738925 0 28224
0.16150000 0.16150500 8982.26130450 0 214.95072422 0 2341.38494936 0 -273.65532054 0 416.99129518 0 28075
0.16250000 0.16249700 8745.28679051 0 267.54850750 0 2741.12277857 0 -509.86343283 0 393.44246582 0 28590
0.16350000 0.16349900 8545.51215108 0 112.08652724 0 2454.62607020 0 4.83544022 0 347.52601958 0 29163
0.16450000 0.16449100 8463.22656092 0 12.63941713 0 2944.83479292 0 217.37747811 0 66.93581723 0 28996
0.16550000 0.16550500 8443.99442541 0 12.14796619 0 2409.21870990 0 186.77464749 0 363.66149290 0 30777
0.16650000 0.16650700 8509.83177049 0 33.86785718 0 2404.16112409 0 330.59752568 0 271.18198362 0 29211
0.16750000 0.16749900 8398.16559962 0 23.87169410 0 2158.19164937 0 205.72173924 0 749.60852782 0 30922
0.16850000 0.16850800 8428.98803594 0 134.97875774 0 2266.24209004 0 -100.12855325 0 540.68697827 0 30867
0.16950000 0.16949900 8216.43633762 0 98.54783586 0 2071.61376599 0 47.30251313 0 728.32895736 0 30852
0.17050000 0.17049200 8048.60434540 0 132.89361271 0 2359.43032680 0 -167.74437176 0 625.46919686 0 31257
0.17150000 0.17149500 7960.59569762 0 67.71952121 0 2373.74906206 0 45.80841799 0 257.91691207 0 32608
0.17250000 0.17250900 8022.89495088 0 4.90362890 0 2316.32993545 0 151.36821947 0 591.48909677 0 32361
0.17350000 0.17350400 7839.57964772 0 73.94423367 0 2024.63145572 0 26.52548480 0 -229.87947531 0 32508
0.17450000 0.17449800 7830.19649510 0 97.48929202 0 2212.33887287 0 -83.62829046 0 584.11566904 0 32791
0.17550000 0.17549800 7776.38200750 0 43.07876351 0 1864.96258445 0 171.87916999 0 76.01984027 0 33633
0.17650000 0.17650100 7740.33561742 0 -66.98084749 0 1831.46716967 0 569.95664701 0 582.02719665 0 33984
0.17750000 0.17750300 7760.80996699 0 -2.97683290 0 1463.38361655 0 134.60498440 0 568.75325215 0 34069
0.17850000 0.17849800 7769.29473265 0 119.35680684 0 1567.38577033 0 207.60169712 0 700.23717373 0 34536
