### header ###
fiducial parameters:
Omega_m = 0.31
Omega_nu = 0
Omega_de = 0.69
Omega_k = 0
H_0 = 100
w_de = -1
zeff = 0
beta = 0
fgrowth = 0
b_1 = 2
gamma = 0.55
Lx = 3500 Ly = 3500 Lz = 3500
nx = 700 ny = 700 nz = 700
xoffset = 1379.75464 yoffset = 22.6059522 zoffset = 368.141391
bins = 400 dk = 0.001
kx_ny = 0.628318531 ky_ny = 0.628318531 kz_ny = 0.628318531
############################
A(data) = 3.31773941 (not used)
A(ran) = 3.31546411 (used)
Ngal = 186378
weighted Ngal = 0
Nran = 9399747
weighted Nran = 0
SN(data) = 6718.41339
SN(ran) = 131.873854
SN(data+ran) = 6850.28725
############################
13 columns: k_central k_mean P_0(k) sigma^{lin}_{P_0(k)} P^img_1(k) sigma^{lin}_{P_1(k)} P_2(k) sigma^{lin}_{P_2(k)} P^img_3(k) sigma^{lin}_{P_3(k)} P_4(k) sigma^{lin}_{P_4(k)} N_modes
### header ###
0.00050000 0 0 0 0 0 0 0 0 0 0 0 0
0.00150000 0.00179520 26100.35921840 0 -21807.62235156 0 -38308.21787537 0 56803.01061047 0 -18683.78673110 0 3
0.00250000 0.00253879 36225.62382441 0 -19269.29101799 0 1641.06459166 0 -54548.05935893 0 3736.03641842 0 6
0.00350000 0.00331552 50187.66619071 0 -9500.43093473 0 -52914.21513649 0 18874.66623058 0 -6501.78165421 0 7
0.00450000 0.00420575 55204.76913024 0 -2922.19765995 0 -26370.42986409 0 -19440.31727494 0 -7157.78158891 0 24
0.00550000 0.00557378 52579.92646047 0 2222.43186209 0 -16750.70201499 0 -34230.20658145 0 -9612.76257742 0 45
0.00650000 0.00659388 54072.24700985 0 -60.00204455 0 13497.65395008 0 -24318.11478079 0 -20758.06238435 0 40
0.00750000 0.00754703 50235.02560168 0 6732.36763877 0 21925.52177512 0 -20082.94122612 0 5291.28841929 0 57
0.00850000 0.00846663 46791.65259713 0 7877.40062931 0 26880.84674765 0 -4918.62420183 0 -6584.68835140 0 75
0.00950000 0.00948925 50125.88822371 0 -9382.50932877 0 21476.32829872 0 33246.97197199 0 22565.26201510 0 112
0.01050000 0.01054430 61957.86621610 0 -12795.91391916 0 11215.30744207 0 46465.68231882 0 32050.45364522 0 105
0.01150000 0.01145670 85395.11813527 0 -15368.62796327 0 -14555.31049106 0 28027.56560013 0 25218.60906102 0 144
0.01250000 0.01249090 88162.70450976 0 -3978.15724780 0 -16686.59489663 0 6378.80246245 0 33144.26748825 0 169
0.01350000 0.01339930 89305.87417921 0 13100.36727539 0 -20546.88599446 0 -29210.10901875 0 31812.76929462 0 180
0.01450000 0.01448870 82746.09665615 0 5286.61902537 0 18379.22246290 0 -19443.31189811 0 33778.57304172 0 267
0.01550000 0.01550050 74290.16810283 0 3967.16587162 0 8401.72587384 0 6479.42180117 0 5765.83637191 0 238
0.01650000 0.01653350 75372.89074891 0 -74.68035641 0 29416.18345805 0 1617.69543969 0 17648.64531992 0 315
0.01750000 0.01747870 75946.30563114 0 -1045.89321750 0 21765.91945104 0 14942.72600046 0 12822.42187987 0 297
0.01850000 0.01844180 66685.37800331 0 2705.44239799 0 18736.69174054 0 9554.52270224 0 24442.44709858 0 388
0.01950000 0.01947590 75732.91100185 0 1080.63750106 0 18732.47708570 0 -4466.07009275 0 20512.39237195 0 399
0.02050000 0.02045430 71001.51729571 0 -15.28588763 0 17473.84805602 0 10415.28831500 0 12588.95218411 0 462
0.02150000 0.02154770 72347.54495735 0 2573.76770782 0 21779.89435919 0 -458.94707500 0 8156.36641495 0 571
0.02250000 0.02255340 62454.97366332 0 5096.20535616 0 19293.91347522 0 -13289.91583124 0 8903.89090687 0 510
0.02350000 0.02348930 59200.92739068 0 5725.10949672 0 24563.11932138 0 -1625.34836558 0 -2921.80946806 0 555
0.02450000 0.02439640 55022.09711650 0 1007.83155693 0 28253.27145802 0 848.03070042 0 -2442.51448313 0 592
0.02550000 0.02547300 54949.22795255 0 -1158.83043954 0 23962.75283057 0 7266.37549823 0 -7298.55106058 0 837
0.02650000 0.02652900 56725.59405578 0 -465.27460286 0 20581.93417682 0 4170.48969408 0 -9838.71244165 0 723
0.02750000 0.02749970 57723.46904521 0 491.54632107 0 16675.50369968 0 -1867.90175164 0 -5954.20926088 0 826
0.02850000 0.02848090 53971.64985353 0 3269.11920929 0 21074.71605723 0 -4934.27388072 0 -13746.76223354 0 831
0.02950000 0.02946900 55724.16988332 0 2644.32990280 0 25195.87210728 0 -4672.63254471 0 -11443.89701118 0 996
0.03050000 0.03053250 49733.59258765 0 1041.55766861 0 31310.89263271 0 -4191.04168202 0 -6254.65869501 0 1041
0.03150000 0.03150510 49117.25477323 0 2218.80504069 0 29499.03469925 0 7211.01933427 0 -10543.38054856 0 1036
0.03250000 0.03246190 50361.68707082 0 -305.47152811 0 35526.98932864 0 -2292.72786835 0 -1950.25388898 0 1059
0.03350000 0.03345080 47025.56594077 0 1048.07596506 0 28504.70889284 0 5936.35243379 0 -5712.57644417 0 1302
0.03450000 0.03451200 50069.54494321 0 251.50176376 0 37921.02418991 0 4488.54085776 0 13464.82400711 0 1339
0.03550000 0.03553350 46711.46324320 0 -695.04982091 0 29339.87602304 0 5460.22953120 0 4997.19424101 0 1365
0.03650000 0.03647120 50327.41527225 0 -195.86388339 0 32008.41800878 0 5200.91734655 0 9547.55743056 0 1308
0.03750000 0.03744890 48737.82492564 0 265.21381055 0 26598.57578532 0 305.62458663 0 7521.83903754 0 1579
0.03850000 0.03847530 48641.10968825 0 1046.37568457 0 26552.65822995 0 -717.66477149 0 6291.55910726 0 1662
0.03950000 0.03950240 48119.93434365 0 810.44152484 0 28867.05829714 0 1990.86985221 0 5939.43578655 0 1683
0.04050000 0.04050350 46064.51372521 0 721.08529663 0 20062.31159979 0 -382.92357464 0 -4770.16853067 0 1822
0.04150000 0.04152450 45789.45204089 0 574.29219590 0 23269.22028540 0 4316.84912901 0 -853.09272271 0 1887
0.04250000 0.04250150 44791.90978737 0 139.17233931 0 15212.79664615 0 1768.22516467 0 -6045.91127725 0 1920
0.04350000 0.04349210 43183.90805381 0 1539.21413008 0 20828.82422088 0 885.50452755 0 -4031.86082342 0 2005
0.04450000 0.04448520 40439.83501685 0 1323.11324874 0 13321.85847845 0 -85.92072996 0 -10479.47307174 0 2151
0.04550000 0.04548030 38611.78393585 0 917.29078888 0 16483.40416854 0 -3325.12975388 0 -10232.92685478 0 2274
0.04650000 0.04648670 37340.95458952 0 2001.35103332 0 16028.66509366 0 -3209.87003519 0 -14181.31532997 0 2311
0.04750000 0.04749250 36688.57038503 0 154.97396760 0 17673.82233699 0 169.22837392 0 -14856.43648821 0 2568
0.04850000 0.04851840 35618.26987952 0 -191.85885217 0 14595.46062401 0 2491.17156415 0 -16624.59510569 0 2493
0.04950000 0.04949480 37578.08438027 0 -359.50783964 0 15433.62237739 0 2285.80696145 0 -15266.36712741 0 2644
0.05050000 0.05050630 37450.53561537 0 -487.54794457 0 11293.83311647 0 2735.26662658 0 -11095.30069109 0 2829
0.05150000 0.05149060 36280.63616127 0 -13.35391204 0 12617.01291239 0 1400.13052035 0 -8564.15645315 0 2784
0.05250000 0.05249300 38110.57274576 0 1000.57347765 0 9416.62585059 0 -1275.55419623 0 -8602.83145690 0 3055
0.05350000 0.05348950 36040.28992340 0 550.73671182 0 14437.07833159 0 81.63498055 0 -8341.64485997 0 3009
0.05450000 0.05448610 34712.11908885 0 1087.06152233 0 13119.11139824 0 -2194.90351127 0 -4237.43615886 0 3336
0.05550000 0.05550870 35438.25975305 0 -12.99755188 0 14307.31132730 0 2239.43466701 0 -7929.48489018 0 3349
0.05650000 0.05647670 35240.94735934 0 -366.17143077 0 15409.22174410 0 -267.27566406 0 -5822.62330029 0 3324
0.05750000 0.05747970 34764.91318633 0 1043.05387108 0 14992.74729870 0 -1961.04562361 0 -9043.22961413 0 3639
0.05850000 0.05849280 34722.21207808 0 942.55098993 0 16912.96622634 0 -151.33494588 0 -5753.94660878 0 3846
0.05950000 0.05951020 32904.03216235 0 506.44956241 0 16907.75336378 0 -341.21623763 0 -6438.78365555 0 3787
0.06050000 0.06049470 32247.76603893 0 950.24162590 0 17556.14473737 0 656.87613926 0 -6403.31400771 0 3930
0.06150000 0.06148310 31587.72890854 0 494.99346508 0 16967.20217942 0 3049.80188084 0 -2089.90314976 0 4083
0.06250000 0.06249100 30036.18136745 0 474.06770380 0 14767.92873656 0 1756.06921281 0 -2392.40445532 0 4303
0.06350000 0.06350600 29918.72559177 0 119.48435560 0 14068.40694503 0 2946.57611084 0 -239.05522254 0 4470
0.06450000 0.06451750 30169.94120265 0 -216.15411908 0 12094.39571219 0 129.22353564 0 -1736.85925970 0 4479
0.06550000 0.06550280 29499.47834713 0 409.84523699 0 12831.07301349 0 -1366.70165275 0 -641.70338183 0 4636
0.06650000 0.06648880 29722.30049382 0 658.45441658 0 13639.95400692 0 -1848.63634254 0 -2318.44835407 0 4653
0.06750000 0.06749660 29129.14328103 0 -15.91409303 0 13822.51510869 0 -316.66476407 0 -3015.18625516 0 5220
0.06850000 0.06852730 29640.00381246 0 -709.41513920 0 13440.75610973 0 1310.30291627 0 -4210.16290556 0 5029
0.06950000 0.06949320 30265.65823231 0 133.45039080 0 15300.19527810 0 1120.77654281 0 -3382.87052519 0 5040
0.07050000 0.07048030 30025.31199444 0 444.56179256 0 13552.33355103 0 343.64520976 0 -2320.31167516 0 5475
0.07150000 0.07148790 29610.16849267 0 721.24168251 0 15733.19560696 0 -577.33118387 0 -1364.06194787 0 5509
0.07250000 0.07249820 28746.71881025 0 895.78606712 0 16066.48607526 0 57.58771279 0 -594.78318226 0 5916
0.07350000 0.07351270 27657.78509387 0 706.32069525 0 15907.54922299 0 1031.37151333 0 1221.17405759 0 5721
0.07450000 0.07449140 27197.05677265 0 110.34454385 0 16241.72698704 0 1249.70061614 0 676.43324684 0 6028
0.07550000 0.07549160 27212.36262443 0 214.34403574 0 14777.35625396 0 2052.79200477 0 1984.10422207 0 6183
0.07650000 0.07648840 26385.29206800 0 396.04667887 0 14665.88972463 0 1691.46299059 0 3362.47381400 0 6330
0.07750000 0.07749960 25897.94487410 0 92.71719362 0 12559.56051220 0 1699.93666506 0 5076.18574567 0 6583
0.07850000 0.07848650 25191.10289259 0 410.74473306 0 11836.74720708 0 1721.47576953 0 4377.32942596 0 6549
0.07950000 0.07947320 24659.50182286 0 420.15450455 0 10614.83003930 0 1202.44102594 0 7183.10279155 0 6828
0.08050000 0.08048110 23875.90875847 0 282.94974359 0 10798.83299667 0 1663.60190385 0 6959.52644346 0 7147
0.08150000 0.08149960 23799.93405937 0 273.73517716 0 8880.89885559 0 1156.93384487 0 9299.95754989 0 7386
0.08250000 0.08250610 23274.54405994 0 262.29238927 0 8676.35500147 0 1026.19525172 0 7170.56973900 0 7227
0.08350000 0.08350160 23042.84895569 0 196.83769048 0 7584.19374679 0 109.03788993 0 8663.08992992 0 7798
0.08450000 0.08449610 22706.89660013 0 58.43452568 0 8293.77525394 0 264.77459915 0 9498.65634322 0 7371
0.08550000 0.08548940 23163.29935455 0 394.78671889 0 7309.94171985 0 25.36822931 0 5477.26560971 0 8256
0.08650000 0.08650700 21997.17090741 0 -7.78724029 0 8523.65140189 0 199.15020504 0 6332.54107998 0 8037
0.08750000 0.08749060 22018.90965343 0 309.92575280 0 6907.77491850 0 -102.88981764 0 3894.92890590 0 8155
0.08850000 0.08849210 22152.22584075 0 243.40629911 0 7235.55306192 0 118.90095864 0 5188.37320280 0 8718
0.08950000 0.08949900 21251.73156052 0 341.84954498 0 6538.41587773 0 438.24202854 0 2738.28343215 0 8571
0.09050000 0.09049190 20807.52912274 0 594.84640209 0 7372.11896994 0 -376.50953544 0 3250.36399525 0 8932
0.09150000 0.09150830 19854.35165701 0 602.27528580 0 6866.12747396 0 -536.19282526 0 986.40225531 0 9285
0.09250000 0.09250820 19087.83903592 0 644.34086847 0 8061.66977541 0 -1738.06820017 0 1109.56334270 0 9204
0.09350000 0.09350330 18746.11925795 0 415.43852761 0 8826.41889618 0 -242.35485364 0 -60.28975020 0 9349
0.09450000 0.09448040 18244.02077210 0 -19.47214901 0 8219.94115586 0 682.35483689 0 -266.30851168 0 9564
0.09550000 0.09549270 18213.85271640 0 -99.76897664 0 7854.66367556 0 422.47367384 0 -663.94455907 0 10155
0.09650000 0.09649430 18474.82858059 0 81.84127681 0 6831.55621308 0 1024.56151841 0 -640.88485150 0 9913
0.09750000 0.09749140 17988.47959441 0 120.37386960 0 7581.27676199 0 429.13061024 0 -104.78485955 0 10476
0.09850000 0.09850240 18220.84017048 0 296.38007397 0 6176.23284139 0 280.30671135 0 114.36687733 0 10575
0.09950000 0.09950330 17731.38564915 0 -26.34336734 0 6979.08022368 0 410.26448423 0 579.56938741 0 10882
0.10050000 0.10051200 17588.19829655 0 57.72446725 0 5784.83559228 0 703.72757341 0 659.99165648 0 10875
0.10150000 0.10150300 17498.24868930 0 -50.15494716 0 5839.08263656 0 663.07722747 0 205.96796381 0 11118
0.10250000 0.10250800 17647.42528826 0 34.02091570 0 5161.55468858 0 642.50860273 0 1956.17658815 0 11575
0.10350000 0.10349800 17337.09359764 0 232.13542477 0 4652.12492155 0 609.34259650 0 876.19235859 0 11364
0.10450000 0.10450100 17156.63982330 0 274.00469325 0 4374.84499785 0 332.06710927 0 2391.33970042 0 12093
0.10550000 0.10551000 16538.08376949 0 209.53267451 0 4174.93726405 0 446.95305462 0 2253.55376073 0 12067
0.10650000 0.10649700 16472.42388356 0 145.58526938 0 3680.85771360 0 405.67383782 0 3347.51178932 0 12054
0.10750000 0.10749900 15936.71907096 0 304.36795401 0 4228.49665412 0 -84.36086402 0 2011.02255706 0 12807
0.10850000 0.10850100 15812.60857711 0 275.50644131 0 3968.97373672 0 -494.16273443 0 2309.14283983 0 12736
0.10950000 0.10950300 15481.09270033 0 259.31551201 0 4570.82644792 0 -590.69496707 0 1590.88801666 0 12933
0.11050000 0.11050200 15123.17977481 0 244.70840563 0 4896.02034244 0 -807.77076462 0 892.79920778 0 13428
0.11150000 0.11150900 15084.47149746 0 61.58742024 0 5161.98724526 0 489.02861936 0 1193.94516908 0 13453
0.11250000 0.11250000 15005.50217519 0 -17.47662086 0 4817.68321840 0 330.49659578 0 312.53551144 0 13668
0.11350000 0.11349100 15174.31019274 0 -82.41968273 0 4298.21591813 0 605.67473767 0 565.78413872 0 13791
0.11450000 0.11448600 15058.62900857 0 216.96821294 0 4605.54189437 0 19.67378697 0 -57.49088665 0 14205
0.11550000 0.11549300 14734.43332177 0 391.01903929 0 4511.47745305 0 -489.14064045 0 870.67448811 0 14776
0.11650000 0.11649800 14127.96667265 0 506.66140427 0 4808.31115698 0 -281.48792383 0 57.51373451 0 14553
0.11750000 0.11747300 13753.74968761 0 75.32697319 0 4806.38128871 0 316.05585736 0 1155.04834138 0 14568
0.11850000 0.11849100 13681.98964336 0 -207.00609984 0 3958.89183870 0 1314.77266864 0 95.86709356 0 16015
0.11950000 0.11950300 13780.70129620 0 -92.79904666 0 3683.94106635 0 628.26196025 0 346.11078285 0 15270
0.12050000 0.12050700 13792.67978890 0 154.80759964 0 2878.95308305 0 -289.27948968 0 450.56767570 0 15999
0.12150000 0.12150000 13637.18120769 0 315.35711195 0 3804.51346838 0 -699.02601502 0 309.55419771 0 15670
0.12250000 0.12250700 13374.31984001 0 109.38448984 0 3347.02377666 0 -382.97237590 0 -136.04573089 0 16887
0.12350000 0.12352200 13316.20196801 0 -105.75522837 0 3490.79896270 0 537.47053115 0 -584.73344871 0 16407
0.12450000 0.12449800 13451.95821865 0 9.87328370 0 3722.99317081 0 28.61184986 0 -516.86419634 0 16306
0.12550000 0.12549900 13785.35959892 0 4.54274354 0 3304.68867790 0 -34.68405836 0 -984.02541180 0 17523
0.12650000 0.12650100 13366.66691412 0 156.90383587 0 4020.12633705 0 -326.36956140 0 -1083.49681163 0 17154
0.12750000 0.12750600 13271.72626824 0 492.09533532 0 4143.75990943 0 -1180.64682394 0 -874.92907126 0 18007
0.12850000 0.12850300 12475.48923933 0 409.43486270 0 5001.12052473 0 -395.84592820 0 -1508.34732897 0 17496
0.12950000 0.12949900 12795.02662341 0 -7.25692580 0 5047.25990403 0 479.17519999 0 -864.17504670 0 18405
0.13050000 0.13049000 12329.97273537 0 -148.94479294 0 5074.99898760 0 609.31597762 0 -1352.06127278 0 18100
0.13150000 0.13148800 12640.19351401 0 119.73723489 0 4725.36009500 0 564.24135323 0 -109.98496724 0 19059
0.13250000 0.13249300 12634.75882751 0 -54.48339768 0 4360.29334745 0 -64.14871035 0 -641.96291584 0 18957
0.13350000 0.13349100 12485.58222855 0 119.11501875 0 4271.56377187 0 327.44984398 0 -526.55679336 0 19468
0.13450000 0.13450700 12525.62144954 0 142.46531568 0 4469.68582295 0 -84.39513582 0 49.65650877 0 19953
0.13550000 0.13551000 12192.10915730 0 -55.76465275 0 3768.23416316 0 350.44854997 0 -163.17036214 0 19956
0.13650000 0.13649900 12371.67563589 0 -77.82537622 0 3812.07766469 0 892.88571912 0 434.32794513 0 19723
0.13750000 0.13749600 12404.61649083 0 10.94324038 0 3079.96993654 0 498.97742302 0 -168.90894744 0 20946
0.13850000 0.13851100 12317.10694691 0 112.48913769 0 2823.74110464 0 593.69624496 0 888.41929411 0 20955
0.13950000 0.13949800 12124.00920804 0 169.35703180 0 2332.35671504 0 -182.98145813 0 656.59885933 0 20506
0.14050000 0.14048300 11613.25958858 0 292.56470222 0 2883.91084808 0 -454.65145442 0 922.00676583 0 21447
0.14150000 0.14148400 11399.31039944 0 306.24014806 0 2706.90643599 0 -115.81316941 0 224.52686366 0 21771
0.14250000 0.14249400 11175.71186897 0 176.09271571 0 3124.56763947 0 -149.10894265 0 725.58277699 0 22470
0.14350000 0.14350900 10874.66351020 0 53.97553177 0 2638.99503707 0 184.35233007 0 -98.47396849 0 22519
0.14450000 0.14449900 10968.16230048 0 121.59057390 0 3196.95988195 0 219.98834587 0 165.61929843 0 22218
0.14550000 0.14550500 10527.00994186 0 275.86801433 0 2955.90380747 0 -245.98167504 0 -71.57105026 0 23559
0.14650000 0.14650700 10305.82929232 0 188.57142139 0 2790.44533140 0 -122.17175262 0 -147.98429528 0 23044
0.14750000 0.14750500 10312.33982493 0 9.03319208 0 2999.88040337 0 154.34066025 0 6.54190960 0 23649
0.14850000 0.14849900 10117.87786883 0 -0.04326077 0 2782.65931114 0 102.64836228 0 -249.11715641 0 23640
0.14950000 0.14949500 10247.36759320 0 98.65908057 0 2600.74149880 0 256.46063791 0 61.49902340 0 24457
0.15050000 0.15050000 10046.91639076 0 71.51503971 0 2524.14569267 0 144.97525355 0 -221.60766062 0 24591
0.15150000 0.15149900 10102.78274979 0 45.02371580 0 2804.24278040 0 -7.57935798 0 -81.54037264 0 25020
0.15250000 0.15250500 9833.18902557 0 103.65688482 0 2477.06356163 0 -106.07997862 0 -234.92818816 0 25297
0.15350000 0.15350100 9959.39575564 0 98.49559632 0 2764.30338019 0 -161.85050971 0 -176.24577423 0 25452
0.15450000 0.15450400 9741.73101553 0 40.35820381 0 2744.25049611 0 202.24686723 0 -306.05048859 0 26061
0.15550000 0.15549900 9830.98187737 0 43.42691618 0 2755.07550433 0 170.51717100 0 94.47858661 0 26128
0.15650000 0.15649500 9693.01847854 0 -6.40903707 0 2513.85306191 0 421.21371386 0 60.18471656 0 26331
0.15750000 0.15749700 9663.32734431 0 119.37455275 0 2535.04833927 0 90.48564480 0 252.61531993 0 27345
0.15850000 0.15849900 9546.31521650 0 199.76576647 0 2167.29752206 0 -155.73371459 0 555.09000663 0 26980
0.15950000 0.15949700 9322.58359166 0 212.06368565 0 2896.42171824 0 -153.34688901 0 735.89315368 0 27777
0.16050000 0.16050000 9116.88625306 0 108.24298385 0 2712.31894010 0 -102.14582015 0 576.62911110 0 28224
0.16150000 0.16150500 8992.63157365 0 137.48647737 0 3059.58431655 0 -210.89245525 0 284.75206309 0 28075
0.16250000 0.16249700 8845.36266057 0 122.98251912 0 3058.53065284 0 47.42329626 0 3.46610996 0 28590
0.16350000 0.16349900 8738.85389628 0 80.43502395 0 3291.24614720 0 -43.86612758 0 562.70411333 0 29163
0.16450000 0.16449100 8782.04301719 0 -18.79070587 0 3129.90250520 0 273.31703904 0 308.47058776 0 28996
0.16550000 0.16550500 8743.55656378 0 29.97994900 0 3045.49849642 0 193.66338991 0 479.19072767 0 30777
0.16650000 0.16650700 8738.78734910 0 44.85357684 0 3025.24597079 0 49.34085330 0 325.10294671 0 29211
0.16750000 0.16749900 8586.86013330 0 87.69631968 0 2776.88079753 0 289.43032996 0 867.71646589 0 30922
0.16850000 0.16850800 8576.90023844 0 42.43270128 0 2932.55683790 0 218.08065999 0 647.24676207 0 30867
0.16950000 0.16949900 8469.73709353 0 99.78727712 0 2688.53941384 0 114.90369126 0 1034.31178965 0 30852
0.17050000 0.17049200 8304.57807977 0 156.92490914 0 2538.12060083 0 107.18444001 0 759.58616860 0 31257
0.17150000 0.17149500 8031.71245245 0 130.68424628 0 2560.41390669 0 173.44191964 0 1069.16254870 0 32608
0.17250000 0.17250900 7940.34317199 0 75.75930805 0 2399.74682770 0 176.80366143 0 1392.56632403 0 32361
0.17350000 0.17350400 7858.73414484 0 36.02919873 0 2142.41996731 0 214.35734518 0 917.84091225 0 32508
0.17450000 0.17449800 7836.56284215 0 135.36140403 0 2284.85311852 0 -103.58967217 0 899.54931025 0 32791
0.17550000 0.17549800 7646.77027997 0 149.99291105 0 1915.12806825 0 -269.91980541 0 524.34631780 0 33633
0.17650000 0.17650100 7423.10520231 0 120.95837568 0 2304.71745225 0 -137.97670828 0 812.95479007 0 33984
0.17750000 0.17750300 7331.66937467 0 84.15833876 0 2424.90166238 0 -24.26864804 0 497.28157901 0 34069
0.17850000 0.17849800 7437.61248792 0 -45.25341449 0 1931.35448938 0 333.04978932 0 444.82687216 0 34536
