### header ###
fiducial parameters:
Omega_m = 0.31
Omega_nu = 0
Omega_de = 0.69
Omega_k = 0
H_0 = 100
w_de = -1
zeff = 0
beta = 0
fgrowth = 0
b_1 = 2
gamma = 0.55
Lx = 3500 Ly = 3500 Lz = 3500
nx = 700 ny = 700 nz = 700
xoffset = 1379.75464 yoffset = 22.6059522 zoffset = 368.141391
bins = 400 dk = 0.001
kx_ny = 0.628318531 ky_ny = 0.628318531 kz_ny = 0.628318531
############################
A(data) = 3.33640615 (not used)
A(ran) = 3.33801403 (used)
Ngal = 187337
weighted Ngal = 0
Nran = 9399747
weighted Nran = 0
SN(data) = 6639.50193
SN(ran) = 132.770786
SN(data+ran) = 6772.27271
############################
13 columns: k_central k_mean P_0(k) sigma^{lin}_{P_0(k)} P^img_1(k) sigma^{lin}_{P_1(k)} P_2(k) sigma^{lin}_{P_2(k)} P^img_3(k) sigma^{lin}_{P_3(k)} P_4(k) sigma^{lin}_{P_4(k)} N_modes
### header ###
0.00050000 0 0 0 0 0 0 0 0 0 0 0 0
0.00150000 0.00179520 26623.86371436 0 -22289.20212306 0 -29391.45008885 0 14950.48983833 0 39903.13199653 0 3
0.00250000 0.00253879 55408.84715408 0 -30229.72275420 0 -40318.49732224 0 -14315.51881304 0 10644.76517986 0 6
0.00350000 0.00331552 64334.93154604 0 -16955.77824656 0 -35384.46744785 0 -48216.31684513 0 -25993.32916785 0 7
0.00450000 0.00420575 75196.54071744 0 -1590.47764238 0 -40033.45356067 0 -46206.25922220 0 -10414.30119847 0 24
0.00550000 0.00557378 55547.81985184 0 9688.20489906 0 -11563.12737837 0 -40036.78091975 0 -15177.63755183 0 45
0.00650000 0.00659388 56053.80025662 0 11857.70956931 0 -3121.57301629 0 -27390.70907136 0 -8632.25640241 0 40
0.00750000 0.00754703 40953.02469965 0 2099.68558546 0 6617.54047676 0 -4061.14158336 0 -17812.79503475 0 57
0.00850000 0.00846663 38183.22008577 0 1168.92342877 0 24298.81609811 0 486.61406579 0 -13876.52923783 0 75
0.00950000 0.00948925 41042.19792311 0 -722.31309213 0 10934.05686986 0 4381.08934173 0 -11494.47286926 0 112
0.01050000 0.01054430 41718.42820104 0 -2490.43954515 0 13457.72564106 0 16025.11591064 0 7616.31385315 0 105
0.01150000 0.01145670 51280.48182602 0 -7432.96527640 0 9651.38212519 0 10501.66655683 0 16347.42609395 0 144
0.01250000 0.01249090 54650.32019479 0 -5280.92924134 0 2304.77290823 0 11664.50091848 0 -823.26516676 0 169
0.01350000 0.01339930 69857.68215444 0 -591.45360494 0 7289.71137661 0 -5288.42689047 0 22558.71820890 0 180
0.01450000 0.01448870 56872.66332731 0 7474.45744418 0 22219.54940622 0 -17143.99585878 0 15888.36145227 0 267
0.01550000 0.01550050 60952.11647684 0 2201.71350619 0 30321.77968887 0 5702.32817819 0 24054.14429343 0 238
0.01650000 0.01653350 59447.15196293 0 -5397.69736281 0 27891.03296570 0 9727.72283379 0 14067.40873731 0 315
0.01750000 0.01747870 64384.73102034 0 -4002.03659483 0 32470.81000956 0 10511.77063725 0 10984.79909590 0 297
0.01850000 0.01844180 69762.40877266 0 -881.85663287 0 19847.25329097 0 334.47278989 0 8442.65239058 0 388
0.01950000 0.01947590 70199.62375635 0 -190.09313362 0 30004.34963221 0 1105.39416177 0 7807.61481811 0 399
0.02050000 0.02045430 73032.09363299 0 -834.68577225 0 28437.49623933 0 -1133.45378093 0 1352.56037664 0 462
0.02150000 0.02154770 70596.02313528 0 3944.72838020 0 27176.53805829 0 -5017.84604972 0 -6042.11808789 0 571
0.02250000 0.02255340 67972.84414506 0 4701.56947755 0 32278.26683053 0 -7188.82584917 0 -4208.01121335 0 510
0.02350000 0.02348930 62221.28214362 0 2622.43588003 0 29565.58188094 0 3540.59843699 0 -4781.13772446 0 555
0.02450000 0.02439640 59169.09565544 0 2504.00407902 0 37152.73697731 0 1621.82136495 0 -5659.48288438 0 592
0.02550000 0.02547300 57251.20587915 0 2086.08777801 0 24048.93143086 0 5497.22976422 0 -6929.90185642 0 837
0.02650000 0.02652900 55689.12170096 0 -395.18822022 0 23115.93994358 0 13434.76686338 0 -10553.93936805 0 723
0.02750000 0.02749970 53606.86038591 0 -1920.96203784 0 20850.34114296 0 -190.56672772 0 3263.89525553 0 826
0.02850000 0.02848090 54701.00696485 0 956.21978105 0 6770.58790345 0 7507.81976460 0 -9858.87623770 0 831
0.02950000 0.02946900 55729.49365786 0 -171.12718683 0 7230.34019935 0 3608.29910317 0 7730.12062503 0 996
0.03050000 0.03053250 53440.93607956 0 100.48846259 0 4096.34504248 0 2222.29876773 0 2123.79784763 0 1041
0.03150000 0.03150510 54395.55540089 0 301.92678156 0 6374.22179811 0 2752.26943150 0 3565.88636604 0 1036
0.03250000 0.03246190 52373.96293314 0 1774.60260291 0 2701.82666778 0 -1082.21245103 0 3896.44839988 0 1059
0.03350000 0.03345080 51073.40917899 0 1552.44592804 0 4509.42558162 0 -2067.60984389 0 5410.84043119 0 1302
0.03450000 0.03451200 48703.33130313 0 1755.30392022 0 9208.24444232 0 -1492.74201487 0 4782.74594801 0 1339
0.03550000 0.03553350 47145.01813190 0 1153.36247945 0 11437.24229301 0 -1582.91344606 0 280.80470610 0 1365
0.03650000 0.03647120 44910.47468274 0 2179.13182921 0 12504.88091124 0 -3991.07849224 0 -199.50623247 0 1308
0.03750000 0.03744890 43531.72799011 0 1371.16031392 0 17590.30562397 0 -307.24611962 0 947.23591153 0 1579
0.03850000 0.03847530 42491.92827621 0 381.63255931 0 17321.56592192 0 -822.87142926 0 786.88382253 0 1662
0.03950000 0.03950240 42171.50359638 0 484.86276579 0 14983.20886932 0 3331.69574247 0 3521.90977014 0 1683
0.04050000 0.04050350 41462.88702336 0 -363.27995572 0 18181.13368540 0 4956.56718659 0 4950.33393390 0 1822
0.04150000 0.04152450 43123.68285438 0 -973.89360339 0 14445.95128915 0 2436.20359207 0 8400.76093970 0 1887
0.04250000 0.04250150 42379.24171522 0 255.93380606 0 15942.04284550 0 1891.80328106 0 5369.81409368 0 1920
0.04350000 0.04349210 44218.93855302 0 734.30267603 0 16474.86394689 0 -2516.25985164 0 13612.66966243 0 2005
0.04450000 0.04448520 40992.62027275 0 1650.93575694 0 17918.05049379 0 -1708.75416663 0 5309.51125587 0 2151
0.04550000 0.04548030 40318.60823421 0 1501.48187806 0 22528.55015320 0 -3022.96118422 0 6766.63943734 0 2274
0.04650000 0.04648670 39213.37045832 0 885.50009107 0 23664.06689676 0 368.38523368 0 4214.67702272 0 2311
0.04750000 0.04749250 38941.85795703 0 788.67061435 0 23243.93235636 0 872.09416132 0 4081.51611216 0 2568
0.04850000 0.04851840 38012.63747670 0 585.21369754 0 23544.61470563 0 31.69564625 0 2646.64796297 0 2493
0.04950000 0.04949480 37288.49322795 0 464.11113630 0 23479.62029151 0 1980.51067426 0 2857.29197541 0 2644
0.05050000 0.05050630 37910.82028872 0 -778.60091665 0 21484.53578446 0 4185.80663706 0 4488.79595529 0 2829
0.05150000 0.05149060 37890.96704618 0 -1405.47647728 0 16994.59743588 0 4322.17290354 0 2684.71295089 0 2784
0.05250000 0.05249300 39428.87241502 0 -182.04203375 0 14224.12735019 0 2442.21502082 0 1984.73642029 0 3055
0.05350000 0.05348950 39341.58469504 0 346.30044231 0 11040.58781655 0 -1435.78871854 0 -19.03127393 0 3009
0.05450000 0.05448610 38015.29936397 0 826.06902134 0 13827.83888323 0 -314.97890213 0 3891.34644928 0 3336
0.05550000 0.05550870 37599.26856644 0 254.20357934 0 9398.52501717 0 1522.55515226 0 -1490.60141386 0 3349
0.05650000 0.05647670 36913.16712323 0 311.11583824 0 12958.62177839 0 725.45855559 0 -30.51221554 0 3324
0.05750000 0.05747970 37065.78199323 0 444.31889534 0 11228.28414250 0 238.14019879 0 -1967.21232912 0 3639
0.05850000 0.05849280 34878.15430717 0 1183.78563268 0 12316.88512297 0 138.54125020 0 -1168.67942243 0 3846
0.05950000 0.05951020 34382.15597964 0 1162.10234264 0 10244.05132532 0 -2046.27038096 0 -1013.83522184 0 3787
0.06050000 0.06049470 32812.19705162 0 790.48291594 0 14070.62518442 0 242.93714148 0 -1936.31225442 0 3930
0.06150000 0.06148310 31812.54747068 0 994.53432091 0 13551.11351937 0 -464.35957911 0 -2195.74644223 0 4083
0.06250000 0.06249100 31579.18868689 0 348.81925314 0 14278.03056736 0 -285.90443845 0 -2923.62842435 0 4303
0.06350000 0.06350600 31378.21619819 0 -569.43646988 0 14495.41802754 0 1926.57418350 0 -2760.96492991 0 4470
0.06450000 0.06451750 32174.12049119 0 -655.26791570 0 11621.35616235 0 2614.62767738 0 -3337.75153601 0 4479
0.06550000 0.06550280 32226.36002882 0 -218.56756354 0 10173.37821836 0 725.00603475 0 -3914.50486851 0 4636
0.06650000 0.06648880 32832.49394204 0 982.14545392 0 11027.35601859 0 -2091.91065640 0 -5308.79032807 0 4653
0.06750000 0.06749660 30590.40847895 0 1602.47831747 0 12468.27996131 0 -2970.53309625 0 -4971.45157289 0 5220
0.06850000 0.06852730 29155.54032976 0 1163.93239014 0 14724.11850861 0 -289.25287081 0 -5711.83333397 0 5029
0.06950000 0.06949320 28218.88874748 0 384.64825576 0 13395.17129028 0 878.21872028 0 -4814.53331847 0 5040
0.07050000 0.07048030 27476.99858362 0 184.44549613 0 12709.84623085 0 3080.69086434 0 -2632.44013968 0 5475
0.07150000 0.07148790 27558.85161710 0 -52.32349799 0 11138.44544722 0 2494.48783203 0 -2948.73889425 0 5509
0.07250000 0.07249820 27019.04306163 0 89.59025247 0 9532.61758827 0 1771.71889171 0 410.31328550 0 5916
0.07350000 0.07351270 26669.78126973 0 500.72317742 0 9712.59444115 0 704.81561983 0 324.37980067 0 5721
0.07450000 0.07449140 25858.90386084 0 561.13470896 0 8134.71639851 0 -1185.42712983 0 853.35447496 0 6028
0.07550000 0.07549160 25304.23310146 0 401.04769957 0 10382.31418647 0 578.74752972 0 690.36489932 0 6183
0.07650000 0.07648840 24911.71564146 0 399.76888456 0 8674.64695714 0 -243.63255952 0 286.62980273 0 6330
0.07750000 0.07749960 24084.75599700 0 382.15939117 0 9555.85364588 0 463.52108462 0 641.86087683 0 6583
0.07850000 0.07848650 24252.34398289 0 368.89653786 0 10096.76022984 0 -561.78908958 0 -991.72492072 0 6549
0.07950000 0.07947320 23421.39150753 0 289.06653870 0 9867.67155688 0 334.49164492 0 692.88925575 0 6828
0.08050000 0.08048110 23395.77084258 0 95.34259085 0 9875.65721868 0 938.72230875 0 -1227.07457437 0 7147
0.08150000 0.08149960 23441.57748598 0 -82.96359503 0 9464.12944712 0 101.37409467 0 466.68207575 0 7386
0.08250000 0.08250610 23538.29272337 0 -50.07741969 0 8491.10983004 0 528.78168746 0 -1066.26885541 0 7227
0.08350000 0.08350160 23612.38191898 0 215.31340636 0 9064.24743234 0 250.86180169 0 -597.04245908 0 7798
0.08450000 0.08449610 22835.22174882 0 304.80716541 0 7981.30296232 0 -363.93988194 0 -235.52156720 0 7371
0.08550000 0.08548940 22755.36513079 0 325.47561092 0 9326.95352326 0 145.55310491 0 -1395.40567045 0 8256
0.08650000 0.08650700 22508.80782263 0 25.59460064 0 7907.22485790 0 774.69681532 0 -916.21161542 0 8037
0.08750000 0.08749060 22120.28319354 0 268.85172314 0 8672.63945050 0 1143.18076065 0 -1174.69085118 0 8155
0.08850000 0.08849210 21701.92324465 0 570.69642985 0 7232.01497009 0 2.09280904 0 414.50575795 0 8718
0.08950000 0.08949900 20662.78900257 0 427.78081157 0 7946.77606622 0 457.16804701 0 -1205.46892271 0 8571
0.09050000 0.09049190 20442.73965512 0 555.42163341 0 7140.11331218 0 -466.16189861 0 347.29975916 0 8932
0.09150000 0.09150830 19320.31052396 0 659.97501969 0 7718.34177387 0 104.44824172 0 -403.98132116 0 9285
0.09250000 0.09250820 19108.57957421 0 254.77921246 0 6836.76907564 0 368.50834596 0 133.35833387 0 9204
0.09350000 0.09350330 18497.12188646 0 -342.10796987 0 6360.63508185 0 1337.89781427 0 -340.27681325 0 9349
0.09450000 0.09448040 18804.79168980 0 197.19593614 0 5517.26046591 0 455.27145233 0 -1272.24901954 0 9564
0.09550000 0.09549270 18579.19674388 0 11.65363155 0 5261.28673154 0 467.14346954 0 -108.31962402 0 10155
0.09650000 0.09649430 18011.32746013 0 407.33973560 0 5001.03179515 0 -221.48676658 0 -1118.05919956 0 9913
0.09750000 0.09749140 18328.20295694 0 143.83175114 0 4334.56177053 0 154.90631130 0 -505.55672105 0 10476
0.09850000 0.09850240 17559.91574433 0 78.79995969 0 5276.89204565 0 26.16624093 0 -1483.75814534 0 10575
0.09950000 0.09950330 17568.34505402 0 333.79400864 0 4482.72907056 0 -10.98374543 0 -430.71110581 0 10882
0.10050000 0.10051200 17449.22559879 0 127.48443596 0 5638.83107566 0 477.38508081 0 -311.54617668 0 10875
0.10150000 0.10150300 17093.42000069 0 243.25767707 0 4634.95574868 0 -718.49106566 0 -665.95428396 0 11118
0.10250000 0.10250800 16854.18288252 0 342.23440951 0 6972.63623826 0 -104.02577803 0 277.35201649 0 11575
0.10350000 0.10349800 16656.64866487 0 412.25202673 0 5680.83343850 0 -501.36092125 0 -377.44674158 0 11364
0.10450000 0.10450100 15858.30430854 0 397.52846278 0 7875.08256915 0 -286.75846062 0 1156.87838888 0 12093
0.10550000 0.10551000 15954.46498608 0 319.59284006 0 7951.95565519 0 131.80334805 0 997.86278911 0 12067
0.10650000 0.10649700 15367.07519570 0 -2.62362264 0 7289.33427592 0 527.34981394 0 1208.66318743 0 12054
0.10750000 0.10749900 15426.96765922 0 245.83970772 0 7975.15843921 0 -133.98609561 0 858.05048774 0 12807
0.10850000 0.10850100 15370.18073085 0 130.52564217 0 7454.44892489 0 274.40730370 0 1206.61131600 0 12736
0.10950000 0.10950300 14779.68540532 0 319.11259124 0 8164.47407992 0 352.06342825 0 1180.30299684 0 12933
0.11050000 0.11050200 14788.22562697 0 68.00922327 0 7110.30017478 0 237.12868163 0 476.61756998 0 13428
0.11150000 0.11150900 14425.87622268 0 -239.59980031 0 6222.74932139 0 1253.42725832 0 473.47432476 0 13453
0.11250000 0.11250000 14918.99083899 0 -113.19786517 0 5630.43503957 0 749.79153257 0 -101.99431440 0 13668
0.11350000 0.11349100 14609.43553217 0 -58.33093390 0 4993.80033474 0 247.80839517 0 827.83473990 0 13791
0.11450000 0.11448600 14969.01213723 0 -43.46828634 0 4294.77764708 0 607.64897072 0 68.26188074 0 14205
0.11550000 0.11549300 15013.04418911 0 18.60759021 0 3542.30648132 0 298.08257270 0 602.37067010 0 14776
0.11650000 0.11649800 14858.43290366 0 52.65667754 0 3874.59874189 0 118.68024382 0 295.76229430 0 14553
0.11750000 0.11747300 14593.24238462 0 236.71719823 0 4036.99604761 0 -72.12439007 0 344.73103795 0 14568
0.11850000 0.11849100 14489.65060513 0 449.33100725 0 4128.32096328 0 -686.42974265 0 567.80051833 0 16015
0.11950000 0.11950300 13823.40240445 0 325.81389243 0 5315.16776632 0 -505.38148014 0 613.85227718 0 15270
0.12050000 0.12050700 13760.29349381 0 -0.39472683 0 5466.51823987 0 437.16396419 0 1538.84812058 0 15999
0.12150000 0.12150000 13870.65090345 0 -34.15190273 0 5493.93567873 0 571.63030863 0 952.04061804 0 15670
0.12250000 0.12250700 13776.26481742 0 176.28570253 0 5035.24813774 0 197.34344906 0 1768.23625586 0 16887
0.12350000 0.12352200 13738.33292385 0 214.24088761 0 5902.56864789 0 -191.06694071 0 1858.39659586 0 16407
0.12450000 0.12449800 13409.14619843 0 167.73549881 0 6326.00836498 0 -36.63788361 0 2425.54495180 0 16306
0.12550000 0.12549900 13246.43833920 0 190.52014470 0 5674.11217315 0 -29.97063239 0 2009.55851906 0 17523
0.12650000 0.12650100 13080.07038498 0 144.97969003 0 5850.39565745 0 68.69221918 0 2143.18525990 0 17154
0.12750000 0.12750600 12927.01186709 0 119.74167137 0 5785.21269298 0 183.18997263 0 1885.43693402 0 18007
0.12850000 0.12850300 12749.44180395 0 182.24278442 0 6234.83872606 0 -268.20843372 0 1870.90746601 0 17496
0.12950000 0.12949900 12619.45297572 0 90.69493569 0 5751.42890708 0 330.34797374 0 1388.08548046 0 18405
0.13050000 0.13049000 12484.25128492 0 81.40783283 0 5712.29916424 0 261.27754475 0 853.38442119 0 18100
0.13150000 0.13148800 12263.86920156 0 120.68109575 0 5514.36566351 0 49.15008472 0 1142.57074482 0 19059
0.13250000 0.13249300 12010.32443932 0 107.28903000 0 5369.63663453 0 300.61247473 0 701.65351958 0 18957
0.13350000 0.13349100 12200.31664304 0 25.24678070 0 4872.75101125 0 314.20030011 0 746.43533638 0 19468
0.13450000 0.13450700 11833.75258391 0 19.39317969 0 4755.82761302 0 176.64838467 0 259.25118307 0 19953
0.13550000 0.13551000 12012.09903083 0 136.41617686 0 4344.07801751 0 136.72118478 0 918.54631238 0 19956
0.13650000 0.13649900 11686.35057646 0 44.63275111 0 4593.69649603 0 306.48415439 0 1008.30847840 0 19723
0.13750000 0.13749600 11791.82785944 0 70.55121470 0 4126.25800065 0 277.97755999 0 1001.32656992 0 20946
0.13850000 0.13851100 11650.41509835 0 64.40480609 0 3932.97171143 0 225.29548361 0 1176.94236416 0 20955
0.13950000 0.13949800 11418.05452229 0 254.76590302 0 4210.86165097 0 192.80271303 0 1627.50005779 0 20506
0.14050000 0.14048300 11219.18936101 0 179.20712381 0 4240.67478837 0 -94.69564134 0 1716.73982843 0 21447
0.14150000 0.14148400 11217.85841737 0 11.78794594 0 4371.38454440 0 230.59818487 0 1691.97318565 0 21771
0.14250000 0.14249400 10963.48181536 0 77.06840203 0 4287.24672435 0 209.65024119 0 1097.88985791 0 22470
0.14350000 0.14350900 11064.92190265 0 147.94658521 0 4008.05911477 0 -197.69725824 0 1318.97623228 0 22519
0.14450000 0.14449900 10678.83733688 0 170.99076511 0 4062.16197348 0 59.69626025 0 516.13550470 0 22218
0.14550000 0.14550500 10542.37124963 0 237.28617663 0 3764.39660901 0 -233.04933940 0 776.18192659 0 23559
0.14650000 0.14650700 10173.67768068 0 180.36615389 0 4057.35948520 0 -192.24371670 0 207.35436343 0 23044
0.14750000 0.14750500 10037.37796138 0 40.48874720 0 3641.92761231 0 381.08465418 0 -154.96842200 0 23649
0.14850000 0.14849900 10101.64035650 0 47.44547866 0 3777.61731578 0 -42.51655073 0 -251.92655660 0 23640
0.14950000 0.14949500 9845.66662213 0 102.62307435 0 3230.45529673 0 112.80301856 0 -499.21921112 0 24457
0.15050000 0.15050000 9892.82639156 0 0.52701708 0 3254.67847087 0 233.91112540 0 -52.48054934 0 24591
0.15150000 0.15149900 9769.39246072 0 -49.24325077 0 2926.05739649 0 499.90131973 0 -228.66055276 0 25020
0.15250000 0.15250500 9959.18502290 0 101.65492377 0 2741.83261518 0 41.39633984 0 -425.23538188 0 25297
0.15350000 0.15350100 9498.62306962 0 252.17056293 0 3044.76647742 0 -345.84903060 0 -664.25954907 0 25452
0.15450000 0.15450400 9402.28493293 0 308.55488086 0 3372.54462083 0 -394.60371414 0 -103.17963062 0 26061
0.15550000 0.15549900 9012.31844823 0 103.10287953 0 3463.92499249 0 106.39108669 0 -579.83113966 0 26128
0.15650000 0.15649500 9045.60313027 0 22.58833170 0 3378.51168479 0 407.66027119 0 -153.16388426 0 26331
0.15750000 0.15749700 8949.04316964 0 42.60439301 0 3213.69649814 0 38.73112522 0 -777.58163565 0 27345
0.15850000 0.15849900 8831.90903867 0 126.02816180 0 3149.15682310 0 100.61590044 0 270.98677856 0 26980
0.15950000 0.15949700 8740.29575188 0 113.32319570 0 3369.98255434 0 34.51469578 0 -230.14788227 0 27777
0.16050000 0.16050000 8646.97442076 0 75.76074991 0 2836.55143711 0 68.78749256 0 119.56088486 0 28224
0.16150000 0.16150500 8512.42711058 0 71.20659353 0 3213.48576540 0 179.24594300 0 -117.92604243 0 28075
0.16250000 0.16249700 8490.53308780 0 49.46230191 0 2673.78812190 0 92.98870613 0 5.32477274 0 28590
0.16350000 0.16349900 8440.33433042 0 -21.81438798 0 2739.13745432 0 539.73535357 0 232.56576321 0 29163
0.16450000 0.16449100 8506.19385789 0 32.23190563 0 2295.37866442 0 95.89792709 0 329.99971016 0 28996
0.16550000 0.16550500 8432.01593270 0 19.63274954 0 2548.01394851 0 143.01322081 0 429.00527972 0 30777
0.16650000 0.16650700 8449.66202705 0 42.33321325 0 2247.08759291 0 80.72494784 0 307.00211329 0 29211
0.16750000 0.16749900 8366.44477635 0 55.80990484 0 2243.11694440 0 60.75369496 0 595.12479113 0 30922
0.16850000 0.16850800 8381.61753377 0 96.03556884 0 2351.42248260 0 -189.75707035 0 267.90675316 0 30867
0.16950000 0.16949900 8171.05115971 0 120.55576523 0 2355.65931983 0 85.19403473 0 733.55623848 0 30852
0.17050000 0.17049200 8078.18456766 0 88.92566795 0 2567.94482942 0 38.42068261 0 528.29478392 0 31257
0.17150000 0.17149500 8039.68702306 0 80.11825936 0 2232.33630097 0 171.14493275 0 505.60441320 0 32608
0.17250000 0.17250900 7954.78391042 0 4.12926372 0 2229.68550490 0 385.95701700 0 1009.64385851 0 32361
0.17350000 0.17350400 7931.88058872 0 1.57985228 0 2130.14201228 0 127.06740696 0 774.88869303 0 32508
0.17450000 0.17449800 7965.94165455 0 11.01280437 0 2175.26100147 0 19.65848112 0 1244.89812786 0 32791
0.17550000 0.17549800 7935.78469004 0 108.24764215 0 2057.26175714 0 -43.47715930 0 718.83267453 0 33633
0.17650000 0.17650100 7853.45473510 0 104.52809834 0 2175.67137576 0 -107.47491846 0 1279.50266234 0 33984
0.17750000 0.17750300 7738.80503224 0 170.08905080 0 2283.82163720 0 -144.31421821 0 945.41251875 0 34069
0.17850000 0.17849800 7496.20728140 0 125.68988030 0 2594.39733414 0 -81.42336051 0 1106.63859406 0 34536
