### header ###
fiducial parameters:
Omega_m = 0.31
Omega_nu = 0
Omega_de = 0.69
Omega_k = 0
H_0 = 100
w_de = -1
zeff = 0
beta = 0
fgrowth = 0
b_1 = 2
gamma = 0.55
Lx = 3500 Ly = 3500 Lz = 3500
nx = 700 ny = 700 nz = 700
xoffset = 1379.75464 yoffset = 22.6059522 zoffset = 368.141391
bins = 400 dk = 0.001
kx_ny = 0.628318531 ky_ny = 0.628318531 kz_ny = 0.628318531
############################
A(data) = 3.34623905 (not used)
A(ran) = 3.34722566 (used)
Ngal = 188092
weighted Ngal = 0
Nran = 9399747
weighted Nran = 0
SN(data) = 6602.59524
SN(ran) = 133.137182
SN(data+ran) = 6735.73242
############################
13 columns: k_central k_mean P_0(k) sigma^{lin}_{P_0(k)} P^img_1(k) sigma^{lin}_{P_1(k)} P_2(k) sigma^{lin}_{P_2(k)} P^img_3(k) sigma^{lin}_{P_3(k)} P_4(k) sigma^{lin}_{P_4(k)} N_modes
### header ###
0.00050000 0 0 0 0 0 0 0 0 0 0 0 0
0.00150000 0.00179520 86030.64372040 0 -63668.57243339 0 -82647.71773922 0 103793.41745692 0 57397.83150281 0 3
0.00250000 0.00253879 142944.45538839 0 -57832.05186333 0 -47320.92451550 0 -64459.26386383 0 29299.39315418 0 6
0.00350000 0.00331552 164860.66055808 0 -24051.37149419 0 -35073.13754952 0 -129097.09599853 0 234.41466574 0 7
0.00450000 0.00420575 164744.20299012 0 17120.26069731 0 -22200.02889959 0 -106780.38770704 0 14831.25947113 0 24
0.00550000 0.00557378 118879.88536983 0 34796.63400960 0 29261.23943668 0 -63814.31076129 0 20816.40208030 0 45
0.00650000 0.00659388 103332.91095963 0 20847.67925570 0 64034.91466859 0 15264.70344787 0 -30199.44378653 0 40
0.00750000 0.00754703 76478.57217268 0 8788.69773536 0 75929.44701178 0 25504.87285425 0 -9374.35729902 0 57
0.00850000 0.00846663 82377.64709353 0 -98.39333549 0 59632.92951181 0 38423.01176379 0 -18016.54032269 0 75
0.00950000 0.00948925 75694.97910829 0 -349.12093370 0 42684.91510311 0 27730.76516979 0 -1039.37492105 0 112
0.01050000 0.01054430 82331.39680226 0 2709.70141762 0 54701.11787682 0 5020.16410989 0 -2525.57645708 0 105
0.01150000 0.01145670 75181.45668959 0 4232.75567374 0 26969.02176339 0 2840.14498493 0 24081.20681398 0 144
0.01250000 0.01249090 72290.64711700 0 2568.26647413 0 37998.21892067 0 20321.84560838 0 5173.96573797 0 169
0.01350000 0.01339930 71791.43234236 0 -1036.89936589 0 25037.71163880 0 2637.87482618 0 4787.96990178 0 180
0.01450000 0.01448870 65458.24797296 0 -569.12702548 0 22833.55806928 0 4891.51731648 0 7386.44879640 0 267
0.01550000 0.01550050 76467.70279967 0 2189.67955750 0 23941.23590849 0 8902.32704810 0 521.01341312 0 238
0.01650000 0.01653350 69423.23996998 0 -3181.01074073 0 11482.38346459 0 -752.97581522 0 -414.63552495 0 315
0.01750000 0.01747870 74110.04706439 0 874.48320514 0 21474.55370721 0 -2511.98974082 0 -9523.20116206 0 297
0.01850000 0.01844180 73259.68499437 0 4614.09320722 0 29428.38377469 0 -9130.00713905 0 -5338.82528941 0 388
0.01950000 0.01947590 68247.57309347 0 4764.42329065 0 23007.02438955 0 -2263.32510524 0 -20184.20385425 0 399
0.02050000 0.02045430 65745.62088589 0 2529.79111192 0 37861.46446230 0 -4186.78266239 0 404.90632699 0 462
0.02150000 0.02154770 60298.06859280 0 1766.38402597 0 35828.11532578 0 -977.33409268 0 -15713.34236442 0 571
0.02250000 0.02255340 68798.47284589 0 40.34267613 0 46207.47925387 0 6488.92695695 0 -3638.86644195 0 510
0.02350000 0.02348930 62338.51609536 0 -1267.37998408 0 35240.39279950 0 2729.65448093 0 -13672.11847807 0 555
0.02450000 0.02439640 64962.91511725 0 884.29780532 0 36528.85714897 0 2442.03756167 0 -14380.95687503 0 592
0.02550000 0.02547300 64374.97076703 0 -521.83970729 0 26379.08099771 0 4814.79950719 0 -15283.55848268 0 837
0.02650000 0.02652900 65290.10542722 0 -1362.83082501 0 35784.63783375 0 1556.50530612 0 -19830.94923145 0 723
0.02750000 0.02749970 70895.04180501 0 -1623.79559801 0 20738.98552560 0 -288.32342851 0 -19229.69544489 0 826
0.02850000 0.02848090 66685.04526740 0 -429.95912266 0 23217.64621959 0 1525.92687614 0 -29586.65515514 0 831
0.02950000 0.02946900 66034.76839033 0 2710.54434859 0 16236.62503644 0 -1607.12552899 0 -17034.19300899 0 996
0.03050000 0.03053250 63605.01987488 0 2577.17270528 0 16221.76283253 0 1799.85725836 0 -20878.95643109 0 1041
0.03150000 0.03150510 59123.06718810 0 2706.48497050 0 21522.24585409 0 521.11323389 0 -19395.50883927 0 1036
0.03250000 0.03246190 58704.81815119 0 2234.76527310 0 14994.85462612 0 3745.84103652 0 -14637.93990833 0 1059
0.03350000 0.03345080 53979.19186746 0 1558.77900150 0 22435.71683474 0 -2847.37644534 0 -15066.06011053 0 1302
0.03450000 0.03451200 50935.32377699 0 2639.80469445 0 16667.85077379 0 -974.33059655 0 -10343.38408519 0 1339
0.03550000 0.03553350 50097.16202361 0 -229.69425232 0 26033.14656490 0 2881.72588228 0 -9153.93085087 0 1365
0.03650000 0.03647120 51663.90450452 0 -1279.70230389 0 16519.33964665 0 2477.08574402 0 -8232.81803551 0 1308
0.03750000 0.03744890 51812.19380771 0 211.57234563 0 16633.02441537 0 2292.65022997 0 -8159.17248778 0 1579
0.03850000 0.03847530 53400.45321070 0 769.05361431 0 20283.13733103 0 977.25534519 0 -3947.88937133 0 1662
0.03950000 0.03950240 49040.28186641 0 2191.89779689 0 18672.91735809 0 -3151.29742411 0 -5452.33259897 0 1683
0.04050000 0.04050350 49417.93712250 0 1164.64222675 0 17212.65036789 0 3172.67016063 0 -1018.37263051 0 1822
0.04150000 0.04152450 46920.75412961 0 575.09187120 0 21229.66007859 0 2324.90343070 0 2909.15441234 0 1887
0.04250000 0.04250150 46151.24688534 0 483.93665084 0 15306.96090824 0 5389.80043058 0 -3028.37368833 0 1920
0.04350000 0.04349210 44802.55733644 0 752.09295594 0 18128.78323581 0 2866.15384177 0 4975.48876858 0 2005
0.04450000 0.04448520 43454.08961147 0 303.61929822 0 8419.57160973 0 830.73286966 0 2666.22392558 0 2151
0.04550000 0.04548030 43044.82444408 0 1038.59853727 0 13000.54650286 0 389.00931440 0 3268.49810226 0 2274
0.04650000 0.04648670 42300.05056901 0 1525.46104586 0 12265.20014519 0 -2077.59192114 0 65.86695858 0 2311
0.04750000 0.04749250 40024.13695523 0 634.88895043 0 10731.91980548 0 -56.38076874 0 -681.83687799 0 2568
0.04850000 0.04851840 38635.18636141 0 377.99464671 0 10785.15755083 0 1333.90498337 0 -2601.02986992 0 2493
0.04950000 0.04949480 39175.32765279 0 9.71902734 0 12932.89020147 0 -456.22751351 0 -4471.05004018 0 2644
0.05050000 0.05050630 37596.49576721 0 912.15778294 0 8701.22146503 0 182.46904483 0 -6067.83857362 0 2829
0.05150000 0.05149060 38742.77097181 0 936.89669773 0 12291.48628196 0 -2086.37614913 0 -6924.91081779 0 2784
0.05250000 0.05249300 35634.01937919 0 341.88725505 0 11213.31102662 0 -1470.65944174 0 -6567.00898347 0 3055
0.05350000 0.05348950 36191.35202584 0 785.90779720 0 13472.47693301 0 646.25299082 0 -8204.95694878 0 3009
0.05450000 0.05448610 34140.58971011 0 859.90826323 0 11491.81098199 0 -409.55908411 0 -7833.35748623 0 3336
0.05550000 0.05550870 35183.05131127 0 323.39490238 0 10562.91214638 0 2278.38695069 0 -8435.55402453 0 3349
0.05650000 0.05647670 34840.00058967 0 -805.59578090 0 11830.53613679 0 1460.68845569 0 -6854.39298759 0 3324
0.05750000 0.05747970 33307.97355521 0 743.59488084 0 9192.62803702 0 -1271.15099104 0 -8809.17208493 0 3639
0.05850000 0.05849280 33730.88089484 0 1464.89201933 0 13474.47334846 0 -2128.70015668 0 -6580.35169340 0 3846
0.05950000 0.05951020 30641.53889689 0 986.02515461 0 10903.41189269 0 -1503.25646957 0 -6703.95199219 0 3787
0.06050000 0.06049470 31686.99512122 0 249.71719017 0 14686.96299884 0 1048.85234885 0 -7322.56350197 0 3930
0.06150000 0.06148310 31571.53576099 0 -409.40935295 0 13636.62664784 0 1622.55338395 0 -7058.78156495 0 4083
0.06250000 0.06249100 31985.01558322 0 -204.03920466 0 11970.28521834 0 1740.07570681 0 -5791.00229779 0 4303
0.06350000 0.06350600 31988.78659019 0 -516.99950895 0 10321.85607191 0 2294.83519577 0 -3225.05388382 0 4470
0.06450000 0.06451750 32269.94843282 0 -262.27797071 0 9855.23832510 0 406.99590849 0 -4422.63696550 0 4479
0.06550000 0.06550280 32799.44217513 0 184.85587042 0 8068.77923265 0 1220.32003543 0 -1896.65013413 0 4636
0.06650000 0.06648880 32081.61990864 0 466.52125340 0 8243.32139902 0 1199.33549080 0 -3221.57124797 0 4653
0.06750000 0.06749660 31232.47787029 0 943.49817815 0 8643.60269689 0 -2178.12253028 0 -2596.21629044 0 5220
0.06850000 0.06852730 30185.35796640 0 1654.65130792 0 10066.86945407 0 -1455.85269382 0 -2878.99744783 0 5029
0.06950000 0.06949320 27709.58098362 0 1002.52663743 0 11822.43956302 0 19.63840605 0 -2450.62214810 0 5040
0.07050000 0.07048030 27671.76000203 0 20.16989621 0 11481.82890474 0 560.42819972 0 -2188.19333711 0 5475
0.07150000 0.07148790 27127.29314384 0 -103.75526374 0 10623.33698736 0 1410.36769513 0 -3706.35637538 0 5509
0.07250000 0.07249820 27978.98615749 0 -95.31508469 0 10070.28554273 0 1456.26306810 0 -2605.84344939 0 5916
0.07350000 0.07351270 27443.94681671 0 310.83523095 0 9929.05024079 0 -1115.58586264 0 -2214.47947388 0 5721
0.07450000 0.07449140 26886.05961022 0 223.50536442 0 9916.20663472 0 678.52948306 0 -2239.61212616 0 6028
0.07550000 0.07549160 26749.63788775 0 338.43012896 0 10039.77365992 0 425.28307402 0 -1998.83333161 0 6183
0.07650000 0.07648840 26245.32116252 0 219.79203168 0 8741.64887791 0 236.64510545 0 -3882.77295404 0 6330
0.07750000 0.07749960 25848.47813571 0 379.44870263 0 9584.67966675 0 105.46153348 0 -2754.07729661 0 6583
0.07850000 0.07848650 25345.82509002 0 706.45046226 0 9145.66790914 0 -632.01078482 0 -3469.18221984 0 6549
0.07950000 0.07947320 24231.27070869 0 558.38409212 0 8800.90914320 0 36.38511524 0 -2439.61968073 0 6828
0.08050000 0.08048110 23751.90917659 0 69.43200202 0 7954.24044177 0 1409.61349374 0 -4747.27630017 0 7147
0.08150000 0.08149960 23947.89062666 0 205.43336811 0 8528.19879264 0 107.57806659 0 -2820.67993428 0 7386
0.08250000 0.08250610 23259.79276800 0 264.30100504 0 7188.06055658 0 -307.11191614 0 -4106.68203803 0 7227
0.08350000 0.08350160 22926.94594758 0 629.98775050 0 9215.39826435 0 -781.64434109 0 -4539.41617817 0 7798
0.08450000 0.08449610 22451.79907032 0 205.57200808 0 8275.03113110 0 -398.52556138 0 -4016.36642128 0 7371
0.08550000 0.08548940 22490.28552373 0 -38.25908387 0 9407.83053141 0 560.63560510 0 -4533.14965189 0 8256
0.08650000 0.08650700 22541.52685363 0 205.71730276 0 9233.95383685 0 171.49319633 0 -2938.43517228 0 8037
0.08750000 0.08749060 22484.18536541 0 165.71801008 0 9302.06487731 0 1150.07948515 0 -2757.71520921 0 8155
0.08850000 0.08849210 21892.13727231 0 282.98301718 0 9419.19900828 0 131.42513824 0 -1986.68847096 0 8718
0.08950000 0.08949900 21529.78786801 0 524.60807005 0 9597.85600872 0 -171.52314256 0 -703.70095453 0 8571
0.09050000 0.09049190 20884.50202956 0 673.52624412 0 10510.11804891 0 -203.72199643 0 -9.15214517 0 8932
0.09150000 0.09150830 20464.58931310 0 286.81058924 0 10056.64337048 0 243.07134496 0 -214.94296038 0 9285
0.09250000 0.09250820 19833.72203069 0 314.79146090 0 10601.72024450 0 -164.98710020 0 -1567.21940237 0 9204
0.09350000 0.09350330 19548.67826912 0 289.20185131 0 9668.68439243 0 387.50423898 0 -455.66851718 0 9349
0.09450000 0.09448040 19156.60445700 0 444.15363651 0 10651.84136351 0 -109.63060350 0 -1908.57317085 0 9564
0.09550000 0.09549270 18869.67519195 0 193.73326445 0 9114.29091297 0 487.87735312 0 -991.22692598 0 10155
0.09650000 0.09649430 17972.95191869 0 111.96230583 0 9123.01968497 0 1275.08836596 0 -1103.23470572 0 9913
0.09750000 0.09749140 18426.80369781 0 -227.52925067 0 7218.49480101 0 1694.70162010 0 76.36621835 0 10476
0.09850000 0.09850240 18360.03469218 0 -189.18809194 0 6293.50006672 0 1742.14976064 0 -647.46525865 0 10575
0.09950000 0.09950330 18070.55445183 0 472.35633211 0 5234.50149091 0 679.66078515 0 668.33667307 0 10882
0.10050000 0.10051200 17530.08042454 0 455.67517190 0 5850.01855675 0 -758.21196930 0 1061.42532971 0 10875
0.10150000 0.10150300 16697.57518161 0 399.03353820 0 5238.41668343 0 177.68430247 0 1264.88446476 0 11118
0.10250000 0.10250800 16476.52762643 0 74.07400067 0 5498.70489341 0 1006.01038239 0 2151.82530232 0 11575
0.10350000 0.10349800 16443.69768347 0 68.00966692 0 5032.28678815 0 577.66391977 0 1333.03987001 0 11364
0.10450000 0.10450100 16150.66826009 0 404.04565011 0 4672.41072077 0 416.72732470 0 2474.74550147 0 12093
0.10550000 0.10551000 15826.02892542 0 260.21611720 0 5762.16518572 0 -521.00564928 0 1816.09477070 0 12067
0.10650000 0.10649700 15206.58557586 0 321.37852277 0 5201.32772084 0 -453.05543118 0 2916.17514001 0 12054
0.10750000 0.10749900 15219.67318826 0 282.07132079 0 5836.72021161 0 -362.82743489 0 525.91794041 0 12807
0.10850000 0.10850100 14844.56890747 0 230.11128132 0 6690.43182311 0 -854.22846128 0 653.51328834 0 12736
0.10950000 0.10950300 14357.55444947 0 222.37738969 0 6249.26837329 0 -305.53696617 0 160.77022712 0 12933
0.11050000 0.11050200 14474.12292940 0 110.15832265 0 6548.32031661 0 190.41810569 0 -457.21684828 0 13428
0.11150000 0.11150900 14408.57395544 0 -80.50157113 0 6071.01065594 0 578.23400730 0 -876.51622154 0 13453
0.11250000 0.11250000 14628.95603880 0 -263.34494386 0 5616.23830747 0 1183.79672387 0 -867.85732409 0 13668
0.11350000 0.11349100 14456.37701428 0 -161.90374745 0 4091.32073026 0 903.06854704 0 242.13857529 0 13791
0.11450000 0.11448600 15026.79727333 0 92.82755103 0 4378.12799214 0 165.73242864 0 -38.94596170 0 14205
0.11550000 0.11549300 14527.24976278 0 129.93891785 0 3683.36432411 0 133.51471974 0 38.58860333 0 14776
0.11650000 0.11649800 14366.76014294 0 85.79972500 0 4317.23732090 0 -62.87000625 0 334.00252314 0 14553
0.11750000 0.11747300 14408.46304347 0 -32.07274695 0 3194.59745700 0 227.64016264 0 132.24588681 0 14568
0.11850000 0.11849100 14541.89014275 0 -105.26854665 0 3671.67420253 0 754.11377202 0 147.62383138 0 16015
0.11950000 0.11950300 14685.41023126 0 15.73585749 0 3303.01390717 0 -175.20541995 0 62.68433962 0 15270
0.12050000 0.12050700 14529.35709020 0 184.62184616 0 2946.54283725 0 -8.34055792 0 -96.64303370 0 15999
0.12150000 0.12150000 14121.20104251 0 240.17543343 0 3592.30559717 0 41.32335977 0 -354.36596074 0 15670
0.12250000 0.12250700 13898.93345567 0 308.61588244 0 2855.40647193 0 -304.35464458 0 656.78962792 0 16887
0.12350000 0.12352200 13750.64415247 0 70.72756473 0 3574.47095247 0 523.53776955 0 -220.08594840 0 16407
0.12450000 0.12449800 13615.88610955 0 95.41568184 0 2999.47002909 0 252.42676958 0 324.09919338 0 16306
0.12550000 0.12549900 13307.66174636 0 98.63822912 0 3345.26027634 0 -177.30276529 0 -699.67485004 0 17523
0.12650000 0.12650100 13349.80829476 0 293.27342970 0 3373.25445744 0 -527.98533952 0 379.47310327 0 17154
0.12750000 0.12750600 13022.39616085 0 128.56028207 0 3466.37614702 0 -395.45108159 0 -582.06157936 0 18007
0.12850000 0.12850300 12838.94776332 0 94.64428909 0 3360.22230102 0 163.57186347 0 -703.02660976 0 17496
0.12950000 0.12949900 12829.63115789 0 45.87052869 0 3563.67921784 0 130.10972228 0 -1077.88244774 0 18405
0.13050000 0.13049000 12773.84243724 0 141.94957502 0 3515.28832556 0 49.28029537 0 -1189.25359277 0 18100
0.13150000 0.13148800 12450.53404620 0 320.49344526 0 3681.33463507 0 -336.19968925 0 -1735.01812100 0 19059
0.13250000 0.13249300 12315.66509131 0 151.16081409 0 3789.10779582 0 -430.63014007 0 -1512.24033910 0 18957
0.13350000 0.13349100 11952.76112716 0 -43.00855623 0 3377.45802108 0 323.67772790 0 -1612.07220283 0 19468
0.13450000 0.13450700 12341.95122807 0 -148.75956995 0 3216.42493259 0 581.16319241 0 -1678.88557325 0 19953
0.13550000 0.13551000 12232.92476207 0 1.71709475 0 2625.48595919 0 497.93485051 0 -1741.85029832 0 19956
0.13650000 0.13649900 12301.46835921 0 27.82870044 0 2476.57554896 0 176.16924497 0 -1532.59268550 0 19723
0.13750000 0.13749600 12204.08765001 0 292.23751191 0 2417.99184668 0 -314.78924266 0 -1591.02111103 0 20946
0.13850000 0.13851100 11797.70619382 0 237.44588987 0 2949.20472452 0 -225.85558906 0 -1363.25229050 0 20955
0.13950000 0.13949800 11511.33148862 0 238.26109284 0 2977.26545280 0 -39.32095507 0 -513.62667595 0 20506
0.14050000 0.14048300 11459.09195100 0 -24.33075875 0 3289.28300534 0 722.92088973 0 -297.76314623 0 21447
0.14150000 0.14148400 11349.40001318 0 40.75116492 0 2907.50182399 0 370.24855476 0 101.81685525 0 21771
0.14250000 0.14249400 11354.72378771 0 143.88055241 0 3227.53831193 0 275.81477659 0 727.98513025 0 22470
0.14350000 0.14350900 11127.90881012 0 223.47874555 0 3231.43132206 0 -325.34695304 0 772.66823540 0 22519
0.14450000 0.14449900 10866.79985157 0 318.43824646 0 3577.62085241 0 -687.22276323 0 832.85683388 0 22218
0.14550000 0.14550500 10589.90811975 0 135.84941670 0 4068.90542123 0 79.89931914 0 486.28354812 0 23559
0.14650000 0.14650700 10542.69289435 0 -18.44255320 0 3756.37767362 0 107.61089653 0 406.40363858 0 23044
0.14750000 0.14750500 10632.26540090 0 -29.83997809 0 3170.48519483 0 347.34856043 0 237.44367163 0 23649
0.14850000 0.14849900 10623.24825778 0 -1.88991778 0 3336.86424025 0 328.44028787 0 -135.30372981 0 23640
0.14950000 0.14949500 10298.95275021 0 258.16979136 0 3115.21776044 0 -201.74110865 0 139.82782905 0 24457
0.15050000 0.15050000 10303.75523849 0 130.54782456 0 3183.28443611 0 117.15853160 0 299.51111887 0 24591
0.15150000 0.15149900 9832.15754425 0 144.28094462 0 3081.13451222 0 -9.54559429 0 62.41393623 0 25020
0.15250000 0.15250500 9875.85686023 0 184.36009391 0 3240.33755321 0 167.62125948 0 304.89478587 0 25297
0.15350000 0.15350100 9620.19367937 0 132.35347142 0 3241.65740565 0 172.55684212 0 316.44515837 0 25452
0.15450000 0.15450400 9495.78372321 0 154.79872669 0 3308.90333274 0 -32.35113599 0 610.01472303 0 26061
0.15550000 0.15549900 9421.53925083 0 40.71833497 0 3001.15589102 0 306.43091664 0 560.60122239 0 26128
0.15650000 0.15649500 9190.58725678 0 -12.29936103 0 3014.24350342 0 343.18159773 0 1115.23094434 0 26331
0.15750000 0.15749700 9310.83801409 0 64.09913270 0 2789.40275889 0 190.52679942 0 1073.44596896 0 27345
0.15850000 0.15849900 9200.43623967 0 39.95514971 0 2936.17256810 0 145.95127888 0 1369.29699283 0 26980
0.15950000 0.15949700 9233.17745306 0 132.25254153 0 2619.85163114 0 -178.43739474 0 903.96471575 0 27777
0.16050000 0.16050000 8881.63087459 0 165.05142915 0 2810.17657077 0 -209.09346311 0 694.38323998 0 28224
0.16150000 0.16150500 8910.45689546 0 181.43312704 0 3079.08264078 0 -235.13892090 0 567.78942713 0 28075
0.16250000 0.16249700 8658.39835361 0 55.58430989 0 3291.40142396 0 -277.95094112 0 40.50316575 0 28590
0.16350000 0.16349900 8562.42622642 0 173.30438879 0 3529.79561117 0 -288.56188924 0 129.47530581 0 29163
0.16450000 0.16449100 8443.96115182 0 122.50781589 0 3610.59498093 0 -119.19154800 0 -143.48348756 0 28996
0.16550000 0.16550500 8510.13123281 0 -58.69760887 0 3665.47422343 0 221.65313453 0 -13.24654925 0 30777
0.16650000 0.16650700 8534.66496046 0 -44.33495247 0 3594.66802212 0 447.17487856 0 20.74608389 0 29211
0.16750000 0.16749900 8632.26749360 0 25.14784722 0 3412.94985132 0 120.29179474 0 300.37845047 0 30922
0.16850000 0.16850800 8559.17650572 0 -38.38130886 0 2970.45545787 0 249.51422127 0 164.53679761 0 30867
0.16950000 0.16949900 8638.26783115 0 46.50228327 0 3430.67358404 0 -26.68098338 0 633.64673637 0 30852
0.17050000 0.17049200 8563.62407569 0 147.82901852 0 3239.05097437 0 -131.53161373 0 294.35703965 0 31257
0.17150000 0.17149500 8450.44950203 0 39.56828876 0 3189.93915428 0 104.44180883 0 211.67660288 0 32608
0.17250000 0.17250900 8416.79881049 0 73.11561035 0 3244.59657284 0 -22.91818390 0 363.19122615 0 32361
0.17350000 0.17350400 8202.55015904 0 105.86103839 0 3057.44371553 0 184.38671279 0 1.46969451 0 32508
0.17450000 0.17449800 8339.80372128 0 34.71677739 0 3065.49592452 0 129.19026205 0 338.92035987 0 32791
0.17550000 0.17549800 8218.16656435 0 -81.00145138 0 2533.24047417 0 503.49708578 0 14.81905915 0 33633
0.17650000 0.17650100 8162.41111729 0 126.44962729 0 2361.95911970 0 194.50410264 0 417.20535528 0 33984
0.17750000 0.17750300 8034.09705979 0 74.85692827 0 2165.19019464 0 114.87374503 0 326.72558882 0 34069
