### header ###
fiducial parameters:
Omega_m = 0.31
Omega_nu = 0
Omega_de = 0.69
Omega_k = 0
H_0 = 100
w_de = -1
zeff = 0
beta = 0
fgrowth = 0
b_1 = 2
gamma = 0.55
Lx = 3500 Ly = 3500 Lz = 3500
nx = 700 ny = 700 nz = 700
xoffset = 1379.75464 yoffset = 22.6059522 zoffset = 368.141391
bins = 400 dk = 0.001
kx_ny = 0.628318531 ky_ny = 0.628318531 kz_ny = 0.628318531
############################
A(data) = 3.34677134 (not used)
A(ran) = 3.34888806 (used)
Ngal = 187856
weighted Ngal = 0
Nran = 9399747
weighted Nran = 0
SN(data) = 6593.40308
SN(ran) = 133.203305
SN(data+ran) = 6726.60638
############################
13 columns: k_central k_mean P_0(k) sigma^{lin}_{P_0(k)} P^img_1(k) sigma^{lin}_{P_1(k)} P_2(k) sigma^{lin}_{P_2(k)} P^img_3(k) sigma^{lin}_{P_3(k)} P_4(k) sigma^{lin}_{P_4(k)} N_modes
### header ###
0.00050000 0 0 0 0 0 0 0 0 0 0 0 0
0.00150000 0.00179520 42443.12700964 0 -41837.32583233 0 -30932.90464071 0 13332.28420358 0 123513.78745480 0 3
0.00250000 0.00253879 66332.34520445 0 -37283.28036539 0 -31865.56339209 0 -46469.12058988 0 -37280.72939009 0 6
0.00350000 0.00331552 96388.04707853 0 -24600.82939101 0 -62777.17293467 0 -11533.29205858 0 9837.05985330 0 7
0.00450000 0.00420575 118360.81735265 0 -13775.37752166 0 -49494.68820538 0 -63288.92076186 0 -14226.01285367 0 24
0.00550000 0.00557378 105874.23691637 0 17360.38511124 0 1921.30586495 0 -75176.79838687 0 -1866.21588970 0 45
0.00650000 0.00659388 93233.93249039 0 17176.27124190 0 -16477.74765810 0 -10720.42932544 0 -13703.17382953 0 40
0.00750000 0.00754703 76519.83142533 0 7181.07310251 0 59525.78854929 0 -16963.54208443 0 -11107.61191971 0 57
0.00850000 0.00846663 74929.24287099 0 10764.47246852 0 33626.73455550 0 13605.46038442 0 -19927.99720475 0 75
0.00950000 0.00948925 65643.69278593 0 5659.12796607 0 65503.83279242 0 13409.14619843 0 1383.70445767 0 112
0.01050000 0.01054430 64062.75357293 0 1913.27583836 0 57275.05195259 0 15454.03017978 0 20710.59206142 0 105
0.01150000 0.01145670 64851.11585201 0 -632.03185809 0 43540.37912373 0 19080.07519806 0 15762.03271903 0 144
0.01250000 0.01249090 65485.97596533 0 1277.00714303 0 57787.90889948 0 16277.21881727 0 30316.23409039 0 169
0.01350000 0.01339930 73782.41310654 0 1896.74995490 0 45183.76177555 0 17486.93566842 0 34951.57803096 0 180
0.01450000 0.01448870 73239.16628002 0 -4167.67253005 0 56755.54028754 0 21540.10268117 0 41227.86456002 0 267
0.01550000 0.01550050 77388.71579425 0 -3304.06757088 0 43864.79663446 0 19993.87891462 0 26806.75755204 0 238
0.01650000 0.01653350 89170.56157644 0 -8686.00434282 0 28297.85806976 0 19660.81027027 0 44242.89553843 0 315
0.01750000 0.01747870 91228.75499412 0 -794.16741156 0 30190.45991700 0 8727.37450744 0 36581.54033448 0 297
0.01850000 0.01844180 97517.90731164 0 1269.38749072 0 25427.01265168 0 1154.57141992 0 40892.68858825 0 388
0.01950000 0.01947590 90977.20664734 0 5887.91717672 0 31331.18952313 0 -6472.14597597 0 23150.54447806 0 399
0.02050000 0.02045430 81662.70853825 0 7398.09455319 0 40267.47781628 0 -5793.30926675 0 22248.38651829 0 462
0.02150000 0.02154770 84221.11493830 0 1835.81491887 0 48959.42704066 0 7114.43719124 0 34551.07490916 0 571
0.02250000 0.02255340 75511.41979880 0 -2380.98052247 0 40707.90924709 0 10208.37094473 0 14709.36721667 0 510
0.02350000 0.02348930 85423.62251142 0 916.65526330 0 32529.03879353 0 10654.00414692 0 17911.17395168 0 555
0.02450000 0.02439640 78327.47470395 0 -407.43401077 0 39333.37720930 0 1770.50995124 0 12782.04992298 0 592
0.02550000 0.02547300 82053.22958280 0 2047.46823023 0 31768.18268289 0 2790.88897928 0 23877.01787816 0 837
0.02650000 0.02652900 75109.03117352 0 2810.72003942 0 35954.88770690 0 1564.43551194 0 8908.37175043 0 723
0.02750000 0.02749970 70942.84486386 0 4681.66077903 0 29034.42445909 0 4498.03492235 0 15512.03713981 0 826
0.02850000 0.02848090 67247.59077662 0 1600.70372596 0 32550.44480364 0 5671.56119785 0 6712.48112264 0 831
0.02950000 0.02946900 67496.25541219 0 448.11430294 0 24562.67567350 0 5206.24112109 0 16560.48798733 0 996
0.03050000 0.03053250 63495.99340888 0 2381.45744393 0 24182.24761818 0 -833.29937264 0 4653.06767329 0 1041
0.03150000 0.03150510 60095.32151258 0 3355.27562719 0 21405.23372628 0 -2328.25297217 0 -3132.77512521 0 1036
0.03250000 0.03246190 56248.78349897 0 1356.73066669 0 26829.60541775 0 2097.81117318 0 3721.39603845 0 1059
0.03350000 0.03345080 53611.96233650 0 3646.85210376 0 20840.80271359 0 778.07519391 0 -3553.98551171 0 1302
0.03450000 0.03451200 49736.58721082 0 1661.30602609 0 21725.54749415 0 1699.70374992 0 1571.89988749 0 1339
0.03550000 0.03553350 47845.20539524 0 2859.67658275 0 26851.89872362 0 1372.30270721 0 151.76639344 0 1365
0.03650000 0.03647120 43546.59019402 0 2905.20594622 0 24700.53925157 0 3454.86348458 0 6281.69903317 0 1308
0.03750000 0.03744890 41816.47438207 0 386.79107501 0 26134.74192894 0 1870.25308539 0 11523.30998133 0 1579
0.03850000 0.03847530 41489.06224816 0 -853.20807116 0 23016.34099498 0 8484.73239180 0 16368.72119210 0 1662
0.03950000 0.03950240 43461.74253737 0 -285.87116486 0 18694.21245623 0 5158.31605907 0 17630.56666889 0 1683
0.04050000 0.04050350 43743.56985182 0 -253.84200631 0 19618.55280989 0 1361.32242223 0 13207.06459004 0 1822
0.04150000 0.04152450 42129.24613601 0 1846.61774470 0 18921.91472958 0 -157.59925392 0 19607.46161295 0 1887
0.04250000 0.04250150 40074.93463726 0 1566.88666647 0 18416.93253252 0 -409.26849475 0 12026.62849884 0 1920
0.04350000 0.04349210 39477.00820978 0 203.11752619 0 20961.58584835 0 657.89763850 0 16475.08577083 0 2005
0.04450000 0.04448520 38810.31636122 0 383.31842125 0 17353.50856913 0 3761.94545449 0 8474.79467933 0 2151
0.04550000 0.04548030 38766.61704524 0 -10.86993866 0 17815.12418611 0 2534.43832344 0 8602.59854177 0 2274
0.04650000 0.04648670 38467.59837552 0 553.26661385 0 14232.00210002 0 1396.21532783 0 11330.87771427 0 2311
0.04750000 0.04749250 36496.35994191 0 1284.58243054 0 13925.44141637 0 898.13850999 0 6257.90841572 0 2568
0.04850000 0.04851840 36657.40412160 0 -678.07141663 0 12301.80109512 0 1699.79247950 0 14878.06432225 0 2493
0.04950000 0.04949480 36023.65312798 0 70.72767564 0 12902.50032184 0 3315.74660126 0 3529.49614885 0 2644
0.05050000 0.05050630 37465.06508337 0 671.81487243 0 12821.97823199 0 -2181.49425416 0 7960.79533916 0 2829
0.05150000 0.05149060 34698.80965251 0 836.04111652 0 13315.64740816 0 -762.90798208 0 4660.78714637 0 2784
0.05250000 0.05249300 34955.79268580 0 182.83394521 0 15557.06739942 0 60.04862757 0 10081.21037172 0 3055
0.05350000 0.05348950 35829.55718139 0 44.49666212 0 12929.78466633 0 1343.44341275 0 3806.33242468 0 3009
0.05450000 0.05448610 35083.67418662 0 82.28481378 0 13960.26777479 0 1889.97323357 0 6246.68412441 0 3336
0.05550000 0.05550870 34818.92731546 0 527.93542914 0 13090.60702208 0 -149.66904810 0 4590.51332251 0 3349
0.05650000 0.05647670 33998.51147720 0 805.00240186 0 13094.26711707 0 808.72460756 0 4340.20718978 0 3324
0.05750000 0.05747970 33138.83280175 0 364.38352982 0 11449.88625753 0 701.60139095 0 3960.68861260 0 3639
0.05850000 0.05849280 32666.23689978 0 -312.63865958 0 11356.38746725 0 922.61234518 0 591.55564395 0 3846
0.05950000 0.05951020 32644.05450589 0 753.23645834 0 10273.85337152 0 -1122.37367518 0 -1056.31006967 0 3787
0.06050000 0.06049470 31857.57773029 0 821.43068278 0 10118.44351988 0 -2327.76495951 0 -3217.38986673 0 3930
0.06150000 0.06148310 30130.01289363 0 773.33925281 0 10262.73999218 0 -1344.75217399 0 -2534.46050584 0 4083
0.06250000 0.06249100 30792.15735144 0 142.70155818 0 12109.70156398 0 562.73184132 0 -6028.38718607 0 4303
0.06350000 0.06350600 30754.22545788 0 -578.76971211 0 10650.36623432 0 1954.23562869 0 -6841.17228083 0 4470
0.06450000 0.06451750 31247.67281011 0 -22.49804936 0 9191.64092049 0 839.65906497 0 -5448.69468637 0 4479
0.06550000 0.06550280 30618.58011920 0 -155.38988748 0 8836.23460548 0 1577.14602364 0 -2784.82209455 0 4636
0.06650000 0.06648880 30170.49576249 0 842.38195382 0 9309.22979054 0 419.16516979 0 -2382.32255730 0 4653
0.06750000 0.06749660 29776.31462295 0 700.51667189 0 7662.20922612 0 1334.38190484 0 -1524.46283814 0 5220
0.06850000 0.06852730 28450.58385173 0 373.06128231 0 9063.98124362 0 892.42654357 0 1142.92566312 0 5029
0.06950000 0.06949320 28653.88549179 0 291.41565422 0 6916.96952077 0 1320.69536781 0 2054.81060261 0 5040
0.07050000 0.07048030 27657.11962206 0 -194.42091866 0 6541.05558261 0 2690.95729477 0 4418.86595854 0 5475
0.07150000 0.07148790 28080.47060957 0 110.40388175 0 4236.38249515 0 -553.20450314 0 1211.24743632 0 5509
0.07250000 0.07249820 27509.16305477 0 882.80825757 0 6621.69967562 0 -1168.15813618 0 2884.31013117 0 5916
0.07350000 0.07351270 25719.15477929 0 1108.02277544 0 6901.88549292 0 -2192.75181906 0 -999.49984978 0 5721
0.07450000 0.07449140 25101.48602125 0 787.31637921 0 7924.84876985 0 -884.87232932 0 317.86372246 0 6028
0.07550000 0.07549160 24548.36802944 0 420.99632640 0 7789.90217658 0 -42.24936380 0 -3108.07502960 0 6183
0.07650000 0.07648840 24060.90992357 0 -128.26969271 0 8314.74870737 0 1123.26097093 0 -2318.00470619 0 6330
0.07750000 0.07749960 23759.89483839 0 181.27895940 0 6861.35825928 0 1432.55008903 0 -1122.22948962 0 6583
0.07850000 0.07848650 23403.97832832 0 114.45117043 0 6258.44079317 0 1782.88772703 0 1039.95499065 0 6549
0.07950000 0.07947320 23649.75925270 0 -178.90544325 0 5081.17678430 0 1420.05031007 0 2132.06078936 0 6828
0.08050000 0.08048110 23690.57485746 0 5.47461481 0 5105.52196160 0 782.09686192 0 2345.87688412 0 7147
0.08150000 0.08149960 23236.39034243 0 526.60559462 0 5234.73440605 0 -871.56732947 0 3559.47565420 0 7386
0.08250000 0.08250610 22629.81278134 0 646.19198924 0 6810.68258042 0 -1538.13828398 0 2930.16113936 0 7227
0.08350000 0.08350160 22209.78915291 0 775.21033774 0 8400.40602140 0 -1856.88819307 0 2061.77587430 0 7798
0.08450000 0.08449610 21839.34317484 0 230.46619963 0 9881.11408758 0 142.95221923 0 2641.63474195 0 7371
0.08550000 0.08548940 21657.78028079 0 -60.92383392 0 9602.09284595 0 246.95770037 0 290.63594307 0 8256
0.08650000 0.08650700 21572.26715232 0 76.27682330 0 10003.96018498 0 748.29976658 0 1857.29856736 0 8037
0.08750000 0.08749060 21577.25819095 0 422.59900436 0 9707.72540569 0 -39.79088908 0 768.02767859 0 8155
0.08850000 0.08849210 20732.66354334 0 305.75546275 0 8893.34317857 0 531.73083673 0 2054.97697057 0 8718
0.08950000 0.08949900 21009.16708326 0 -90.62317564 0 8987.16361355 0 972.76895602 0 2148.74194957 0 8571
0.09050000 0.09049190 20883.94746972 0 -264.63817742 0 7760.85433178 0 952.58519581 0 1386.12233860 0 8932
0.09150000 0.09150830 20693.95526599 0 497.90823164 0 7452.90724851 0 20.92365395 0 1229.85846480 0 9285
0.09250000 0.09250820 20306.76158053 0 465.53635511 0 6921.91619461 0 -412.74447587 0 1590.74383110 0 9204
0.09350000 0.09350330 19699.62945959 0 269.30424398 0 7528.30520536 0 77.46724147 0 1351.82835764 0 9349
0.09450000 0.09448040 19342.49291785 0 437.34253246 0 8365.97894607 0 -616.59069370 0 -25.84858905 0 9564
0.09550000 0.09549270 18675.35742142 0 518.07868241 0 8272.55779418 0 185.04109341 0 1748.39410452 0 10155
0.09650000 0.09649430 18152.51839728 0 203.55673759 0 9223.25083179 0 165.68806385 0 855.37750928 0 9913
0.09750000 0.09749140 18319.77364726 0 118.58818689 0 8147.10526550 0 417.21533736 0 1097.69687109 0 10476
0.09850000 0.09850240 17783.84701072 0 253.54365312 0 8447.76543237 0 323.61561720 0 -266.58246425 0 10575
0.09950000 0.09950330 17887.54970218 0 199.14133209 0 8651.25562278 0 -226.76728544 0 836.15646497 0 10882
0.10050000 0.10051200 17303.04362301 0 163.22027253 0 7499.31281654 0 798.16135158 0 319.38987116 0 10875
0.10150000 0.10150300 17258.67883522 0 -60.15277391 0 7171.55685552 0 234.02647385 0 77.58159171 0 11118
0.10250000 0.10250800 17080.77603617 0 144.67024563 0 6902.55096474 0 269.77340161 0 -147.73252511 0 11575
0.10350000 0.10349800 17201.67008291 0 127.01195097 0 6249.15746132 0 537.06348423 0 -1373.20109416 0 11364
0.10450000 0.10450100 16654.09768957 0 112.97825947 0 6003.22126019 0 -45.36820838 0 -568.79539869 0 12093
0.10550000 0.10551000 16727.18867746 0 110.55549841 0 5553.69504788 0 47.17618440 0 -1068.33292716 0 12067
0.10650000 0.10649700 16527.87986830 0 225.23004555 0 6058.95452486 0 110.55228197 0 -1538.33792552 0 12054
0.10750000 0.10749900 16110.51812714 0 381.43957249 0 6149.27014161 0 -582.02608753 0 -1199.60167953 0 12807
0.10850000 0.10850100 15633.37483443 0 446.12232397 0 6776.52169382 0 -176.68609474 0 -967.21670283 0 12736
0.10950000 0.10950300 15287.99496146 0 149.48049775 0 7026.62818500 0 -177.28501938 0 -1752.58657697 0 12933
0.11050000 0.11050200 15230.32073733 0 287.23760033 0 7479.08247331 0 72.92273443 0 -1682.81185697 0 13428
0.11150000 0.11150900 14911.78156098 0 213.90371522 0 7309.09878888 0 -287.25201888 0 -1609.32158599 0 13453
0.11250000 0.11250000 14703.15614638 0 11.09117477 0 7354.72797312 0 567.06739021 0 -1566.82011928 0 13668
0.11350000 0.11349100 14439.07474704 0 6.97848130 0 6716.25212960 0 692.59866639 0 -1029.15660130 0 13791
0.11450000 0.11448600 14659.67865434 0 230.89653807 0 6316.12610850 0 245.80421589 0 -1242.15860222 0 14205
0.11550000 0.11549300 14104.00968724 0 184.55197162 0 6306.31039920 0 428.21336826 0 -909.59904380 0 14776
0.11650000 0.11649800 13791.57066921 0 207.59836976 0 5710.89058223 0 463.16172984 0 -532.00700754 0 14553
0.11750000 0.11747300 13695.18816773 0 -27.32970749 0 5404.59608731 0 611.77933247 0 -513.57898381 0 14568
0.11850000 0.11849100 13644.72322161 0 -38.12110938 0 4795.21245338 0 537.26312577 0 -245.09105192 0 16015
0.11950000 0.11950300 13614.33334197 0 77.42476218 0 4573.47724399 0 49.41338973 0 -1144.98862575 0 15270
0.12050000 0.12050700 13560.76286071 0 139.61820542 0 4332.74281423 0 61.23971121 0 180.22085921 0 15999
0.12150000 0.12150000 13359.01398823 0 52.07084052 0 4486.17843281 0 223.46876347 0 216.65322295 0 15670
0.12250000 0.12250700 13463.93671136 0 23.92781556 0 4694.22710517 0 46.75793536 0 540.95760347 0 16887
0.12350000 0.12352200 13589.48906081 0 27.12895682 0 4536.38828140 0 532.24879563 0 487.19968099 0 16407
0.12450000 0.12449800 13412.25173358 0 232.99610165 0 4828.24203789 0 -284.56462186 0 1215.66173271 0 16306
0.12550000 0.12549900 12995.88820014 0 215.77036367 0 5055.65594012 0 -286.34808633 0 1138.51136674 0 17523
0.12650000 0.12650100 13210.05921321 0 162.76996993 0 5892.60875303 0 -31.19609874 0 1872.22731845 0 17154
0.12750000 0.12750600 12982.02420396 0 -104.09376707 0 5381.41548569 0 356.59972780 0 1220.86350408 0 18007
0.12850000 0.12850300 13279.26828217 0 -120.42377999 0 5734.45937575 0 532.81222844 0 2126.40427891 0 17496
0.12950000 0.12949900 13279.26828217 0 97.56371396 0 5214.21569169 0 -119.40228075 0 1214.06460035 0 18405
0.13050000 0.13049000 13334.05879509 0 205.36127533 0 5740.80354040 0 -258.62342132 0 1440.09210295 0 18100
0.13150000 0.13148800 12700.52962541 0 298.53731178 0 5517.83720815 0 46.85686884 0 1401.22854885 0 19059
0.13250000 0.13249300 12758.53658545 0 -43.49623616 0 5677.88318011 0 352.23423268 0 1494.48333279 0 18957
0.13350000 0.13349100 12648.73373566 0 -44.45362828 0 4559.43578866 0 777.68700202 0 954.06365237 0 19468
0.13450000 0.13450700 12590.94859956 0 327.67166792 0 4725.60410134 0 181.74478967 0 1359.35928037 0 19953
0.13550000 0.13551000 11980.48911953 0 313.79658054 0 4528.75753790 0 -303.66144477 0 1045.38634980 0 19956
0.13650000 0.13649900 11659.95352773 0 328.73531371 0 4198.79442869 0 -114.10179772 0 790.03704982 0 19723
0.13750000 0.13749600 11291.17122920 0 170.49166125 0 4627.31391398 0 238.14463527 0 371.28558168 0 20946
0.13850000 0.13851100 11032.70197552 0 58.74940476 0 4041.14415527 0 258.39383354 0 380.31492512 0 20955
0.13950000 0.13949800 11148.20570054 0 -160.64156924 0 3562.13754147 0 633.73990242 0 170.42178671 0 20506
0.14050000 0.14048300 11184.58482653 0 -182.72192412 0 3274.25443348 0 725.53730309 0 474.22963527 0 21447
0.14150000 0.14148400 11213.20011465 0 28.53210415 0 2406.09099236 0 331.28517989 0 133.65890530 0 21771
0.14250000 0.14249400 11400.19769520 0 18.45331166 0 2636.52170015 0 113.82673604 0 700.10186112 0 22470
0.14350000 0.14350900 11259.00675805 0 37.23459001 0 2337.69158078 0 -187.81167440 0 -46.33247704 0 22519
0.14450000 0.14449900 11153.86221098 0 183.70460417 0 2564.42891999 0 -316.93428015 0 176.49976264 0 22218
0.14550000 0.14550500 10885.90998391 0 270.28803315 0 3115.56158754 0 -536.79507726 0 -64.48366450 0 23559
0.14650000 0.14650700 10772.77977504 0 287.80546961 0 3779.15899215 0 -622.52004759 0 -814.49646645 0 23044
0.14750000 0.14750500 10392.96173554 0 228.19028601 0 3996.16935164 0 -307.37921398 0 -487.38934045 0 23649
0.14850000 0.14849900 10285.89841140 0 154.75990750 0 4029.22111855 0 118.99190646 0 -651.42148860 0 23640
0.14950000 0.14949500 10242.92002323 0 -13.77715211 0 4043.15166191 0 459.30088418 0 -294.71528531 0 24457
0.15050000 0.15050000 10144.62983587 0 35.57667789 0 3838.66326378 0 456.07223675 0 77.49918412 0 24591
0.15150000 0.15149900 10028.50500383 0 176.68831298 0 3598.80503858 0 349.87846245 0 257.34793367 0 25020
0.15250000 0.15250500 9808.64420672 0 185.69547403 0 3420.53623003 0 153.80606456 0 481.80270455 0 25297
0.15350000 0.15350100 9504.06884733 0 123.38402045 0 3411.57454289 0 268.96263511 0 619.35129262 0 25452
0.15450000 0.15450400 9221.90879696 0 208.70748945 0 3186.85580153 0 98.38801171 0 770.06180412 0 26061
0.15550000 0.15549900 9050.83817523 0 125.27174217 0 3010.89396194 0 19.40116535 0 1126.46632685 0 26128
0.15650000 0.15649500 8854.39089489 0 -40.79652791 0 2718.24163927 0 511.24317773 0 814.61070578 0 26331
0.15750000 0.15749700 9265.23101224 0 -176.00620437 0 2155.99559237 0 604.63881987 0 797.18976273 0 27345
0.15850000 0.15849900 9198.75037774 0 -119.97458651 0 1962.14365211 0 352.58582362 0 929.69074707 0 26980
0.15950000 0.15949700 9264.86500274 0 98.21454539 0 1577.57858032 0 -19.81231602 0 967.64704127 0 27777
0.16050000 0.16050000 9045.66967746 0 241.26015250 0 1667.19545167 0 -466.89169937 0 750.54129749 0 28224
0.16150000 0.16150500 8949.57554710 0 177.64326504 0 2093.19723525 0 -287.89752654 0 474.13536010 0 28075
0.16250000 0.16249700 8725.62209832 0 -8.32155870 0 2325.96818560 0 -59.12750367 0 415.93319499 0 28590
0.16350000 0.16349900 8870.80586637 0 31.70928843 0 2365.45284674 0 57.80099651 0 637.86360945 0 29163
0.16450000 0.16449100 8804.39177904 0 53.31139090 0 2514.15252422 0 -177.39260399 0 79.52221844 0 28996
0.16550000 0.16550500 8821.64968150 0 150.41437653 0 2541.37032153 0 -200.99356198 0 128.00683134 0 30777
0.16650000 0.16650700 8657.94361454 0 63.33461649 0 2631.49738794 0 -25.75009922 0 104.46521126 0 29211
0.16750000 0.16749900 8588.30198890 0 73.73294637 0 2757.70411801 0 97.89866810 0 178.70025611 0 30922
0.16850000 0.16850800 8491.43147476 0 48.55215829 0 2391.78334829 0 257.66957838 0 -276.67545347 0 30867
0.16950000 0.16949900 8514.54552920 0 70.58837021 0 2692.85388945 0 -54.79927497 0 30.93589926 0 30852
0.17050000 0.17049200 8372.58929946 0 121.03268670 0 2410.36110318 0 -219.17092465 0 -469.06335574 0 31257
0.17150000 0.17149500 8199.24498235 0 193.88854121 0 2951.42296391 0 -290.61154244 0 -553.00375248 0 32608
0.17250000 0.17250900 8096.56268101 0 87.42824545 0 2637.34244873 0 -143.29604633 0 -440.25729902 0 32361
0.17350000 0.17350400 8125.14469554 0 -2.21240542 0 2600.94114034 0 402.72912503 0 -782.67582240 0 32508
0.17450000 0.17449800 8032.84375454 0 -75.08906702 0 2474.71222788 0 356.49547055 0 -458.38807867 0 32791
0.17550000 0.17549800 8027.83053352 0 87.68101383 0 2445.07654963 0 164.60112655 0 -475.37202856 0 33633
0.17650000 0.17650100 7965.83074258 0 260.77955001 0 2222.30985892 0 -120.34946897 0 -482.86191386 0 33984
0.17750000 0.17750300 7614.59471762 0 162.59361990 0 2549.79963121 0 -259.38316831 0 -80.29239116 0 34069
0.17850000 0.17849800 7453.89436504 0 -9.34476599 0 2548.60178194 0 189.65614046 0 15.59910304 0 34536
