### header ###
fiducial parameters:
Omega_m = 0.31
Omega_nu = 0
Omega_de = 0.69
Omega_k = 0
H_0 = 100
w_de = -1
zeff = 0
beta = 0
fgrowth = 0
b_1 = 2
gamma = 0.55
Lx = 3500 Ly = 3500 Lz = 3500
nx = 700 ny = 700 nz = 700
xoffset = 1379.75464 yoffset = 22.6059522 zoffset = 368.141391
bins = 400 dk = 0.001
kx_ny = 0.628318531 ky_ny = 0.628318531 kz_ny = 0.628318531
############################
A(data) = 3.36665042 (not used)
A(ran) = 3.35896023 (used)
Ngal = 188992
weighted Ngal = 0
Nran = 9399747
weighted Nran = 0
SN(data) = 6706.23639
SN(ran) = 133.603929
SN(data+ran) = 6839.84031
############################
13 columns: k_central k_mean P_0(k) sigma^{lin}_{P_0(k)} P^img_1(k) sigma^{lin}_{P_1(k)} P_2(k) sigma^{lin}_{P_2(k)} P^img_3(k) sigma^{lin}_{P_3(k)} P_4(k) sigma^{lin}_{P_4(k)} N_modes
### header ###
0.00050000 0 0 0 0 0 0 0 0 0 0 0 0
0.00150000 0.00179520 5061.05735303 0 2931.68063334 0 4780.61643820 0 17332.76803083 0 12134.32402120 0 3
0.00250000 0.00253879 11459.20286296 0 -9508.47205251 0 -4025.08410209 0 26306.87730558 0 6809.76201107 0 6
0.00350000 0.00331552 36303.26220304 0 -32582.49836282 0 -18309.79157000 0 30530.73783937 0 -10483.17753152 0 7
0.00450000 0.00420575 55031.63554587 0 -23991.47903067 0 -19242.33940941 0 9646.37999537 0 8246.98149402 0 24
0.00550000 0.00557378 96873.95241683 0 -14878.84070604 0 -50799.56752634 0 -5446.16589347 0 21495.07242156 0 45
0.00650000 0.00659388 85416.19140947 0 530.85463217 0 -3300.18565194 0 -12378.55217800 0 -4800.10367124 0 40
0.00750000 0.00754703 94612.79009500 0 17935.46367300 0 -33353.00381482 0 -15395.24683595 0 31478.81335451 0 57
0.00850000 0.00846663 70672.21965832 0 10028.21663270 0 20900.69517711 0 -9124.25080783 0 23739.81977191 0 75
0.00950000 0.00948925 61053.04636906 0 12401.28913175 0 32969.91387223 0 -3834.07150824 0 31716.27588117 0 112
0.01050000 0.01054430 48580.10810503 0 2303.86343008 0 18163.05503438 0 21386.71142738 0 43593.83869302 0 105
0.01150000 0.01145670 52205.04400362 0 -2060.41165707 0 33289.45125630 0 25732.35330366 0 36642.65282966 0 144
0.01250000 0.01249090 64117.43317389 0 -12496.78433747 0 2320.87732620 0 33000.74739974 0 45124.53478384 0 169
0.01350000 0.01339930 69724.69870303 0 -7184.82192707 0 12544.03283647 0 12488.02229188 0 28086.12712001 0 180
0.01450000 0.01448870 80750.23576532 0 1065.78527923 0 -5581.45631384 0 -10830.83109986 0 37311.45200564 0 267
0.01550000 0.01550050 73613.93782490 0 -979.42256507 0 18170.59704830 0 -9059.24530252 0 5855.50869924 0 238
0.01650000 0.01653350 76789.34751117 0 5401.87874406 0 13405.59701541 0 -11722.06423064 0 22679.50134366 0 315
0.01750000 0.01747870 73579.55511436 0 1652.04487663 0 21351.21959715 0 6271.85005028 0 2298.52856435 0 297
0.01850000 0.01844180 68139.54483519 0 1160.33884233 0 17661.28928444 0 3007.52223807 0 10953.98775078 0 388
0.01950000 0.01947590 68817.99335251 0 3932.07332448 0 25109.24985911 0 3802.91633602 0 2171.51217690 0 399
0.02050000 0.02045430 64741.97847404 0 -237.97161260 0 10514.36597734 0 3747.12761537 0 7064.60444335 0 462
0.02150000 0.02154770 66220.76776315 0 -2259.03281202 0 6798.67081412 0 8682.78789570 0 2944.89024890 0 571
0.02250000 0.02255340 64410.90624514 0 320.08861657 0 8910.44580426 0 -2719.42839734 0 4509.31466965 0 510
0.02350000 0.02348930 66177.84483096 0 2109.76748349 0 656.88168486 0 -7713.45055602 0 -134.82015362 0 555
0.02450000 0.02439640 66549.17810479 0 2302.74321919 0 14699.60696336 0 -7118.62966369 0 -11819.77767575 0 592
0.02550000 0.02547300 62680.90134515 0 1261.45728491 0 15711.01321307 0 -665.62598453 0 -5058.83911364 0 837
0.02650000 0.02652900 67059.15134047 0 -994.67739735 0 21780.11618313 0 -2752.72417058 0 -14302.32028867 0 723
0.02750000 0.02749970 62899.28701307 0 1210.06067825 0 23705.65888531 0 -7182.78114684 0 -12196.65654805 0 826
0.02850000 0.02848090 63802.66500450 0 4297.69463188 0 32415.79767269 0 -5687.64343343 0 -13484.34451374 0 831
0.02950000 0.02946900 61703.43415811 0 1480.25332710 0 39266.27546776 0 -5963.96951420 0 -15580.69164892 0 996
0.03050000 0.03053250 64557.86460470 0 -1711.54914826 0 45546.44391575 0 8015.84094962 0 -3962.56302489 0 1041
0.03150000 0.03150510 62759.42701955 0 -693.37726842 0 30187.57620579 0 7873.71835192 0 -21188.28991398 0 1036
0.03250000 0.03246190 66987.05856030 0 906.30606743 0 38891.94757076 0 7097.23474477 0 17178.37856932 0 1059
0.03350000 0.03345080 60111.84739604 0 1120.61017486 0 22823.90872793 0 4657.34887532 0 -11172.27359791 0 1302
0.03450000 0.03451200 63638.95893754 0 1890.28378708 0 33037.57017361 0 7942.22867547 0 20701.94092780 0 1339
0.03550000 0.03553350 55479.83081455 0 1271.80537166 0 14964.24292254 0 5636.47974191 0 2843.73853274 0 1365
0.03650000 0.03647120 56537.93100341 0 2267.28466255 0 24260.55146863 0 2375.35728561 0 17772.20125392 0 1308
0.03750000 0.03744890 51584.38062240 0 1408.63746841 0 14242.64964909 0 2921.99801840 0 6993.35459416 0 1579
0.03850000 0.03847530 50419.91585480 0 -244.38232444 0 16869.48873431 0 2444.89909048 0 5289.53601017 0 1662
0.03950000 0.03950240 48912.51127757 0 2433.48624882 0 10298.48691994 0 -2674.00994584 0 4653.36713561 0 1683
0.04050000 0.04050350 46873.17289470 0 2018.65330056 0 12979.80596457 0 -2219.88088679 0 -3433.55729525 0 1822
0.04150000 0.04152450 43519.52767347 0 1674.00544659 0 16444.69589119 0 -2198.04232000 0 -164.19407962 0 1887
0.04250000 0.04250150 41833.77664931 0 1125.26847758 0 13178.22747797 0 1486.94131886 0 -7069.67312036 0 1920
0.04350000 0.04349210 40429.52020369 0 280.36438558 0 15253.94498683 0 1364.31704540 0 -1642.17371135 0 2005
0.04450000 0.04448520 41327.90715650 0 -350.36758424 0 10931.42825618 0 3721.55131520 0 -5001.32016627 0 2151
0.04550000 0.04548030 41980.95683281 0 -470.47526511 0 11943.22269779 0 3410.59851756 0 4104.97399370 0 2274
0.04650000 0.04648670 41670.62514220 0 -508.96282764 0 6082.22385606 0 2478.35014047 0 -16.55350053 0 2311
0.04750000 0.04749250 41951.89789680 0 -73.52465369 0 7515.36177852 0 694.72928532 0 1030.14704519 0 2568
0.04850000 0.04851840 40954.91020313 0 2556.49871417 0 7637.54240411 0 -4537.74140743 0 -2184.26705339 0 2493
0.04950000 0.04949480 37981.36030131 0 2816.39873226 0 13657.25627416 0 -5921.78969220 0 -4107.45842182 0 2644
0.05050000 0.05050630 33923.53498583 0 2633.62689775 0 16467.10010903 0 -2274.98195323 0 -2975.37994931 0 2829
0.05150000 0.05149060 31841.82823062 0 542.83312488 0 16073.14079343 0 623.25206659 0 -4233.58751352 0 2784
0.05250000 0.05249300 32874.86231438 0 -783.61635591 0 15828.57990072 0 5406.22649326 0 -1204.23779985 0 3055
0.05350000 0.05348950 33041.34118057 0 -758.31400831 0 13393.95125861 0 5501.11168315 0 -1510.89830427 0 3009
0.05450000 0.05448610 33028.36448014 0 -229.24949532 0 8573.68379132 0 2071.85777232 0 3656.75654263 0 3336
0.05550000 0.05550870 33326.82859002 0 -13.47181146 0 8414.79130384 0 1506.82783499 0 2736.79721176 0 3349
0.05650000 0.05647670 33852.55132536 0 478.20915674 0 7444.36702686 0 -785.03824735 0 2964.37748194 0 3324
0.05750000 0.05747970 32568.30163073 0 196.84323608 0 9318.05838331 0 -961.84301791 0 4189.40018487 0 3639
0.05850000 0.05849280 31900.27883854 0 1102.36293764 0 10203.91228356 0 -3285.61181915 0 -1262.18930390 0 3846
0.05950000 0.05951020 31340.39521659 0 1280.98888273 0 11526.63734041 0 -2897.59738512 0 809.99344049 0 3787
0.06050000 0.06049470 30030.08120913 0 482.88409625 0 16539.08197722 0 -1231.31141160 0 -5073.63477037 0 3930
0.06150000 0.06148310 30133.89481256 0 341.95380223 0 14694.17227685 0 -62.87033899 0 -1392.28904411 0 4083
0.06250000 0.06249100 29925.93486979 0 -64.84368475 0 16300.62124283 0 642.82137449 0 -5053.34897116 0 4303
0.06350000 0.06350600 29568.02194427 0 153.72288058 0 14861.76026274 0 1146.26411340 0 -4691.27684678 0 4470
0.06450000 0.06451750 30008.12063917 0 16.98905184 0 15776.89492294 0 918.09490066 0 -2649.37639742 0 4479
0.06550000 0.06550280 29752.69037345 0 -63.57862283 0 13229.91245575 0 1167.13774606 0 -1651.75650551 0 4636
0.06650000 0.06648880 29994.36755496 0 22.56504019 0 13774.93387378 0 1566.44301859 0 -1260.29270923 0 4653
0.06750000 0.06749660 30411.72929612 0 24.66538016 0 12831.18392546 0 160.39645379 0 -2540.76030570 0 5220
0.06850000 0.06852730 29675.93929057 0 429.74284431 0 13707.27757240 0 829.06364452 0 617.93827413 0 5029
0.06950000 0.06949320 29491.49268532 0 209.33414208 0 12629.54596494 0 -394.56489495 0 -986.60633333 0 5040
0.07050000 0.07048030 29597.85726406 0 253.20537161 0 14398.03731834 0 479.52790006 0 1279.79103346 0 5475
0.07150000 0.07148790 28572.58701816 0 342.61705581 0 11680.36133011 0 1226.36473776 0 -1100.60165557 0 5509
0.07250000 0.07249820 28839.88486462 0 50.96859737 0 14032.91511480 0 258.42156153 0 2130.26401545 0 5916
0.07350000 0.07351270 29031.54074788 0 -21.40700832 0 11457.76100736 0 496.39761061 0 -403.43563427 0 5721
0.07450000 0.07449140 28880.36773348 0 128.73219562 0 12257.10357142 0 781.91496629 0 -1219.08891256 0 6028
0.07550000 0.07549160 28500.71606194 0 249.44656496 0 10624.17991832 0 41.81325793 0 -468.85262299 0 6183
0.07650000 0.07648840 28022.35273756 0 411.85828924 0 10266.07844246 0 483.55400455 0 -2390.58549902 0 6330
0.07750000 0.07749960 27622.18235167 0 586.09101122 0 10287.15171666 0 -75.33118785 0 -2332.64508617 0 6583
0.07850000 0.07848650 25899.71946561 0 998.81663205 0 10347.64310481 0 118.85215738 0 -2359.14195567 0 6549
0.07950000 0.07947320 25168.92049869 0 533.43666282 0 9082.80300484 0 1918.33342416 0 -1170.53165232 0 6828
0.08050000 0.08048110 24161.17434398 0 379.45646647 0 7782.13833872 0 1069.33224401 0 -17.25790245 0 7147
0.08150000 0.08149960 23405.19835999 0 540.67699619 0 6937.26641119 0 2250.04894249 0 821.91980457 0 7386
0.08250000 0.08250610 22476.64335148 0 557.93046216 0 5769.80702042 0 1570.35821111 0 3119.01094979 0 7227
0.08350000 0.08350160 21265.70646867 0 546.28026889 0 5384.83157435 0 550.16551518 0 3773.70212325 0 7798
0.08450000 0.08449610 20805.08905941 0 601.23825889 0 5915.62298670 0 533.85369183 0 4186.05064340 0 7371
0.08550000 0.08548940 19959.05255620 0 449.26113270 0 5654.32547779 0 -939.60184067 0 3165.42760902 0 8256
0.08650000 0.08650700 19307.66655944 0 749.46766962 0 7429.78210287 0 -1503.47829351 0 3274.28770707 0 8037
0.08750000 0.08749060 19266.07457088 0 244.19044673 0 6891.58177096 0 -830.91587441 0 1894.25443559 0 8155
0.08850000 0.08849210 18691.21783305 0 -189.66834077 0 8407.03855718 0 336.50469717 0 2020.18388574 0 8718
0.08950000 0.08949900 19478.91464032 0 -121.27669303 0 8145.29740040 0 -351.10736707 0 254.10486768 0 8571
0.09050000 0.09049190 19658.03747103 0 -95.82461427 0 7764.69188592 0 586.46145719 0 -574.83677367 0 8932
0.09150000 0.09150830 19651.71548877 0 10.08986151 0 7100.68410702 0 -89.53768020 0 -827.50533135 0 9285
0.09250000 0.09250820 19737.67226512 0 -62.02286063 0 6658.65554385 0 861.01627381 0 -1036.74408914 0 9204
0.09350000 0.09350330 19506.42080875 0 286.78618861 0 7355.01634424 0 243.37191640 0 75.19365701 0 9349
0.09450000 0.09448040 19206.07119539 0 357.74544845 0 5956.84896575 0 166.79163795 0 -1358.12815751 0 9564
0.09550000 0.09549270 18860.91314636 0 85.73717065 0 7153.72221083 0 419.78516769 0 -130.69977396 0 10155
0.09650000 0.09649430 18610.36300730 0 199.76022088 0 5771.38197039 0 284.22079476 0 404.55584517 0 9913
0.09750000 0.09749140 18440.55678202 0 -62.96982703 0 5882.57121979 0 1097.69687109 0 1910.62504229 0 10476
0.09850000 0.09850240 18750.88847263 0 -136.96851847 0 5046.88280333 0 1616.70832316 0 1452.08168686 0 10575
0.09950000 0.09950330 18415.93432480 0 343.10506847 0 4847.67381495 0 451.02352390 0 2149.19668864 0 10882
0.10050000 0.10051200 17934.35455331 0 628.99952485 0 5381.95895434 0 -704.91765884 0 3885.26847336 0 10875
0.10150000 0.10150300 17056.15357895 0 425.36736712 0 5107.42964747 0 99.83907301 0 2913.20269922 0 11118
0.10250000 0.10250800 16776.87723979 0 102.83269798 0 6315.70464301 0 -20.54533323 0 3712.46762490 0 11575
0.10350000 0.10349800 16716.43021642 0 193.81866667 0 5555.22563306 0 184.42664109 0 2431.45655978 0 11364
0.10450000 0.10450100 16185.82735442 0 318.51588484 0 5874.65210517 0 135.63424748 0 2848.69629777 0 12093
0.10550000 0.10551000 16149.55914040 0 224.11870761 0 5628.37207694 0 -343.27254555 0 2689.84817508 0 12067
0.10650000 0.10649700 15689.60720296 0 96.71035726 0 5835.75527747 0 127.62640328 0 2558.08475534 0 12054
0.10750000 0.10749900 15568.82406819 0 351.48114041 0 6292.14694070 0 -277.12242871 0 2108.93564372 0 12807
0.10850000 0.10850100 15175.86296031 0 363.20009910 0 5846.84647442 0 57.26684447 0 1773.06092654 0 12736
0.10950000 0.10950300 14961.69194724 0 115.86418892 0 6534.02376374 0 85.56947175 0 2509.70495425 0 12933
0.11050000 0.11050200 14710.47633637 0 187.89929486 0 6452.10418308 0 436.34321562 0 2133.53591855 0 13428
0.11150000 0.11150900 14561.18882544 0 -25.55555962 0 6063.08045012 0 709.93753458 0 3376.51526934 0 13453
0.11250000 0.11250000 14750.29373341 0 -194.86789390 0 5762.54228642 0 815.22183073 0 2426.32133559 0 13668
0.11350000 0.11349100 15050.86517071 0 -107.54645668 0 5404.05261866 0 500.92725545 0 3261.86556649 0 13791
0.11450000 0.11448600 14866.86221334 0 269.33086285 0 5337.99344963 0 -593.46222071 0 2061.08822009 0 14205
0.11550000 0.11549300 14540.55919912 0 316.25993538 0 5052.43949301 0 -722.86876110 0 2459.88329756 0 14776
0.11650000 0.11649800 14135.06503869 0 195.35701569 0 6046.65438744 0 -87.60603733 0 1275.85365854 0 14553
0.11750000 0.11747300 14128.96488037 0 -14.37008750 0 5422.23109046 0 101.73533495 0 865.16549059 0 14568
0.11850000 0.11849100 14379.95866731 0 -83.33836657 0 5069.19829159 0 821.25655099 0 891.80100006 0 16015
0.11950000 0.11950300 14141.60884489 0 33.12241783 0 4613.67174173 0 306.41982545 0 51.35124366 0 15270
0.12050000 0.12050700 14172.22054847 0 245.35502241 0 4291.09536969 0 94.79546211 0 957.36771994 0 15999
0.12150000 0.12150000 13573.85047311 0 344.45597626 0 4379.96913084 0 -109.92984399 0 996.54959140 0 15670
0.12250000 0.12250700 13401.16053663 0 60.55848990 0 4524.43197109 0 676.12712980 0 2249.93803052 0 16887
0.12350000 0.12352200 13289.91583124 0 82.11234566 0 4441.59182108 0 445.04204139 0 1579.46408381 0 16407
0.12450000 0.12449800 13322.19121436 0 66.59764664 0 4336.44727401 0 207.53514994 0 2326.71129580 0 16306
0.12550000 0.12549900 12935.66300071 0 247.28489068 0 4575.67330099 0 -515.41679514 0 2316.29666186 0 17523
0.12650000 0.12650100 13074.19205060 0 120.00786010 0 5097.82467092 0 -153.91143093 0 2919.53577268 0 17154
0.12750000 0.12750600 12938.65762389 0 -212.73581219 0 4965.80615364 0 352.43498335 0 2122.12307689 0 18007
0.12850000 0.12850300 13547.12068847 0 -202.81030004 0 4761.59503543 0 583.66536644 0 2292.21767329 0 17496
0.12950000 0.12949900 13373.76528017 0 127.15170005 0 4278.47358756 0 -404.82203389 0 1740.78554342 0 18405
0.13050000 0.13049000 13573.96138508 0 186.82012140 0 4496.60415795 0 -91.20901266 0 1806.32342618 0 18100
0.13150000 0.13148800 12912.48239909 0 100.24512173 0 4607.70467778 0 -54.21731987 0 1440.61338921 0 19059
0.13250000 0.13249300 13023.61619251 0 168.49857316 0 4698.79667831 0 236.26689563 0 1130.78080246 0 18957
0.13350000 0.13349100 12823.64191153 0 137.38776572 0 4300.60052548 0 115.83535181 0 393.02100034 0 19468
0.13450000 0.13450700 12584.07205745 0 102.36919686 0 4615.74579556 0 -76.80398789 0 604.22511823 0 19953
0.13550000 0.13551000 12486.91317219 0 -53.85330678 0 3543.88143129 0 354.55007460 0 164.99930052 0 19956
0.13650000 0.13649900 12567.76799794 0 21.66321497 0 4047.13340162 0 226.97912731 0 310.53133216 0 19723
0.13750000 0.13749600 12483.03125326 0 44.99576599 0 2988.13482581 0 295.76340342 0 -60.43704129 0 20946
0.13850000 0.13851100 12397.85086069 0 211.95499192 0 3534.76446740 0 -224.59895644 0 64.62596455 0 20955
0.13950000 0.13949800 12013.54088644 0 269.07576532 0 3231.69751079 0 -276.03105493 0 -665.31210366 0 20506
0.14050000 0.14048300 11896.52875863 0 258.13984513 0 4133.68910260 0 -142.35551283 0 319.10593652 0 21447
0.14150000 0.14148400 11532.62658676 0 116.27345409 0 3792.85662038 0 -36.83098135 0 -413.04282907 0 21771
0.14250000 0.14249400 11485.48899973 0 122.98141000 0 4069.18270115 0 275.48980452 0 336.73428495 0 22470
0.14350000 0.14350900 11214.53105829 0 148.83831745 0 3858.92688060 0 418.98438328 0 117.85949525 0 22519
0.14450000 0.14449900 11115.93031742 0 83.46524987 0 3998.69814455 0 -13.64106313 0 647.51516903 0 22218
0.14550000 0.14550500 10859.03601370 0 116.71377461 0 3651.41058570 0 450.24492187 0 1186.69152628 0 23559
0.14650000 0.14650700 10988.69210603 0 14.88505178 0 3476.30276828 0 555.42828813 0 1091.31943284 0 23044
0.14750000 0.14750500 10707.71881374 0 62.17048446 0 3124.94474016 0 155.28563023 0 1546.65632323 0 23649
0.14850000 0.14849900 10706.69842362 0 220.22347924 0 3225.15370459 0 -12.73258318 0 1282.08691123 0 23640
0.14950000 0.14949500 10481.66912874 0 243.78561804 0 3376.70381969 0 -348.38447822 0 1419.08537593 0 24457
0.15050000 0.15050000 10132.09678332 0 158.19928767 0 3784.90423217 0 -233.22347119 0 1278.88155531 0 24591
0.15150000 0.15149900 10069.36497338 0 167.97395954 0 3954.72154865 0 -94.35680527 0 1469.92742274 0 25020
0.15250000 0.15250500 9975.12307291 0 -46.13327915 0 3780.40120621 0 229.69092496 0 1333.58333866 0 25297
0.15350000 0.15350100 10002.26323185 0 21.10078037 0 4012.90596784 0 312.87379295 0 1162.54599052 0 25452
0.15450000 0.15450400 10174.53170285 0 133.16756528 0 3820.78425430 0 -160.22897671 0 1156.59001776 0 26061
0.15550000 0.15549900 9734.72137906 0 234.73741957 0 4246.51984916 0 -327.29456722 0 938.72674523 0 26128
0.15650000 0.15649500 9616.01229812 0 129.82689676 0 3933.98101035 0 93.65595253 0 1467.43190343 0 26331
0.15750000 0.15749700 9518.80904807 0 -41.73839236 0 3869.01986983 0 524.12227563 0 835.52204850 0 27345
0.15850000 0.15849900 9732.94678755 0 -156.62433770 0 3123.10360147 0 985.23213403 0 1683.37750801 0 26980
0.15950000 0.15949700 9637.00793395 0 -146.75760890 0 2483.54082065 0 586.97387049 0 1029.75885330 0 27777
0.16050000 0.16050000 9642.84190354 0 149.27198325 0 2261.83888485 0 88.83649472 0 1508.50260573 0 28224
0.16150000 0.16150500 9372.69361947 0 266.61130136 0 1806.48979414 0 -162.44943434 0 671.56864786 0 28075
0.16250000 0.16249700 9108.14638987 0 263.21850421 0 2173.13149166 0 -285.88891078 0 790.43078731 0 28590
0.16350000 0.16349900 8814.26294433 0 114.29145719 0 2029.37848801 0 -226.97579995 0 477.04014458 0 29163
0.16450000 0.16449100 8686.21507556 0 96.23066299 0 2267.41775691 0 27.09058128 0 217.85439958 0 28996
0.16550000 0.16550500 8560.24126062 0 89.25441103 0 2106.65085715 0 -74.62656411 0 -34.89778573 0 30777
0.16650000 0.16650700 8547.55293131 0 60.23240871 0 2338.78960927 0 81.51730295 0 156.67757545 0 29211
0.16750000 0.16749900 8522.39809664 0 17.08576707 0 1933.20671927 0 237.03551558 0 252.02194090 0 30922
0.16850000 0.16850800 8531.45960454 0 -48.11571969 0 2109.17965005 0 214.92743270 0 723.81484020 0 30867
0.16950000 0.16949900 8596.15455634 0 -25.81487181 0 1941.38093142 0 315.21403551 0 713.78507080 0 30852
0.17050000 0.17049200 8723.74768603 0 65.49861993 0 1826.80886695 0 150.04060320 0 916.91368819 0 31257
0.17150000 0.17149500 8452.97829494 0 213.21162453 0 2114.11523269 0 -198.10874165 0 1112.29177715 0 32608
0.17250000 0.17250900 8219.41986960 0 219.87965214 0 2168.47318894 0 -240.04122995 0 1461.25410673 0 32361
0.17350000 0.17350400 8047.75032324 0 180.51921241 0 2744.23940491 0 -76.70627445 0 1483.97996928 0 32508
0.17450000 0.17449800 7856.56027024 0 65.66476606 0 2491.41557048 0 24.49768126 0 1246.62835459 0 32791
0.17550000 0.17549800 7836.87339566 0 100.96438585 0 2883.04573472 0 167.62015036 0 1412.17556024 0 33633
0.17650000 0.17650100 7708.80334450 0 96.84955178 0 2631.20901681 0 -93.52929107 0 1413.98342534 0 33984
0.17750000 0.17750300 7689.33829385 0 1.95230576 0 2815.66671326 0 148.58765640 0 1531.88284890 0 34069
0.17850000 0.17849800 7680.40988031 0 -50.61290268 0 2334.43076887 0 413.08497562 0 1480.99643730 0 34536
