### header ###
fiducial parameters:
Omega_m = 0.31
Omega_nu = 0
Omega_de = 0.69
Omega_k = 0
H_0 = 100
w_de = -1
zeff = 0
beta = 0
fgrowth = 0
b_1 = 2
gamma = 0.55
Lx = 3500 Ly = 3500 Lz = 3500
nx = 700 ny = 700 nz = 700
xoffset = 1379.75464 yoffset = 22.6059522 zoffset = 368.141391
bins = 400 dk = 0.001
kx_ny = 0.628318531 ky_ny = 0.628318531 kz_ny = 0.628318531
############################
A(data) = 3.41012922 (not used)
A(ran) = 3.41861093 (used)
Ngal = 191690
weighted Ngal = 0
Nran = 9399747
weighted Nran = 0
SN(data) = 6507.07334
SN(ran) = 135.976558
SN(data+ran) = 6643.04989
############################
13 columns: k_central k_mean P_0(k) sigma^{lin}_{P_0(k)} P^img_1(k) sigma^{lin}_{P_1(k)} P_2(k) sigma^{lin}_{P_2(k)} P^img_3(k) sigma^{lin}_{P_3(k)} P_4(k) sigma^{lin}_{P_4(k)} N_modes
### header ###
0.00050000 0 0 0 0 0 0 0 0 0 0 0 0
0.00150000 0.00179520 92878.34871623 0 -27183.08186449 0 14531.68624156 0 22111.52114795 0 265941.39306540 0 3
0.00250000 0.00253879 80146.32009149 0 -14790.33295439 0 20053.77137814 0 -19094.60466606 0 -110594.65033754 0 6
0.00350000 0.00331552 99610.70526380 0 4976.35388194 0 28221.43972278 0 18221.83837820 0 5268.86201906 0 7
0.00450000 0.00420575 100405.61134908 0 16201.68776606 0 51626.74899474 0 -7384.62984010 0 8437.30643365 0 24
0.00550000 0.00557378 77350.34025281 0 20475.45868611 0 102199.72336743 0 29458.88456630 0 57336.71900762 0 45
0.00650000 0.00659388 44907.48005957 0 11299.04597903 0 72695.14306970 0 72992.94170776 0 42629.12638246 0 40
0.00750000 0.00754703 58039.67907020 0 -6120.33320877 0 91863.28237153 0 54512.34570476 0 51985.43830404 0 57
0.00850000 0.00846663 61146.76698328 0 -11043.81535486 0 48518.88469788 0 76981.22521838 0 84688.71980163 0 75
0.00950000 0.00948925 89302.21408422 0 -14080.16361380 0 35205.45552911 0 51598.68826646 0 91239.84619107 0 112
0.01050000 0.01054430 101212.71775101 0 -11674.15025982 0 -875.00670964 0 11435.68952543 0 46930.62529489 0 105
0.01150000 0.01145670 104632.24468211 0 5153.02555813 0 15846.88037568 0 4677.08011469 0 82252.42747999 0 144
0.01250000 0.01249090 105813.45715710 0 2130.67438974 0 15828.02534087 0 -4812.07107274 0 52277.69134363 0 169
0.01350000 0.01339930 89981.10624942 0 8808.68407226 0 46612.19703051 0 -10108.77199614 0 76903.36501580 0 180
0.01450000 0.01448870 84025.13348822 0 15568.38042031 0 50876.42952119 0 -4450.25404590 0 36406.74307057 0 267
0.01550000 0.01550050 70289.46245164 0 6312.95402617 0 65414.65956895 0 4267.52657618 0 42005.80111397 0 238
0.01650000 0.01653350 64340.92079240 0 2772.85469304 0 65885.36996744 0 20891.26765970 0 39086.70898917 0 315
0.01750000 0.01747870 70064.53297753 0 1712.40317043 0 75665.69834835 0 5608.76284073 0 42828.98975147 0 297
0.01850000 0.01844180 67334.87849660 0 -1068.74108321 0 46260.05152740 0 16468.32014069 0 35236.17814466 0 388
0.01950000 0.01947590 64109.89115996 0 475.26555307 0 54091.98934042 0 19051.34899796 0 37925.90431657 0 399
0.02050000 0.02045430 67601.95451911 0 -155.07046101 0 40619.17967151 0 5436.02853946 0 37502.55332906 0 462
0.02150000 0.02154770 66109.85579367 0 -537.37071038 0 30898.85466608 0 14251.85534256 0 28650.22539680 0 571
0.02250000 0.02255340 69033.93895710 0 -664.21851164 0 28210.90308568 0 3967.47642514 0 24949.20388715 0 510
0.02350000 0.02348930 71238.20343859 0 -3846.10545693 0 12617.23473633 0 10143.60944575 0 17707.20683981 0 555
0.02450000 0.02439640 71668.87461609 0 -5202.40356694 0 9997.79347948 0 4875.47944570 0 10421.95412437 0 592
0.02550000 0.02547300 74238.15038914 0 3438.52615148 0 2698.58803828 0 -4713.59233504 0 606.01080093 0 837
0.02650000 0.02652900 68023.86365102 0 3660.61627917 0 5140.79196790 0 -6703.38634114 0 -12068.10957542 0 723
0.02750000 0.02749970 64409.79712544 0 2975.57959086 0 12417.81501520 0 -4987.60035565 0 -5158.73752456 0 826
0.02850000 0.02848090 62625.55627238 0 1140.19722867 0 12640.41533795 0 373.22986850 0 -13629.86101770 0 831
0.02950000 0.02946900 60684.37498251 0 1648.49569361 0 10589.95248454 0 -3942.44359362 0 -11592.85178619 0 996
0.03050000 0.03053250 60999.14315190 0 1140.28595825 0 16956.99827823 0 2465.31798406 0 -8764.05309574 0 1041
0.03150000 0.03150510 57894.82803806 0 -834.97968897 0 11162.40243263 0 3726.36489468 0 -6422.51286963 0 1036
0.03250000 0.03246190 60036.31634482 0 576.14220755 0 19255.87066969 0 6751.71068625 0 4205.40478207 0 1059
0.03350000 0.03345080 58400.03205905 0 1729.72762006 0 7466.70469751 0 2444.24470986 0 -7167.47529505 0 1302
0.03450000 0.03451200 54960.09732556 0 2337.73594556 0 16118.17105303 0 -4116.95248641 0 11530.29743540 0 1339
0.03550000 0.03553350 54207.78143656 0 1315.21631651 0 17622.02644724 0 -665.58494710 0 4194.89032736 0 1365
0.03650000 0.03647120 48866.70463417 0 1789.14316211 0 15895.12708241 0 2376.34440214 0 5269.81586199 0 1308
0.03750000 0.03744890 51580.05505559 0 581.26855878 0 18719.94403315 0 1754.09497976 0 5021.92761020 0 1579
0.03850000 0.03847530 49133.33700881 0 -242.96597859 0 12230.04105087 0 -364.34581975 0 -1278.78173454 0 1662
0.03950000 0.03950240 47602.86274192 0 2164.08107495 0 15740.18306104 0 -51.81086286 0 -22.81991590 0 1683
0.04050000 0.04050350 45096.25223163 0 2704.61055822 0 11352.50554832 0 -4262.83499987 0 -9297.47312177 0 1822
0.04150000 0.04152450 42161.63243110 0 925.81437374 0 16660.53058380 0 -974.73209788 0 -3808.56175526 0 1887
0.04250000 0.04250150 41834.55303309 0 396.60123871 0 13615.55337364 0 1646.12217746 0 -12725.92846642 0 1920
0.04350000 0.04349210 40752.05221095 0 -389.09360750 0 10651.99664027 0 4326.75356788 0 -6891.88123328 0 2005
0.04450000 0.04448520 39733.32577125 0 1459.00259375 0 9324.31381839 0 719.12548213 0 -9935.11712552 0 2151
0.04550000 0.04548030 39073.28864086 0 702.32453699 0 9568.32015125 0 962.63271113 0 -5719.19788874 0 2274
0.04650000 0.04648670 38007.53552611 0 140.03190707 0 6645.24628674 0 2715.70175517 0 -7288.96826642 0 2311
0.04750000 0.04749250 34977.19869591 0 1783.45337808 0 8211.31220463 0 -2058.02704973 0 -3621.76381626 0 2568
0.04850000 0.04851840 34668.08703697 0 1314.52866230 0 8301.97164849 0 -431.98104786 0 -2474.34621838 0 2493
0.04950000 0.04949480 32994.09268157 0 -91.25315563 0 9414.25233444 0 2485.64814807 0 -3872.42486729 0 2644
0.05050000 0.05050630 35068.14651089 0 -301.99887434 0 9573.51083142 0 1044.19848261 0 1686.16139845 0 2829
0.05150000 0.05149060 33007.95667776 0 -367.80183672 0 7289.30100233 0 1122.66204630 0 -2125.66116872 0 2784
0.05250000 0.05249300 35805.93293189 0 -677.44920048 0 9369.04461568 0 831.21422761 0 -623.83546355 0 3055
0.05350000 0.05348950 35056.16801819 0 186.42194743 0 3590.36463770 0 -899.53710993 0 -2744.17285773 0 3009
0.05450000 0.05448610 35053.50613092 0 494.25922784 0 8920.31696955 0 -701.37956701 0 -545.41626465 0 3336
0.05550000 0.05550870 35196.36074761 0 397.67597570 0 8102.76266010 0 -686.52179958 0 -1817.08188722 0 3349
0.05650000 0.05647670 33491.53286470 0 892.32783191 0 9492.30108736 0 -1465.40221439 0 -4899.54734307 0 3324
0.05750000 0.05747970 33264.60697514 0 1222.93755790 0 10714.49553507 0 -367.51124736 0 -1176.40998671 0 3639
0.05850000 0.05849280 31154.72857968 0 553.36421638 0 8988.68310754 0 775.25137517 0 -2707.01734796 0 3846
0.05950000 0.05951020 31465.83665408 0 -274.72340281 0 11097.85166639 0 2033.34913652 0 1010.01208625 0 3787
0.06050000 0.06049470 31068.77180333 0 333.31043245 0 8381.91699609 0 1015.54215705 0 -387.30570655 0 3930
0.06150000 0.06148310 31596.38004216 0 312.50556521 0 11682.57956950 0 747.57329318 0 3311.54303762 0 4083
0.06250000 0.06249100 30786.05719312 0 -23.08921016 0 8718.73446501 0 1549.37366649 0 3061.48091122 0 4303
0.06350000 0.06350600 31822.64045990 0 -214.30410743 0 9256.72406418 0 22.81725401 0 4449.51093570 0 4470
0.06450000 0.06451750 31442.43422852 0 -370.18977142 0 8583.01148796 0 876.20899539 0 4302.51930255 0 4479
0.06550000 0.06550280 32149.83076987 0 289.35490982 0 11192.68140030 0 255.51123146 0 5268.16327365 0 4636
0.06650000 0.06648880 31476.59511512 0 219.61124517 0 7267.06315244 0 1216.52684607 0 5263.98189240 0 4653
0.06750000 0.06749660 30862.69736403 0 299.08632603 0 9463.29760734 0 1354.10205301 0 5726.68444668 0 5220
0.06850000 0.06852730 30840.40405817 0 610.17110891 0 9428.57106970 0 -1079.66036661 0 6760.00690156 0 5029
0.06950000 0.06949320 30538.16894133 0 27.34135324 0 9600.70644634 0 899.46058067 0 3214.05141644 0 5040
0.07050000 0.07048030 29602.18283087 0 936.52514263 0 9075.92646273 0 -876.36538127 0 5543.36914352 0 5475
0.07150000 0.07148790 29241.71893005 0 674.80838648 0 8715.66220346 0 -1220.64168014 0 1282.12018482 0 5509
0.07250000 0.07249820 27635.93543589 0 535.76914154 0 10775.91858377 0 117.78407511 0 1824.22461806 0 5916
0.07350000 0.07351270 27230.99583531 0 838.07191468 0 10188.75061733 0 -256.70464425 0 -43.09074200 0 5721
0.07450000 0.07449140 26301.44261908 0 425.36736712 0 9875.31339158 0 98.01401655 0 896.71218207 0 6028
0.07550000 0.07549160 26115.22142232 0 -73.71287130 0 8729.33764930 0 2137.00746320 0 177.82516067 0 6183
0.07650000 0.07648840 26071.74393028 0 -97.02545817 0 8012.30285779 0 548.67485831 0 -735.62696495 0 6330
0.07750000 0.07749960 25530.49351921 0 440.72867489 0 6982.00829968 0 1611.98347326 0 574.78353593 0 6583
0.07850000 0.07848650 24716.17783927 0 414.58339633 0 5961.25217094 0 290.36420875 0 -424.38468707 0 6549
0.07950000 0.07947320 24682.90424842 0 -347.88648348 0 5198.55492160 0 1723.37236421 0 2888.83533953 0 6828
0.08050000 0.08048110 24718.06334275 0 -234.55219658 0 3851.77305857 0 2184.01195586 0 1999.26588830 0 7147
0.08150000 0.08149960 24565.55938471 0 529.96955466 0 3459.15577780 0 215.32449755 0 2537.51058500 0 7386
0.08250000 0.08250610 23742.48165918 0 849.60786863 0 3476.25840350 0 -608.53626648 0 4001.40439660 0 7227
0.08350000 0.08350160 22411.09437752 0 1031.97154709 0 5588.96505418 0 -754.48865448 0 4118.72707792 0 7798
0.08450000 0.08449610 22276.89089444 0 626.57720744 0 4768.93740781 0 -541.26039315 0 5364.34613358 0 7371
0.08550000 0.08548940 20909.34631073 0 20.82616233 0 6026.41295301 0 756.34532085 0 2526.19756411 0 8256
0.08650000 0.08650700 21651.01465066 0 52.60953996 0 5554.90398835 0 236.12825567 0 5282.53746489 0 8037
0.08750000 0.08749060 20646.48494306 0 -0.50974808 0 4518.99728458 0 1329.81233170 0 3722.16133104 0 8155
0.08850000 0.08849210 21659.77669624 0 -273.19725411 0 4569.35131873 0 557.05647584 0 4754.86267888 0 8718
0.08950000 0.08949900 21206.25765303 0 551.22694273 0 3684.02979593 0 -634.90780546 0 2072.81161526 0 8571
0.09050000 0.09049190 20121.42767953 0 902.98314482 0 4507.40698377 0 -720.95663875 0 2461.19205880 0 8932
0.09150000 0.09150830 19101.14847226 0 684.12831928 0 5245.53723187 0 -1263.10987325 0 2498.26993019 0 9285
0.09250000 0.09250820 18667.03902371 0 335.15046202 0 5174.15428832 0 307.52339954 0 997.09195093 0 9204
0.09350000 0.09350330 18044.49013900 0 48.84729504 0 5644.21030618 0 323.16420548 0 615.29191454 0 9349
0.09450000 0.09448040 18132.77606671 0 300.03462336 0 5017.06966594 0 -425.00690322 0 -1043.01505189 0 9564
0.09550000 0.09549270 17484.38469312 0 304.06072786 0 5833.51485569 0 -203.56228319 0 93.76209529 0 10155
0.09650000 0.09649430 17448.44921500 0 45.46226173 0 5255.97404820 0 -571.97080838 0 -811.91554492 0 9913
0.09750000 0.09749140 17759.44637743 0 -11.88554847 0 5780.53220787 0 664.69986959 0 141.04564247 0 10476
0.09850000 0.09850240 17590.19471200 0 -137.53084216 0 5557.31077809 0 466.74751381 0 -683.45397451 0 10575
0.09950000 0.09950330 17647.75802416 0 -67.43048461 0 5115.24894132 0 834.87099524 0 179.24927036 0 10882
0.10050000 0.10051200 17891.76435703 0 77.02048806 0 4846.66451603 0 661.92152475 0 1104.16747538 0 10875
0.10150000 0.10150300 17625.90836618 0 89.68275305 0 4786.08439829 0 214.40836468 0 1548.29782038 0 11118
0.10250000 0.10250800 17714.52702979 0 270.52649388 0 5256.35114890 0 -133.60899492 0 1570.87949737 0 11575
0.10350000 0.10349800 17236.38552935 0 377.55876267 0 4975.02293831 0 -274.42394049 0 1393.83072048 0 11364
0.10450000 0.10450100 16436.71022939 0 329.37971225 0 5286.07555672 0 -40.51802796 0 1687.71416602 0 12093
0.10550000 0.10551000 16458.67079935 0 131.26875236 0 4893.21426962 0 377.00642107 0 1271.66118610 0 12067
0.10650000 0.10649700 16297.18297178 0 38.39594924 0 4768.54921592 0 551.80590321 0 1109.72971065 0 12054
0.10750000 0.10749900 15990.40046419 0 91.38048257 0 4279.81562240 0 263.35048946 0 1140.88488288 0 12807
0.10850000 0.10850100 15890.02513181 0 149.58142764 0 4106.80404120 0 -154.37947944 0 1012.93018017 0 12736
0.10950000 0.10950300 15972.87637301 0 99.26421627 0 4255.81427220 0 -197.63403842 0 -80.78506212 0 12933
0.11050000 0.11050200 15650.45527773 0 74.66682515 0 4146.35524952 0 -61.85682541 0 519.55935720 0 13428
0.11150000 0.11150900 15691.82544235 0 -42.17671646 0 3885.52357089 0 30.77518782 0 275.45985829 0 13453
0.11250000 0.11250000 15911.09840601 0 -98.42616543 0 4865.43082126 0 24.31512016 0 -480.10020582 0 13668
0.11350000 0.11349100 16190.37474517 0 26.48921658 0 4082.89142058 0 19.13098379 0 -25.93776227 0 13791
0.11450000 0.11448600 15918.86224388 0 293.64609392 0 5306.61645347 0 -220.80798532 0 -963.84276072 0 14205
0.11550000 0.11549300 15453.69744387 0 544.77186610 0 5326.61388157 0 -1358.26125187 0 -704.94649595 0 14776
0.11650000 0.11649800 15101.77376470 0 409.25851267 0 5966.01029443 0 -66.13603102 0 -456.02676284 0 14553
0.11750000 0.11747300 14650.14022497 0 172.48142198 0 6451.56071443 0 328.25728312 0 -346.56552192 0 14568
0.11850000 0.11849100 14412.56678634 0 -52.95436527 0 5642.89045374 0 1140.69633253 0 39.54344448 0 16015
0.11950000 0.11950300 14566.62351195 0 -38.75752226 0 4783.30050786 0 1182.65433059 0 71.93351058 0 15270
0.12050000 0.12050700 14245.97700818 0 108.88671692 0 4201.71141349 0 565.59226102 0 949.54842609 0 15999
0.12150000 0.12150000 14409.68307513 0 149.92858211 0 3832.58528785 0 317.90808725 0 755.70757702 0 15670
0.12250000 0.12250700 13804.76919357 0 173.61383319 0 3870.38408705 0 288.29348228 0 1983.89348933 0 16887
0.12350000 0.12352200 13566.64119510 0 153.60753213 0 3127.80626897 0 325.71296254 0 1393.57562295 0 16407
0.12450000 0.12449800 13529.92933320 0 13.89970984 0 3458.16866127 0 106.68522524 0 2033.47113968 0 16306
0.12550000 0.12549900 13577.51056811 0 23.69800596 0 2925.25883031 0 379.13038528 0 1943.72117398 0 17523
0.12650000 0.12650100 13539.02411470 0 -45.34680237 0 2850.53743647 0 569.16029907 0 2399.54718616 0 17154
0.12750000 0.12750600 13568.08305070 0 7.24683281 0 2747.91059110 0 -211.33055753 0 2146.25752145 0 18007
0.12850000 0.12850300 13509.85426672 0 197.19815438 0 2976.43361303 0 -266.96732878 0 1924.12302897 0 17496
0.12950000 0.12949900 13189.76232280 0 309.60299897 0 3318.59703888 0 -564.74933005 0 1519.61598507 0 18405
0.13050000 0.13049000 13175.56559070 0 68.93245451 0 3472.78685885 0 -455.99459837 0 1393.81962929 0 18100
0.13150000 0.13148800 13089.16516648 0 -19.85257707 0 3729.06005554 0 56.72492858 0 787.86317522 0 19059
0.13250000 0.13249300 13223.36864955 0 11.21907845 0 3615.43074280 0 -25.54103016 0 100.93854336 0 18957
0.13350000 0.13349100 13032.93279795 0 138.25620644 0 3500.92522551 0 111.66284352 0 32.50752187 0 19468
0.13450000 0.13450700 12947.53058145 0 61.11914990 0 3504.06403425 0 -86.01090139 0 278.05963485 0 19953
0.13550000 0.13551000 13066.20638879 0 127.55320138 0 3713.41037664 0 127.34690512 0 -25.94463881 0 19956
0.13650000 0.13649900 12548.69113919 0 376.09139732 0 3916.85620226 0 -442.48441137 0 -405.68160166 0 19723
0.13750000 0.13749600 12158.72465449 0 393.76632877 0 4245.11126714 0 -371.53291537 0 -206.71883784 0 20946
0.13850000 0.13851100 11854.93677008 0 97.06749380 0 4487.90865954 0 -32.97379579 0 136.44057750 0 20955
0.13950000 0.13949800 11991.80214042 0 -7.35440633 0 4537.94104897 0 340.94450331 0 -528.03524991 0 20506
0.14050000 0.14048300 11898.85790999 0 50.70983974 0 4472.92445246 0 204.45845190 0 -125.52351234 0 21447
0.14150000 0.14148400 11624.23987355 0 158.68619122 0 4253.26329690 0 -192.25369878 0 -583.05091413 0 21771
0.14250000 0.14249400 11637.43839792 0 29.67749206 0 4171.65426976 0 384.33326577 0 -47.63735636 0 22470
0.14350000 0.14350900 11497.35658047 0 59.40267626 0 4048.74162518 0 149.33631219 0 -751.45299388 0 22519
0.14450000 0.14449900 11376.24070979 0 252.48222557 0 3393.93953975 0 25.13453779 0 -775.43770728 0 22218
0.14550000 0.14550500 10957.21528909 0 233.39205738 0 3643.85748058 0 11.71895870 0 -577.98001889 0 23559
0.14650000 0.14650700 10643.91115769 0 183.05022355 0 3362.37399323 0 271.10989084 0 -1335.75721326 0 23044
0.14750000 0.14750500 10534.26358466 0 -4.32017649 0 3144.64270594 0 568.75879774 0 -294.01986726 0 23649
0.14850000 0.14849900 10318.87253993 0 86.45920757 0 2592.00163560 0 339.20540363 0 -780.47865629 0 23640
0.14950000 0.14949500 10164.49416961 0 183.77115135 0 2234.88727626 0 11.00306630 0 -509.72922935 0 24457
0.15050000 0.15050000 10224.33117714 0 98.86171673 0 2308.48845921 0 31.99422128 0 -960.42112646 0 24591
0.15150000 0.15149900 9859.43079755 0 127.92364736 0 2510.23733170 0 -227.42388430 0 -479.36485946 0 25020
0.15250000 0.15250500 9816.62986852 0 139.34979846 0 2598.54544180 0 -76.92610197 0 -565.77748400 0 25297
0.15350000 0.15350100 9634.50132344 0 54.79073475 0 2359.38596201 0 346.69861628 0 -538.04727339 0 25452
0.15450000 0.15450400 9773.19674127 0 -109.89823408 0 2311.05052571 0 425.07234128 0 -214.74664619 0 26061
0.15550000 0.15549900 9697.99842597 0 10.91851810 0 2147.35554995 0 448.94947007 0 -30.24580499 0 26128
0.15650000 0.15649500 9804.95083814 0 132.59193216 0 2296.29923377 0 -25.50498377 0 437.34585982 0 26331
0.15750000 0.15749700 9557.37313986 0 145.33460833 0 1867.93502523 0 -40.02779705 0 456.80314663 0 27345
0.15850000 0.15849900 9425.19934583 0 143.27053658 0 2440.30733494 0 -126.27105902 0 1147.53960105 0 26980
0.15950000 0.15949700 9266.43995271 0 198.05217655 0 2585.76838292 0 -134.04931544 0 836.22301215 0 27777
0.16050000 0.16050000 9176.75653419 0 108.17044742 0 2849.32849600 0 81.55601122 0 1161.52560040 0 28224
0.16150000 0.16150500 9160.39701869 0 31.25732215 0 2739.79183494 0 63.01363725 0 940.18967410 0 28075
0.16250000 0.16249700 8984.34644953 0 139.15348427 0 3152.20690226 0 -141.06338839 0 949.31883831 0 28590
0.16350000 0.16349900 8826.82927047 0 104.81569308 0 3132.25383895 0 47.58289859 0 1406.48577620 0 29163
0.16450000 0.16449100 8795.87373979 0 116.64500918 0 3140.62769265 0 -87.71184735 0 983.66051142 0 28996
0.16550000 0.16550500 8674.42513320 0 -1.88814319 0 3141.62590037 0 318.22640460 0 1473.88698006 0 30777
0.16650000 0.16650700 8740.46211983 0 -49.16017771 0 2834.31101533 0 325.72627198 0 891.18322039 0 29211
0.16750000 0.16749900 8788.49809382 0 46.20803381 0 2800.26104070 0 303.40080164 0 1659.37615782 0 30922
0.16850000 0.16850800 8572.11993255 0 54.93458757 0 2399.07026469 0 -37.48403103 0 934.45219792 0 30867
0.16950000 0.16949900 8583.41077105 0 164.93164422 0 2593.77622711 0 -92.87979057 0 1578.29950813 0 30852
0.17050000 0.17049200 8354.48846604 0 183.01251348 0 2344.09120142 0 5.14944310 0 660.49630594 0 31257
0.17150000 0.17149500 8180.77813943 0 65.82847213 0 2395.79836159 0 109.37883333 0 1235.21551293 0 32608
0.17250000 0.17250900 8104.63707238 0 -19.01574626 0 2174.34043212 0 314.53858161 0 729.53900695 0 32361
0.17350000 0.17350400 8087.63426746 0 91.32369564 0 2031.53018022 0 -7.81764126 0 468.01634674 0 32508
0.17450000 0.17449800 7806.11750652 0 266.79763347 0 2180.95078550 0 -244.55645623 0 746.46417349 0 32791
0.17550000 0.17549800 7639.30590442 0 215.77812751 0 2408.46450850 0 -336.22741725 0 235.56371374 0 33633
0.17650000 0.17650100 7516.20470949 0 -26.44840098 0 2496.72825382 0 176.51418119 0 940.68101413 0 33984
0.17750000 0.17750300 7578.39305078 0 -95.20306360 0 2233.87797734 0 349.03996796 0 212.90218014 0 34069
0.17850000 0.17849800 7778.58915570 0 -32.46592988 0 2040.93551523 0 268.34041897 0 548.36319568 0 34536
