### header ###
fiducial parameters:
Omega_m = 0.31
Omega_nu = 0
Omega_de = 0.69
Omega_k = 0
H_0 = 100
w_de = -1
zeff = 0
beta = 0
fgrowth = 0
b_1 = 2
gamma = 0.55
Lx = 3500 Ly = 3500 Lz = 3500
nx = 700 ny = 700 nz = 700
xoffset = 1379.75464 yoffset = 22.6059522 zoffset = 368.141391
bins = 400 dk = 0.001
kx_ny = 0.628318531 ky_ny = 0.628318531 kz_ny = 0.628318531
############################
A(data) = 3.30676427 (not used)
A(ran) = 3.30666319 (used)
Ngal = 185895
weighted Ngal = 0
Nran = 9399747
weighted Nran = 0
SN(data) = 6695.32398
SN(ran) = 131.523794
SN(data+ran) = 6826.84777
############################
13 columns: k_central k_mean P_0(k) sigma^{lin}_{P_0(k)} P^img_1(k) sigma^{lin}_{P_1(k)} P_2(k) sigma^{lin}_{P_2(k)} P^img_3(k) sigma^{lin}_{P_3(k)} P_4(k) sigma^{lin}_{P_4(k)} N_modes
### header ###
0.00050000 0 0 0 0 0 0 0 0 0 0 0 0
0.00150000 0.00179520 82002.43190078 0 -61977.83037061 0 -124747.12855544 0 146654.46076757 0 -18828.41593930 0 3
0.00250000 0.00253879 126597.14020640 0 -44874.09555675 0 -27050.54206096 0 -111011.79025476 0 47243.72978474 0 6
0.00350000 0.00331552 144889.85133311 0 -13325.51857344 0 -99550.92371225 0 -44384.86285937 0 -13145.17571106 0 7
0.00450000 0.00420575 134501.83627140 0 8148.43620913 0 -65844.77618660 0 -64333.04604256 0 10784.90245330 0 24
0.00550000 0.00557378 108774.36309439 0 13006.75757315 0 -66941.36282888 0 -45070.96430258 0 -4814.04530580 0 45
0.00650000 0.00659388 86617.81168684 0 3294.36277355 0 -240.59357156 0 -26857.77705800 0 -53930.05786498 0 40
0.00750000 0.00754703 71196.05689018 0 14170.11322105 0 -29225.63669447 0 -34196.82207864 0 -24303.36348885 0 57
0.00850000 0.00846663 57599.24763939 0 15101.99558864 0 9068.36226641 0 -33602.44483418 0 -39654.35644898 0 75
0.00950000 0.00948925 41120.16903766 0 8439.84631775 0 21473.99914736 0 -14175.76973149 0 -8379.57675353 0 112
0.01050000 0.01054430 36713.08193028 0 929.89593422 0 31813.54567840 0 16545.40395948 0 -18938.66243697 0 105
0.01150000 0.01145670 44285.92938259 0 -4579.17811922 0 34192.60742380 0 15383.15743128 0 -3254.65628847 0 144
0.01250000 0.01249090 49143.87364591 0 -4098.41909631 0 26208.49838865 0 5073.27985207 0 -9767.17422133 0 169
0.01350000 0.01339930 56109.69988924 0 -5107.35200910 0 37376.44641975 0 1965.21591366 0 18582.52410296 0 180
0.01450000 0.01448870 61542.27906645 0 664.99267719 0 33373.07888129 0 -516.45049470 0 13052.56421655 0 267
0.01550000 0.01550050 70000.64768310 0 237.24624832 0 31189.33311416 0 -287.91194510 0 -9540.04869023 0 238
0.01650000 0.01653350 66866.60816144 0 -4687.69439017 0 41529.21238111 0 14696.83416412 0 5605.96785910 0 315
0.01750000 0.01747870 80172.71714023 0 -2284.13219071 0 41655.54111435 0 -1637.32685828 0 15630.60203519 0 297
0.01850000 0.01844180 77725.88818148 0 3220.22921314 0 40998.05495926 0 257.87920200 0 7966.90658868 0 388
0.01950000 0.01947590 72467.10806045 0 2583.20631642 0 50344.05206768 0 395.45662719 0 7978.82962540 0 399
0.02050000 0.02045430 75455.96381406 0 1322.33686495 0 44412.70176371 0 6096.77550645 0 13039.58751612 0 462
0.02150000 0.02154770 75429.67767729 0 -1145.31027046 0 51064.86895734 0 13194.53153748 0 24787.16149974 0 571
0.02250000 0.02255340 77523.36292521 0 -82.05944065 0 38985.44636103 0 9647.71093900 0 9006.88376173 0 510
0.02350000 0.02348930 78496.06089756 0 -780.74817237 0 40928.06950651 0 295.17224262 0 17845.95771363 0 555
0.02450000 0.02439640 76935.52948695 0 1066.52949854 0 37248.56491894 0 7040.99128505 0 2925.73575177 0 592
0.02550000 0.02547300 78979.30434860 0 3758.75118977 0 45943.61967847 0 -6786.71450381 0 18573.65114540 0 837
0.02650000 0.02652900 70387.61954463 0 3117.81310052 0 44494.88753309 0 -3354.86525290 0 1979.98938800 0 723
0.02750000 0.02749970 70471.80172946 0 3496.07837244 0 47549.51408460 0 11442.56606754 0 14986.86896432 0 826
0.02850000 0.02848090 65948.92252595 0 58.99806940 0 46302.41989974 0 9244.25755881 0 11502.90217894 0 831
0.02950000 0.02946900 63945.07597331 0 1543.31787295 0 36896.86306371 0 12041.93435062 0 8398.98634819 0 996
0.03050000 0.03053250 63180.00520782 0 3906.19756200 0 44091.72252403 0 5414.91090047 0 26243.87930691 0 1041
0.03150000 0.03150510 54013.02001815 0 3644.15694290 0 26379.52464559 0 544.62657142 0 13384.74556515 0 1036
0.03250000 0.03246190 53406.55336902 0 2648.93274954 0 41960.65994239 0 3543.37123623 0 23780.19172881 0 1059
0.03350000 0.03345080 48523.87573650 0 1724.90294939 0 28395.23877896 0 -351.06522052 0 11169.05715080 0 1302
0.03450000 0.03451200 46224.67060914 0 1675.32529903 0 36130.68317853 0 4495.46176466 0 18092.51502179 0 1339
0.03550000 0.03553350 45798.76864633 0 686.62827507 0 30953.31244310 0 2274.51612296 0 10189.37172436 0 1365
0.03650000 0.03647120 45161.57938165 0 -237.35605117 0 28798.84743591 0 117.26500709 0 4976.04332843 0 1308
0.03750000 0.03744890 45761.39131261 0 675.95410713 0 29606.95204555 0 2064.62631191 0 2560.82428098 0 1579
0.03850000 0.03847530 44796.56809008 0 749.96788260 0 26998.96799515 0 -2806.69393493 0 -1016.79435319 0 1662
0.03950000 0.03950240 43329.97911762 0 451.60137526 0 27137.05339716 0 -353.29566023 0 -4910.28362172 0 1683
0.04050000 0.04050350 44198.30892670 0 -379.92784234 0 27226.11570865 0 2992.60457818 0 -5677.25098189 0 1822
0.04150000 0.04152450 43619.01571009 0 40.33158493 0 26588.59370807 0 1956.90860715 0 -3837.34341134 0 1887
0.04250000 0.04250150 44261.19601339 0 1111.12720147 0 23806.58877754 0 4381.16698011 0 -6362.47622054 0 1920
0.04350000 0.04349210 42768.32090416 0 562.11184341 0 24279.62832738 0 -407.90427752 0 329.93538122 0 2005
0.04450000 0.04448520 39709.81243372 0 1620.29077977 0 22965.65422493 0 4086.04132051 0 -189.50751842 0 2151
0.04550000 0.04548030 41669.40511053 0 -1283.57313162 0 17645.87252068 0 5314.75739203 0 4485.94551768 0 2274
0.04650000 0.04648670 40123.40316792 0 -557.68867407 0 15373.61900190 0 3549.32720899 0 930.53035068 0 2311
0.04750000 0.04749250 41832.00205779 0 429.76724495 0 11680.58315405 0 4052.77882087 0 3373.52064617 0 2568
0.04850000 0.04851840 39174.99491688 0 761.55041958 0 11834.63987966 0 -1484.46798194 0 1581.22758412 0 2493
0.04950000 0.04949480 38925.66480948 0 1194.20026661 0 10520.63250362 0 -1337.62053435 0 1583.12417880 0 2644
0.05050000 0.05050630 36935.12769318 0 922.53248856 0 11924.81131085 0 -529.54919829 0 -339.78880059 0 2829
0.05150000 0.05149060 36494.36352646 0 913.61960269 0 11074.69324716 0 -465.76705200 0 -2851.89056249 0 2784
0.05250000 0.05249300 34825.24929772 0 992.46470356 0 13702.95200559 0 -1495.73663804 0 -2181.98226682 0 3055
0.05350000 0.05348950 33741.75026785 0 1644.66923066 0 15496.17672818 0 -1477.34743350 0 -4765.19967444 0 3009
0.05450000 0.05448610 32071.30509548 0 407.73680045 0 15984.85486572 0 -460.07283149 0 -1352.82656537 0 3336
0.05550000 0.05550870 31966.16054841 0 -77.08459517 0 16544.29483979 0 1446.03698452 0 -889.52619556 0 3349
0.05650000 0.05647670 32956.16078801 0 -796.39563303 0 16049.73836786 0 2915.80913051 0 1920.46293398 0 3324
0.05750000 0.05747970 34385.37242676 0 -1275.84256735 0 14375.63310050 0 2923.34005323 0 -363.05924090 0 3639
0.05850000 0.05849280 36198.33947991 0 -704.63483332 0 12221.50082922 0 1814.70837108 0 2691.09038914 0 3846
0.05950000 0.05951020 35403.21157070 0 366.95668751 0 11913.27646602 0 -445.20175462 0 4916.23959448 0 3787
0.06050000 0.06049470 36222.18555335 0 421.17933115 0 10177.29341089 0 522.12253282 0 3316.30116111 0 3930
0.06150000 0.06148310 35360.73228638 0 126.63706852 0 12116.24537018 0 178.11685915 0 1248.63586123 0 4083
0.06250000 0.06249100 34631.59699901 0 1270.71843436 0 11764.43260298 0 -1657.96757581 0 -267.18582536 0 4303
0.06350000 0.06350600 32624.86673517 0 1837.43423362 0 14376.96404413 0 -3842.07935244 0 -1822.31693218 0 4470
0.06450000 0.06451750 31664.25816748 0 544.36149182 0 13792.45796496 0 -279.50481781 0 -4692.99598231 0 4479
0.06550000 0.06550280 30751.67448258 0 -306.37878802 0 13444.30529276 0 1606.22714204 0 -6003.92000560 0 4636
0.06650000 0.06648880 31287.26838321 0 50.64362530 0 12442.10473652 0 660.27670024 0 -8287.85255477 0 4653
0.06750000 0.06749660 30550.92381782 0 484.69307048 0 12528.72698468 0 470.65383338 0 -7689.07210513 0 5220
0.06850000 0.06852730 29856.61488886 0 651.29726719 0 10668.43379415 0 848.08171993 0 -5005.71228026 0 5029
0.06950000 0.06949320 29268.22689076 0 15.91498032 0 10534.06394312 0 2100.70597558 0 -5139.67175700 0 5040
0.07050000 0.07048030 29417.29257774 0 -210.15156330 0 9860.72846759 0 3211.18988763 0 -399.64466316 0 5475
0.07150000 0.07148790 29508.24039272 0 179.57091507 0 8979.33322851 0 1653.37582027 0 -757.26589020 0 5509
0.07250000 0.07249820 29128.92145709 0 628.89083112 0 9134.55452980 0 -666.59313690 0 2433.99644388 0 5916
0.07350000 0.07351270 27665.43801977 0 728.15371645 0 10191.98924684 0 -450.71962510 0 3169.32061915 0 5721
0.07450000 0.07449140 27803.19068587 0 599.20967897 0 10398.40751325 0 1167.95849463 0 3418.80600330 0 6028
0.07550000 0.07549160 27192.62029387 0 -401.43589146 0 9874.28191026 0 1241.13821210 0 5404.59608731 0 6183
0.07650000 0.07648840 27146.92456244 0 -46.87516931 0 8976.47169970 0 1928.10476868 0 5360.77476817 0 6330
0.07750000 0.07749960 27936.83960909 0 -4.10577256 0 8086.90224846 0 781.78409017 0 6140.74101116 0 6583
0.07850000 0.07848650 26951.49767221 0 629.66388755 0 7636.47764920 0 789.09429808 0 4222.21903664 0 6549
0.07950000 0.07947320 25793.24397491 0 1015.76287187 0 7676.18413427 0 -578.85289609 0 7860.69728670 0 6828
0.08050000 0.08048110 24412.83360273 0 681.10707723 0 7354.40632841 0 -517.85796759 0 2449.92340270 0 7147
0.08150000 0.08149960 23901.86215933 0 486.15378111 0 7829.30919934 0 584.35191153 0 4015.55676391 0 7386
0.08250000 0.08250610 22874.92823389 0 574.50514688 0 6681.52559196 0 -268.08310320 0 1215.65064151 0 7227
0.08350000 0.08350160 22405.88151495 0 565.96936171 0 5826.44976323 0 145.86587666 0 1973.30139624 0 7798
0.08450000 0.08449610 21724.77111036 0 -197.38892297 0 5272.79939397 0 2054.22276917 0 1711.49369228 0 7371
0.08550000 0.08548940 21433.18354259 0 -6.40192761 0 3679.48240518 0 1374.16602829 0 983.69378501 0 8256
0.08650000 0.08650700 21431.29803911 0 179.09399360 0 2739.54782860 0 497.15513937 0 1269.99750656 0 8037
0.08750000 0.08749060 20766.15895813 0 373.90754064 0 2440.76207402 0 -131.48059422 0 1324.86565786 0 8155
0.08850000 0.08849210 20557.64445550 0 126.36533419 0 2860.81897604 0 352.94406929 0 2495.50822215 0 8718
0.08950000 0.08949900 20336.04234047 0 361.93459353 0 3134.39443996 0 -792.32183639 0 851.99469421 0 8571
0.09050000 0.09049190 19638.07331652 0 578.90169735 0 2629.14605418 0 -665.07142468 0 1079.28881151 0 8932
0.09150000 0.09150830 19523.27942811 0 402.92100274 0 3923.81038275 0 -679.14948097 0 242.45134705 0 9285
0.09250000 0.09250820 18789.59674998 0 263.13088376 0 4592.95338583 0 -326.42723562 0 269.77672897 0 9204
0.09350000 0.09350330 18388.98271621 0 342.39966835 0 5044.64238155 0 67.54727492 0 -57.74554053 0 9349
0.09450000 0.09448040 18255.44470496 0 304.04852754 0 4977.95101430 0 384.29999218 0 3.16155678 0 9564
0.09550000 0.09549270 17398.87156465 0 437.28596736 0 5370.24665036 0 -96.90888969 0 460.77934074 0 10155
0.09650000 0.09649430 17012.12152706 0 520.45330768 0 5132.66212053 0 -111.87246714 0 -304.95024185 0 9913
0.09750000 0.09749140 16665.29979849 0 102.95048649 0 5532.17812580 0 428.79565610 0 1739.92043006 0 10476
0.09850000 0.09850240 16588.32689167 0 44.89283968 0 5419.54702079 0 239.67632957 0 541.56983755 0 10575
0.09950000 0.09950330 16386.02345933 0 -62.04459938 0 4963.34390792 0 463.05858171 0 2080.87491544 0 10882
0.10050000 0.10051200 16588.99236349 0 -190.82515261 0 4469.51945500 0 416.10510855 0 1039.22186253 0 10875
0.10150000 0.10150300 16795.62136263 0 -132.81819257 0 4270.57665534 0 489.71294621 0 1668.60403368 0 11118
0.10250000 0.10250800 17168.39649206 0 -23.77386975 0 4779.11912661 0 0.06969564 0 978.42546646 0 11575
0.10350000 0.10349800 17179.15495310 0 204.44070599 0 4475.26469502 0 -868.84665885 0 281.92491699 0 11364
0.10450000 0.10450100 16714.76653688 0 458.97923947 0 5220.74840669 0 -865.39064189 0 -39.62995582 0 12093
0.10550000 0.10551000 16174.40342156 0 584.38962160 0 6121.20941333 0 -1151.86516786 0 -1281.64326335 0 12067
0.10650000 0.10649700 15947.36662003 0 279.94513833 0 6382.82856694 0 74.71263179 0 -137.30901822 0 12054
0.10750000 0.10749900 15534.77409356 0 -39.70781602 0 6379.17956315 0 685.81085386 0 -1521.25748222 0 12807
0.10850000 0.10850100 15515.69723481 0 57.16136718 0 5890.77870553 0 630.65433143 0 -399.52265999 0 12736
0.10950000 0.10950300 15546.86349823 0 15.28755131 0 5372.32070419 0 965.47538491 0 -218.05182288 0 12933
0.11050000 0.11050200 15080.92231444 0 56.89617666 0 4560.47836117 0 729.30609181 0 223.43659900 0 13428
0.11150000 0.11150900 15400.79243442 0 102.76825812 0 4271.66359264 0 589.87643673 0 1241.32676245 0 13453
0.11250000 0.11250000 14872.40781181 0 205.77497698 0 3907.94997112 0 388.00888844 0 643.18405663 0 13668
0.11350000 0.11349100 14512.83120675 0 332.41870021 0 4509.24812247 0 -93.46152385 0 2042.28864126 0 13791
0.11450000 0.11448600 14127.74484871 0 346.03425359 0 4574.73054925 0 -245.32729442 0 1216.56011966 0 14205
0.11550000 0.11549300 13851.79586864 0 346.19618506 0 5042.21340942 0 -707.57510963 0 1931.69831649 0 14776
0.11650000 0.11649800 13384.74556515 0 428.45848371 0 5328.38847308 0 -361.70500576 0 920.56823758 0 14553
0.11750000 0.11747300 13459.61114455 0 -58.65280044 0 5139.91576334 0 400.78594732 0 2132.88153793 0 14568
0.11850000 0.11849100 13379.64361455 0 -265.46668984 0 5099.02252019 0 1046.13611471 0 1916.78065659 0 16015
0.11950000 0.11950300 13909.13735686 0 -290.18231312 0 4411.71213650 0 757.47329558 0 1070.88390246 0 15270
0.12050000 0.12050700 13978.12460188 0 1.88194321 0 4439.56213204 0 -69.55677798 0 1719.36844211 0 15999
0.12150000 0.12150000 13894.82971279 0 170.51495276 0 3687.51243177 0 -139.86553912 0 1247.73747428 0 15670
0.12250000 0.12250700 13693.30266425 0 -0.56093285 0 3889.15039229 0 125.83406586 0 1756.56831667 0 16887
0.12350000 0.12352200 13956.38585586 0 -112.19300273 0 3641.84997393 0 138.40704672 0 609.08195337 0 16407
0.12450000 0.12449800 13985.77752777 0 30.96307270 0 3281.09770200 0 305.35728878 0 254.41874856 0 16306
0.12550000 0.12549900 13713.15590678 0 353.36886213 0 3535.38557443 0 -487.94057294 0 91.81337199 0 17523
0.12650000 0.12650100 13254.53491297 0 371.98987269 0 3185.10339241 0 -654.01239221 0 -257.33240599 0 17154
0.12750000 0.12750600 12703.41333662 0 439.46095108 0 4659.93312420 0 -442.68294379 0 -725.38868105 0 18007
0.12850000 0.12850300 12313.44685192 0 349.53463534 0 3992.24306792 0 -235.16221241 0 -1210.99233879 0 17496
0.12950000 0.12949900 12042.37799850 0 77.39548142 0 4635.78758845 0 447.51870566 0 -998.11234105 0 18405
0.13050000 0.13049000 11879.11557942 0 -61.48859767 0 3594.31310381 0 402.60268538 0 -1441.53395856 0 18100
0.13150000 0.13148800 11924.36766297 0 58.06729615 0 3854.61240499 0 648.84722179 0 -479.43029752 0 19059
0.13250000 0.13249300 11746.35395195 0 193.88854121 0 3394.19463728 0 2.13187224 0 -668.68493665 0 18957
0.13350000 0.13349100 11525.52822071 0 32.07585249 0 3236.92146455 0 227.85533186 0 -468.96686232 0 19468
0.13450000 0.13450700 11589.08077923 0 93.28073734 0 3344.18443024 0 283.42999241 0 -47.39135362 0 19953
0.13550000 0.13551000 11467.41034871 0 54.34686505 0 2950.30275302 0 56.48691150 0 -88.78791528 0 19956
0.13650000 0.13649900 11456.76279964 0 -47.49849458 0 2865.81001466 0 191.38858542 0 659.72768599 0 19723
0.13750000 0.13749600 11331.98683397 0 178.03700253 0 3494.98034395 0 -304.86705787 0 -460.96456372 0 20946
0.13850000 0.13851100 11206.87813239 0 249.46652912 0 3268.32064311 0 -487.60561879 0 -236.22807644 0 20955
0.13950000 0.13949800 10909.31240947 0 340.49641895 0 4039.20319580 0 -531.84618518 0 -329.42962264 0 20506
0.14050000 0.14048300 10654.58088916 0 185.35941076 0 4149.21677833 0 -231.08176106 0 -11.93534795 0 21447
0.14150000 0.14148400 10616.32735088 0 -137.53527864 0 4653.50022997 0 489.69409118 0 -906.50238161 0 21771
0.14250000 0.14249400 10720.39605185 0 -59.03300667 0 3709.77246404 0 415.08915491 0 -506.29983125 0 22470
0.14350000 0.14350900 10991.59799963 0 60.83088969 0 3879.32359179 0 93.58474705 0 -102.78522765 0 22519
0.14450000 0.14449900 10590.44049721 0 67.33742947 0 3717.52521071 0 -177.24287283 0 -618.45956039 0 22218
0.14550000 0.14550500 10724.82143943 0 216.04431623 0 4155.49439580 0 -97.41198638 0 -192.59419853 0 23559
0.14650000 0.14650700 10332.29288824 0 -27.02281407 0 3615.31983083 0 288.06500362 0 -823.83969076 0 23044
0.14750000 0.14750500 10587.91170430 0 31.49145732 0 3886.53286981 0 269.71129091 0 -168.12923630 0 23649
0.14850000 0.14849900 10372.96430745 0 145.36788192 0 3494.82506719 0 -83.51183289 0 -1208.23063075 0 23640
0.14950000 0.14949500 10078.06047179 0 343.76943117 0 3756.57731517 0 -351.83273135 0 -491.36775280 0 24457
0.15050000 0.15050000 9836.51638465 0 197.32792138 0 3940.72445810 0 -89.44285046 0 -474.56126206 0 24591
0.15150000 0.15149900 9543.62005564 0 127.25041171 0 3604.12881311 0 252.81717972 0 -612.88845216 0 25020
0.15250000 0.15250500 9558.92590743 0 8.12719657 0 4071.00165745 0 338.85381268 0 -414.82407530 0 25297
0.15350000 0.15350100 9391.78156942 0 75.53959144 0 3309.31370703 0 258.90181036 0 -873.62696474 0 25452
0.15450000 0.15450400 9412.54429011 0 97.28898501 0 3651.15548817 0 -70.91090222 0 -373.71566293 0 26061
0.15550000 0.15549900 9210.99505917 0 5.81778754 0 3072.88266169 0 -26.31275564 0 -723.54643323 0 26128
0.15650000 0.15649500 9160.01991799 0 74.33985667 0 3441.08821797 0 88.27616745 0 -658.82264432 0 26331
0.15750000 0.15749700 9285.68317942 0 -44.41957831 0 3011.72580171 0 242.47796592 0 -729.17854304 0 27345
0.15850000 0.15849900 9160.24174193 0 2.40808741 0 2894.05929329 0 288.49866942 0 -1000.67662578 0 26980
0.15950000 0.15949700 9176.46816307 0 210.12605354 0 3044.50028870 0 -150.67058318 0 -861.33570028 0 27777
0.16050000 0.16050000 8953.84565792 0 200.66193519 0 2981.73520517 0 -306.48637263 0 -746.10038223 0 28224
0.16150000 0.16150500 8661.44843278 0 66.90454006 0 3084.17350018 0 232.01896720 0 -802.21074759 0 28075
0.16250000 0.16249700 8605.02751390 0 25.70584534 0 3063.23332034 0 111.85693946 0 -990.47272459 0 28590
0.16350000 0.16349900 8733.51903055 0 -10.25576363 0 2859.09984051 0 189.27460328 0 -480.83111570 0 29163
0.16450000 0.16449100 8642.58230677 0 3.20572193 0 2716.11212945 0 410.25782952 0 -744.94024303 0 28996
0.16550000 0.16550500 8613.01317570 0 141.86195457 0 2428.71703413 0 24.70187020 0 -413.83806789 0 30777
0.16650000 0.16650700 8474.10702512 0 106.18268310 0 2586.07893643 0 17.37957288 0 -203.95158420 0 29211
0.16750000 0.16749900 8305.31009877 0 104.48650635 0 2430.75781437 0 171.28135447 0 -129.67827472 0 30922
0.16850000 0.16850800 8272.90162129 0 65.46834096 0 2450.11195304 0 186.13690366 0 106.70940405 0 30867
0.16950000 0.16949900 8164.59608309 0 -40.28633285 0 2248.74018125 0 220.15138646 0 427.43698447 0 30852
0.17050000 0.17049200 8226.74005959 0 -12.88919089 0 2220.47981143 0 430.36062398 0 391.91631712 0 31257
0.17150000 0.17149500 8215.58231546 0 56.57941208 0 1922.92517970 0 -100.37156137 0 181.49745598 0 32608
0.17250000 0.17250900 8238.18617484 0 112.14641970 0 1866.28243689 0 -140.46557287 0 345.45640223 0 32361
0.17350000 0.17350400 7992.95981031 0 118.16228493 0 2140.91156452 0 -118.80224699 0 -2.24148654 0 32508
0.17450000 0.17449800 7852.30125061 0 113.20895637 0 2156.62779060 0 -121.03712318 0 207.86344937 0 32791
0.17550000 0.17549800 7830.32958946 0 -4.02124655 0 2040.94660643 0 367.24505863 0 -184.26803698 0 33633
0.17650000 0.17650100 7812.52821836 0 19.46039234 0 1874.77829375 0 158.13274049 0 217.24660198 0 33984
0.17750000 0.17750300 7794.21665220 0 36.58919326 0 1615.79884501 0 356.99346529 0 478.83026377 0 34069
0.17850000 0.17849800 7619.87412737 0 100.40239490 0 1570.19184316 0 142.60284652 0 789.27064811 0 34536
