### header ###
fiducial parameters:
Omega_m = 0.31
Omega_nu = 0
Omega_de = 0.69
Omega_k = 0
H_0 = 100
w_de = -1
zeff = 0
beta = 0
fgrowth = 0
b_1 = 2
gamma = 0.55
Lx = 3500 Ly = 3500 Lz = 3500
nx = 700 ny = 700 nz = 700
xoffset = 1379.75464 yoffset = 22.6059522 zoffset = 368.141391
bins = 400 dk = 0.001
kx_ny = 0.628318531 ky_ny = 0.628318531 kz_ny = 0.628318531
############################
A(data) = 3.33326479 (not used)
A(ran) = 3.33856164 (used)
Ngal = 187056
weighted Ngal = 0
Nran = 9399747
weighted Nran = 0
SN(data) = 6579.86908
SN(ran) = 132.792568
SN(data+ran) = 6712.66164
############################
13 columns: k_central k_mean P_0(k) sigma^{lin}_{P_0(k)} P^img_1(k) sigma^{lin}_{P_1(k)} P_2(k) sigma^{lin}_{P_2(k)} P^img_3(k) sigma^{lin}_{P_3(k)} P_4(k) sigma^{lin}_{P_4(k)} N_modes
### header ###
0.00050000 0 0 0 0 0 0 0 0 0 0 0 0
0.00150000 0.00179520 22362.95858276 0 -11758.11062072 0 12823.75282350 0 -14819.94645025 0 104528.20925474 0 3
0.00250000 0.00253879 22834.77810094 0 -11309.13896826 0 -14491.75793255 0 10555.96905709 0 -38158.59762854 0 6
0.00350000 0.00331552 31894.40050416 0 -5757.75088934 0 4209.09815065 0 -3087.96668954 0 6142.08304599 0 7
0.00450000 0.00420575 41156.32633971 0 -6945.06352264 0 -13749.20229686 0 -3492.66228378 0 -8744.18876201 0 24
0.00550000 0.00557378 47755.81034784 0 -7667.27790312 0 -5471.19872498 0 2112.17427323 0 8243.62086134 0 45
0.00650000 0.00659388 52329.93088126 0 -5592.60296678 0 -50738.78776706 0 -4640.93390383 0 -9685.03281673 0 40
0.00750000 0.00754703 69748.43386450 0 -7291.79652164 0 -8729.14909895 0 -24863.02528686 0 -13093.26890935 0 57
0.00850000 0.00846663 64056.09885476 0 3156.22191556 0 -23339.42756208 0 -24380.00365977 0 -16176.62166095 0 75
0.00950000 0.00948925 58702.04535195 0 9709.92146268 0 -1242.39151735 0 -18198.99051249 0 3852.72690151 0 112
0.01050000 0.01054430 52716.68091884 0 1901.04224812 0 1519.16124600 0 -236.33233369 0 -9652.46906249 0 105
0.01150000 0.01145670 51071.30185157 0 -2010.35708524 0 -634.15249495 0 12816.09989761 0 -12513.19930895 0 144
0.01250000 0.01249090 52496.74248336 0 -1385.45686679 0 -4587.41887856 0 10725.54236723 0 -119.92023964 0 169
0.01350000 0.01339930 55256.12137211 0 -6514.72508105 0 -19286.48237326 0 15015.04060456 0 6029.16356986 0 180
0.01450000 0.01448870 60027.66521120 0 -6744.83414414 0 -25602.14265149 0 2648.04545378 0 2433.76352874 0 267
0.01550000 0.01550050 68876.22213649 0 -3940.19208064 0 -30510.77368487 0 -7834.54424430 0 -12257.10357142 0 238
0.01650000 0.01653350 67277.64792035 0 775.77044318 0 -26934.52814088 0 -18030.62614282 0 -3840.78168240 0 315
0.01750000 0.01747870 67481.61503222 0 3995.85879813 0 -20540.89674811 0 -11002.37864306 0 -17622.02644724 0 297
0.01850000 0.01844180 65395.47179823 0 529.15435168 0 -12344.83493928 0 -8174.97744343 0 -9249.91406926 0 388
0.01950000 0.01947590 62720.82965417 0 1354.43478892 0 -13883.96033979 0 -7731.24083592 0 -28627.26661912 0 399
0.02050000 0.02045430 61012.34167626 0 3551.97800506 0 -621.16803068 0 -2205.16286844 0 -13328.18046071 0 462
0.02150000 0.02154770 56411.38044623 0 3198.54592311 0 391.64569192 0 -11593.96090589 0 -15959.56693668 0 571
0.02250000 0.02255340 57682.76435241 0 489.12400366 0 2895.67860805 0 -3885.49029730 0 -20019.72140351 0 510
0.02350000 0.02348930 52896.46922137 0 2596.71539431 0 12220.50262149 0 -2821.19012934 0 -13152.16316514 0 555
0.02450000 0.02439640 50417.03214360 0 2057.69431382 0 2835.06521672 0 -1491.42216243 0 -17485.60472478 0 592
0.02550000 0.02547300 53462.56391361 0 -2894.75803870 0 8795.87373979 0 9610.97689471 0 -1931.69831649 0 837
0.02650000 0.02652900 55870.68459501 0 -3032.93217028 0 2448.20426717 0 7441.53877164 0 -8103.64995586 0 723
0.02750000 0.02749970 58910.55985458 0 -654.66344547 0 -5009.86038792 0 4119.40364093 0 4438.59719791 0 826
0.02850000 0.02848090 58898.24862596 0 -55.04638684 0 -1528.33366587 0 -2671.42569695 0 -1505.72980649 0 831
0.02950000 0.02946900 58379.51334469 0 586.20303230 0 -2140.51228143 0 1859.01770289 0 12898.50749094 0 996
0.03050000 0.03053250 58168.00421889 0 863.43304562 0 646.40604934 0 887.65400152 0 8726.34302612 0 1041
0.03150000 0.03150510 57828.16994440 0 -171.14160539 0 -1019.09688567 0 -2158.46892929 0 947.28138543 0 1036
0.03250000 0.03246190 57874.86388355 0 789.63000289 0 3564.73288155 0 -355.48506251 0 6317.70105846 0 1059
0.03350000 0.03345080 55072.11841473 0 1722.56270683 0 1852.18552557 0 326.15439218 0 4674.70659854 0 1302
0.03450000 0.03451200 53613.07145620 0 1178.36203737 0 1686.90450864 0 -1629.27464930 0 9594.29573450 0 1339
0.03550000 0.03553350 51049.00854571 0 2272.23133639 0 8239.50602727 0 215.19916703 0 5353.95368204 0 1365
0.03650000 0.03647120 49757.32774912 0 1685.22973790 0 3286.74312124 0 -837.89445553 0 5611.41363680 0 1308
0.03750000 0.03744890 47610.62657979 0 901.88733456 0 11891.20498410 0 -1036.10079971 0 6035.76283204 0 1579
0.03850000 0.03847530 47163.54043080 0 946.48947397 0 7366.01881162 0 -975.62050275 0 6162.65721633 0 1662
0.03950000 0.03950240 45326.50548027 0 1600.47081083 0 11708.97661824 0 -638.56457310 0 5289.51382777 0 1683
0.04050000 0.04050350 43852.92905373 0 700.40686904 0 11448.66622586 0 -2001.15139178 0 -312.27597744 0 1822
0.04150000 0.04152450 44147.95489255 0 568.84087260 0 16070.14617025 0 2168.05172345 0 3162.86554253 0 1887
0.04250000 0.04250150 43837.17955406 0 700.51889013 0 15506.26971740 0 -1884.44981749 0 -76.01906388 0 1920
0.04350000 0.04349210 42034.52731407 0 374.02621645 0 15567.60403653 0 792.34290966 0 124.81034838 0 2005
0.04450000 0.04448520 41740.38877100 0 331.30958052 0 15496.06581621 0 -700.18504510 0 -2579.59058622 0 2151
0.04550000 0.04548030 40817.49027294 0 1766.35075238 0 16599.19626468 0 -819.64056359 0 -1185.92623369 0 2274
0.04650000 0.04648670 39079.05606328 0 1064.29351324 0 15160.11346065 0 853.75708541 0 -1058.15786308 0 2311
0.04750000 0.04749250 38211.94628586 0 153.22821320 0 15031.23375211 0 2546.48336333 0 -1989.74964131 0 2568
0.04850000 0.04851840 38012.41565277 0 347.02913395 0 11889.76312849 0 1582.71380451 0 -3664.63129247 0 2493
0.04950000 0.04949480 37544.69987746 0 612.81968674 0 12119.01816941 0 3916.16854805 0 -3521.33302789 0 2644
0.05050000 0.05050630 34193.16198364 0 692.54321040 0 10549.64707483 0 -1185.82641292 0 2656.33057790 0 2829
0.05150000 0.05149060 34581.46478880 0 886.50938999 0 11274.86716969 0 1358.89345010 0 123.48716858 0 2784
0.05250000 0.05249300 34994.16822725 0 -538.68945370 0 10482.53424210 0 2311.58290316 0 2050.38521503 0 3055
0.05350000 0.05348950 33042.45030027 0 803.39306918 0 7338.56809917 0 -1442.67635184 0 -1940.10544377 0 3009
0.05450000 0.05448610 33642.48405517 0 1064.36782426 0 11812.34657380 0 -1151.34388160 0 2423.62617473 0 3336
0.05550000 0.05550870 32697.84681109 0 -183.73233217 0 11982.04188710 0 -792.91965191 0 445.20397286 0 3349
0.05650000 0.05647670 32744.42983827 0 -129.08822304 0 12498.55892898 0 1868.01266361 0 548.84677186 0 3324
0.05750000 0.05747970 33364.64957161 0 452.06720553 0 12461.62524314 0 -1728.56304438 0 -1925.85325570 0 3639
0.05850000 0.05849280 32995.42362521 0 596.86943641 0 12284.16609197 0 -303.98641684 0 -1245.20868138 0 3846
0.05950000 0.05951020 32876.96964180 0 0.75095056 0 15862.07531550 0 1562.62764684 0 1790.20791702 0 3787
0.06050000 0.06049470 32015.18363892 0 196.87318231 0 11963.74141214 0 732.15320207 0 -48.40298169 0 3930
0.06150000 0.06148310 32654.48023102 0 606.36682836 0 16298.40300344 0 123.10008581 0 2423.72599550 0 4083
0.06250000 0.06249100 31992.89033306 0 538.60848796 0 14774.47254276 0 1183.35307600 0 1815.61784923 0 4303
0.06350000 0.06350600 31573.64308841 0 215.40657241 0 16265.79488442 0 1073.38385826 0 6766.46197819 0 4470
0.06450000 0.06451750 30483.93298825 0 396.50585442 0 14208.59967446 0 807.38035449 0 5224.75232879 0 4479
0.06550000 0.06550280 31920.46481698 0 -305.76988131 0 15520.57736146 0 2619.46343925 0 8954.96586881 0 4636
0.06650000 0.06648880 31489.68272752 0 27.31262704 0 13370.54883305 0 1304.01420760 0 7925.54751526 0 4653
0.06750000 0.06749660 31462.39838302 0 355.79339778 0 15783.99328899 0 -17.35395222 0 7747.35634509 0 5220
0.06850000 0.06852730 30330.20899855 0 908.05736743 0 13830.72259443 0 -453.23178121 0 8112.99983488 0 5029
0.06950000 0.06949320 29810.69733349 0 384.01273018 0 15993.72782328 0 -465.94340203 0 8901.67266748 0 5040
0.07050000 0.07048030 30112.93245033 0 463.85603877 0 15117.85600027 0 1184.08509500 0 6679.20753180 0 5475
0.07150000 0.07148790 29015.56942428 0 383.51584455 0 15359.42226981 0 726.37247022 0 5682.82985395 0 5509
0.07250000 0.07249820 28096.55284515 0 518.01546259 0 14471.57195410 0 690.50021193 0 7543.20068286 0 5916
0.07350000 0.07351270 27666.32531552 0 616.84135475 0 14756.39389173 0 731.18272233 0 5915.60080430 0 5721
0.07450000 0.07449140 27066.06973669 0 548.25006547 0 14238.98955410 0 -461.19969710 0 4433.22905858 0 6028
0.07550000 0.07549160 25677.23005483 0 824.35764966 0 14189.52281571 0 32.95970997 0 3936.24361453 0 6183
0.07650000 0.07648840 25179.56804776 0 697.78712832 0 14536.67728019 0 -1257.69736914 0 1850.27783969 0 6330
0.07750000 0.07749960 24179.58573091 0 282.87543257 0 14555.53231500 0 725.21011278 0 2550.25437029 0 6583
0.07850000 0.07848650 24258.88778909 0 86.08243961 0 13477.02432375 0 892.54743761 0 891.84758309 0 6549
0.07950000 0.07947320 24580.31067665 0 -860.51051523 0 11440.68056406 0 2726.17184509 0 1843.60093913 0 6828
0.08050000 0.08048110 25256.31913065 0 -452.97335632 0 9902.70864804 0 2692.47678876 0 1002.23272071 0 7147
0.08150000 0.08149960 25521.17691377 0 140.10621809 0 8543.37155006 0 772.36544572 0 1475.65048037 0 7386
0.08250000 0.08250610 25082.18733856 0 121.84234407 0 7322.28622205 0 935.60679152 0 3603.46334130 0 7227
0.08350000 0.08350160 23634.89704878 0 579.49507639 0 6906.49943086 0 955.02304090 0 2244.91371830 0 7798
0.08450000 0.08449610 24051.59331813 0 542.21756345 0 6669.65801122 0 -604.81184254 0 2893.01672078 0 7371
0.08550000 0.08548940 22465.77397847 0 793.29786172 0 6901.03147076 0 -809.18378311 0 664.62112209 0 8256
0.08650000 0.08650700 21634.04511933 0 1008.06225383 0 8277.42682964 0 -851.98582125 0 1207.95335083 0 8037
0.08750000 0.08749060 20725.67608927 0 569.09375189 0 7980.97022641 0 -1060.55799810 0 -960.05289872 0 8155
0.08850000 0.08849210 19834.72023841 0 656.33932533 0 8422.64387128 0 97.23341811 0 -184.54642602 0 8718
0.08950000 0.08949900 19254.87246196 0 344.72105587 0 8656.00265507 0 836.10211810 0 -1996.89237215 0 8571
0.09050000 0.09049190 18684.11946701 0 32.59991154 0 7370.94330306 0 189.15481835 0 -1397.97882814 0 8932
0.09150000 0.09150830 18415.82341283 0 330.38679293 0 7810.54289410 0 1200.22278655 0 -1710.30693420 0 9285
0.09250000 0.09250820 17965.18808082 0 273.21610914 0 6473.01108933 0 496.62941663 0 -1137.95680689 0 9204
0.09350000 0.09350330 17319.34768253 0 14.59579336 0 6012.28276810 0 346.21171274 0 -108.18176044 0 9349
0.09450000 0.09448040 17600.39861320 0 150.92789895 0 6196.40772864 0 482.14209518 0 -1426.70502824 0 9564
0.09550000 0.09549270 17475.06808768 0 -30.25933625 0 5213.17311918 0 496.54068706 0 -759.08706473 0 10155
0.09650000 0.09649430 17479.28274252 0 -31.87310541 0 5172.37969680 0 -343.36238424 0 -1473.80934168 0 9913
0.09750000 0.09749140 17556.47747328 0 108.87163289 0 4820.33401447 0 -26.65625001 0 -1197.37234894 0 10476
0.09850000 0.09850240 17336.98268568 0 137.06168453 0 5803.54644154 0 -208.00319845 0 -2113.73813200 0 10575
0.09950000 0.09950330 17200.89369912 0 364.17612444 0 4865.75246597 0 72.87127128 0 -1780.94676757 0 10882
0.10050000 0.10051200 16774.21535252 0 255.14854932 0 6041.38606889 0 185.33057365 0 -1673.43979555 0 10875
0.10150000 0.10150300 16671.06722090 0 241.50859531 0 5397.12062057 0 117.96929810 0 -1167.34847880 0 11118
0.10250000 0.10250800 16353.74807622 0 -69.24722267 0 5980.90577194 0 798.41201263 0 251.53725559 0 11575
0.10350000 0.10349800 16138.57885542 0 6.76873567 0 5318.39530463 0 206.11325849 0 -564.58296209 0 11364
0.10450000 0.10450100 16405.76578990 0 172.58900659 0 5422.10908729 0 321.56596400 0 655.57736010 0 12093
0.10550000 0.10551000 16346.09515032 0 117.20844199 0 5560.02812134 0 255.63212550 0 64.78490141 0 12067
0.10650000 0.10649700 15966.88712666 0 18.89684862 0 5416.45257685 0 230.45289019 0 1810.46044265 0 12054
0.10750000 0.10749900 16100.09240201 0 84.81615765 0 4879.79392131 0 287.89752654 0 578.92720711 0 12807
0.10850000 0.10850100 15867.39909004 0 134.52069131 0 4996.42894842 0 67.44002304 0 1013.58566991 0 12736
0.10950000 0.10950300 15602.31948297 0 411.87270779 0 4743.50529321 0 -692.36353301 0 214.75108267 0 12933
0.11050000 0.11050200 15391.69765293 0 368.84108187 0 5924.34066750 0 -506.75235209 0 491.65723304 0 13428
0.11150000 0.11150900 14535.34633655 0 233.00830197 0 5153.83521551 0 158.81595822 0 -507.61857457 0 13453
0.11250000 0.11250000 14656.68403117 0 1.58200397 0 5621.71735877 0 535.33769398 0 -709.41181184 0 13668
0.11350000 0.11349100 14699.05240351 0 -73.37869354 0 4486.55553351 0 386.35962745 0 -953.87732026 0 13791
0.11450000 0.11448600 14424.32345510 0 308.56929942 0 4451.48516876 0 188.05013514 0 -1051.20257348 0 14205
0.11550000 0.11549300 13857.11964317 0 536.77733134 0 4637.79509510 0 -543.87015179 0 -703.59669728 0 14776
0.11650000 0.11649800 13342.48810477 0 217.29983973 0 4826.85563828 0 87.56921456 0 -270.94130465 0 14553
0.11750000 0.11747300 13206.62094216 0 -100.22471393 0 4570.72662715 0 589.27751210 0 -1002.57876606 0 14568
0.11850000 0.11849100 13458.72384879 0 -69.04802478 0 4478.35913897 0 754.80697183 0 -138.66436249 0 16015
0.11950000 0.11950300 13447.18900396 0 148.09853461 0 4164.27862379 0 118.66138879 0 -488.04815755 0 15270
0.12050000 0.12050700 13090.60702208 0 306.81910854 0 4354.80320496 0 -597.71014914 0 30.25955807 0 15999
0.12150000 0.12150000 12952.63253204 0 204.33201226 0 4753.70919440 0 -126.99531418 0 -193.18979580 0 15670
0.12250000 0.12250700 12693.54217133 0 86.02953460 0 5020.80739931 0 70.69185108 0 231.31467619 0 16887
0.12350000 0.12352200 12960.17454597 0 -85.50026268 0 4282.58842163 0 595.80579062 0 108.38262202 0 16407
0.12450000 0.12449800 12687.77474892 0 4.22002298 0 4684.31157510 0 255.72750980 0 279.59243827 0 16306
0.12550000 0.12549900 12886.41808626 0 158.18708735 0 4132.30270298 0 -46.63116298 0 226.20718000 0 17523
0.12650000 0.12650100 12571.98265278 0 26.33438347 0 4434.77073496 0 310.03444653 0 145.17933157 0 17154
0.12750000 0.12750600 12433.34269093 0 99.25179413 0 4058.62388166 0 39.91810511 0 -101.67732799 0 18007
0.12850000 0.12850300 12447.53942302 0 15.91331665 0 3708.64116196 0 249.95454178 0 -64.56052649 0 17496
0.12950000 0.12949900 12317.88333070 0 133.14760112 0 3809.44905102 0 215.70936209 0 -10.90655070 0 18405
0.13050000 0.13049000 12078.20256464 0 287.08232357 0 3675.74467181 0 15.70258390 0 544.19845122 0 18100
0.13150000 0.13148800 12125.22923971 0 -102.28834203 0 3459.28887217 0 423.93216623 0 256.26432373 0 19059
0.13250000 0.13249300 12067.66592754 0 -31.50765047 0 3508.27868909 0 136.88533450 0 111.91572281 0 18957
0.13350000 0.13349100 12024.29934748 0 105.97960329 0 3419.31619836 0 -170.89870818 0 252.96136528 0 19468
0.13450000 0.13450700 11886.87941729 0 330.41784828 0 3437.94940924 0 -766.55033116 0 283.99675258 0 19953
0.13550000 0.13551000 11687.34878419 0 124.92458771 0 4470.90585462 0 237.80413553 0 392.36994708 0 19956
0.13650000 0.13649900 11481.71799277 0 52.00318422 0 4140.16636162 0 236.16374750 0 527.75907911 0 19723
0.13750000 0.13749600 11583.42426878 0 45.47801123 0 4240.44187323 0 453.21403530 0 620.43268433 0 20946
0.13850000 0.13851100 11653.52063350 0 -11.45332453 0 3874.78729224 0 572.75384688 0 1499.24145628 0 20955
0.13950000 0.13949800 11299.82236282 0 149.17548983 0 3650.07964207 0 121.87783590 0 1481.37353800 0 20506
0.14050000 0.14048300 11271.76163454 0 288.10604105 0 4042.16454539 0 -236.15931102 0 1873.54717089 0 21447
0.14150000 0.14148400 10785.09100365 0 242.74637289 0 3695.47591118 0 275.45985829 0 1613.48078485 0 21771
0.14250000 0.14249400 10741.29186690 0 -0.97019802 0 3986.87492860 0 113.68365960 0 1707.45649659 0 22470
0.14350000 0.14350900 10633.55197975 0 -32.48766863 0 3421.14624586 0 141.87193664 0 1499.41891543 0 22519
0.14450000 0.14449900 10538.32296275 0 166.77389203 0 3251.17365263 0 270.68509800 0 1167.70339710 0 22218
0.14550000 0.14550500 10448.69500021 0 53.23519438 0 3215.12726255 0 -223.02178823 0 1172.98280685 0 23559
0.14650000 0.14650700 10273.32099406 0 20.09702705 0 2985.88331282 0 248.25869777 0 509.86897843 0 23044
0.14750000 0.14750500 10301.01571284 0 4.14824075 0 2775.74949544 0 412.06791286 0 984.90827108 0 23649
0.14850000 0.14849900 10409.56525738 0 -73.73949017 0 2424.18073458 0 14.14615624 0 237.48914553 0 23640
0.14950000 0.14949500 10274.94030882 0 147.02601587 0 2425.84441412 0 93.77806661 0 920.66029452 0 24457
0.15050000 0.15050000 10259.25735633 0 227.01905561 0 2373.59378530 0 -268.03541105 0 105.10262234 0 24591
0.15150000 0.15149900 9973.94740604 0 120.61676681 0 2530.70059007 0 -169.39030539 0 515.91146253 0 25020
0.15250000 0.15250500 9784.77595089 0 75.67989508 0 2562.17740701 0 115.73442192 0 58.03557533 0 25297
0.15350000 0.15350100 9789.00169693 0 78.31394344 0 2530.83368443 0 194.89007630 0 279.67451313 0 25452
0.15450000 0.15450400 9558.28261801 0 114.94361957 0 2229.58568412 0 227.83536771 0 49.40451677 0 26061
0.15550000 0.15549900 9453.71481318 0 228.87017639 0 2507.10961416 0 -82.37332153 0 -39.46979893 0 26128
0.15650000 0.15649500 9130.53951650 0 111.72939070 0 2381.63490309 0 28.36673440 0 381.23549446 0 26331
0.15750000 0.15749700 8916.33522984 0 40.36618947 0 2428.38429822 0 288.70718392 0 355.72574148 0 27345
0.15850000 0.15849900 9136.20711814 0 -19.25941985 0 1980.27775912 0 330.69623733 0 967.61265856 0 26980
0.15950000 0.15949700 9137.01677552 0 -123.16885123 0 1912.83219048 0 498.69127014 0 500.96829288 0 27777
0.16050000 0.16050000 9267.03887735 0 -43.97193760 0 1432.41699467 0 134.39536078 0 1107.17208064 0 28224
0.16150000 0.16150500 9162.94799399 0 161.40353447 0 1521.13547905 0 -170.87208930 0 436.40088984 0 28075
0.16250000 0.16249700 9006.98358250 0 291.27035954 0 1711.92624896 0 -519.16561971 0 335.06284157 0 28590
0.16350000 0.16349900 8717.04860308 0 229.99371464 0 2110.06694581 0 -409.37386112 0 549.36362164 0 29163
0.16450000 0.16449100 8473.84083640 0 87.03506252 0 2364.90937809 0 -178.91764357 0 -81.61179994 0 28996
0.16550000 0.16550500 8408.46932158 0 114.47224370 0 2489.75189094 0 62.76475079 0 -213.44675791 0 30777
0.16650000 0.16650700 8322.12435334 0 77.13406191 0 2300.29206467 0 71.33303317 0 -409.60677626 0 29211
0.16750000 0.16749900 8279.74488980 0 29.74880845 0 2260.56339720 0 203.83623575 0 176.90126397 0 30922
0.16850000 0.16850800 8159.62722685 0 109.22167107 0 2390.38585748 0 -102.42764746 0 -366.38659999 0 30867
0.16950000 0.16949900 8145.15321484 0 100.89007483 0 2325.49126413 0 -72.63857797 0 210.06505196 0 30852
0.17050000 0.17049200 8086.80242769 0 -22.33290144 0 2399.11462948 0 276.66768963 0 -317.74282841 0 31257
0.17150000 0.17149500 7959.32020997 0 -7.98847897 0 2150.68290903 0 153.20824904 0 -57.23201811 0 32608
0.17250000 0.17250900 8074.95702935 0 38.31076885 0 2088.68311809 0 74.20487680 0 -2.50505774 0 32361
0.17350000 0.17350400 8140.94965119 0 -74.33597475 0 1927.66112080 0 180.03119974 0 -263.37378097 0 32508
0.17450000 0.17449800 8075.77777792 0 71.69649170 0 1752.30929705 0 47.66220065 0 -150.73380301 0 32791
0.17550000 0.17549800 7905.16189527 0 200.31699896 0 1654.25202483 0 -245.88739986 0 -557.43579478 0 33633
0.17650000 0.17650100 7771.02495938 0 176.67167619 0 1715.83035028 0 -155.55070984 0 -498.38182575 0 33984
0.17750000 0.17750300 7669.52941611 0 83.80098040 0 2088.40583817 0 -15.78831886 0 -762.69170374 0 34069
0.17850000 0.17849800 7456.58952590 0 73.33676881 0 1919.38708787 0 70.78457348 0 -730.90544241 0 34536
