### header ###
fiducial parameters:
Omega_m = 0.31
Omega_nu = 0
Omega_de = 0.69
Omega_k = 0
H_0 = 100
w_de = -1
zeff = 0
beta = 0
fgrowth = 0
b_1 = 2
gamma = 0.55
Lx = 3500 Ly = 3500 Lz = 3500
nx = 700 ny = 700 nz = 700
xoffset = 1379.75464 yoffset = 22.6059522 zoffset = 368.141391
bins = 400 dk = 0.001
kx_ny = 0.628318531 ky_ny = 0.628318531 kz_ny = 0.628318531
############################
A(data) = 3.28703227 (not used)
A(ran) = 3.27677916 (used)
Ngal = 184208
weighted Ngal = 0
Nran = 9399747
weighted Nran = 0
SN(data) = 6762.56465
SN(ran) = 130.335146
SN(data+ran) = 6892.89979
############################
13 columns: k_central k_mean P_0(k) sigma^{lin}_{P_0(k)} P^img_1(k) sigma^{lin}_{P_1(k)} P_2(k) sigma^{lin}_{P_2(k)} P^img_3(k) sigma^{lin}_{P_3(k)} P_4(k) sigma^{lin}_{P_4(k)} N_modes
### header ###
0.00050000 0 0 0 0 0 0 0 0 0 0 0 0
0.00150000 0.00179520 99632.33309785 0 -40837.12169154 0 -59582.57547767 0 111865.81241977 0 168572.88417665 0 3
0.00250000 0.00253879 125529.05794029 0 -39781.90521388 0 -9986.40282021 0 -51470.14129383 0 -38632.08082626 0 6
0.00350000 0.00331552 154989.49527416 0 -21633.71238342 0 -37226.82617292 0 -20887.05300486 0 -24030.18730802 0 7
0.00450000 0.00420575 161372.47911786 0 6895.55241947 0 -9273.97087544 0 -47851.52737750 0 2498.10356224 0 24
0.00550000 0.00557378 128690.04907053 0 21199.04837502 0 20012.51212549 0 -12780.05350753 0 51366.99316221 0 45
0.00650000 0.00659388 107432.21735169 0 4583.37059167 0 27752.72573975 0 32780.36531638 0 -12323.20710523 0 40
0.00750000 0.00754703 93121.80048925 0 12628.76958115 0 25318.42983356 0 848.53756812 0 -1166.88264853 0 57
0.00850000 0.00846663 98610.05747514 0 6629.67424622 0 22906.87088110 0 8015.66349047 0 -4590.46895772 0 75
0.00950000 0.00948925 69230.58587899 0 7425.98891352 0 37062.89828203 0 -4312.56792698 0 20008.40838262 0 112
0.01050000 0.01054430 70467.47616265 0 7754.90945021 0 14162.68211909 0 -2722.46738530 0 -12541.03821329 0 105
0.01150000 0.01145670 69538.14477036 0 3407.38207045 0 35979.17742822 0 2273.82846875 0 -127.98353982 0 144
0.01250000 0.01249090 57850.46325026 0 696.33529064 0 21393.80979343 0 5851.71550988 0 -26588.81553200 0 169
0.01350000 0.01339930 69131.54149024 0 -3900.29704522 0 36057.14854276 0 8716.68259358 0 2427.85192077 0 180
0.01450000 0.01448870 67734.05067476 0 -3288.83935747 0 3693.37967496 0 5975.06071114 0 -4434.17181032 0 267
0.01550000 0.01550050 85074.58254346 0 -5661.42384384 0 10411.46185205 0 19819.08165072 0 -13110.12752871 0 238
0.01650000 0.01653350 82025.94523831 0 -1566.29883303 0 -2141.57703634 0 -8155.02438012 0 -5842.17708051 0 315
0.01750000 0.01747870 76284.91987397 0 4725.22700064 0 18177.91723829 0 -15962.45064788 0 -7646.71482398 0 297
0.01850000 0.01844180 71737.52912520 0 6047.90769270 0 22516.68257246 0 -5546.07539558 0 -9268.01490268 0 388
0.01950000 0.01947590 70486.77484534 0 3990.06919332 0 21921.41803225 0 -916.11734025 0 -10884.07993641 0 399
0.02050000 0.02045430 68800.91290921 0 -2083.10424603 0 38376.98329645 0 9208.84336696 0 2483.85137416 0 462
0.02150000 0.02154770 66638.24041628 0 1242.03659905 0 22555.83449769 0 3418.32908184 0 -3028.01877003 0 571
0.02250000 0.02255340 66990.82956726 0 3333.17087167 0 40322.15741723 0 3167.39075088 0 7047.18017295 0 510
0.02350000 0.02348930 64140.94651142 0 3859.79199397 0 29072.46726462 0 -280.14477988 0 10750.10936847 0 555
0.02450000 0.02439640 59109.64683980 0 910.79023835 0 37086.30070759 0 775.55194660 0 9875.96777220 0 592
0.02550000 0.02547300 58206.15793639 0 1298.32442356 0 28886.13515589 0 6566.52097080 0 6018.59365917 0 837
0.02650000 0.02652900 58587.69511141 0 1014.80126509 0 36699.21793410 0 2430.35853128 0 8622.34087234 0 723
0.02750000 0.02749970 52887.81808775 0 3289.60465006 0 23924.15546519 0 2445.63110948 0 10438.04745114 0 826
0.02850000 0.02848090 55533.06855990 0 717.63260702 0 32913.79241567 0 4174.12760668 0 7237.43856540 0 831
0.02950000 0.02946900 50951.07327665 0 -1033.46774956 0 26316.63755890 0 2140.93374692 0 5179.60006602 0 996
0.03050000 0.03053250 52328.04537778 0 832.09043217 0 18360.92198794 0 5102.74916236 0 2990.86326025 0 1041
0.03150000 0.03150510 48856.38982101 0 2475.22242293 0 20076.95197976 0 -1813.07796513 0 -854.66323620 0 1036
0.03250000 0.03246190 50110.13872404 0 -138.10536616 0 16247.05076157 0 6126.26699914 0 9613.63878198 0 1059
0.03350000 0.03345080 45583.82124947 0 1135.39474039 0 15003.94940762 0 5027.97231254 0 -4888.20104860 0 1302
0.03450000 0.03451200 45415.34596783 0 1017.59291937 0 10558.49785000 0 2605.46634870 0 5361.00768330 0 1339
0.03550000 0.03553350 43973.04671668 0 772.36100924 0 9215.80863864 0 -988.83122744 0 -1276.18639445 0 1365
0.03650000 0.03647120 43191.78280365 0 392.55295183 0 10198.20031713 0 -946.15230158 0 1864.74076051 0 1308
0.03750000 0.03744890 40448.04250260 0 1117.48245732 0 6308.80591851 0 3526.01351301 0 3651.94296316 0 1579
0.03850000 0.03847530 40669.86644156 0 -311.75247294 0 4367.38062230 0 1759.41875429 0 2958.73206270 0 1662
0.03950000 0.03950240 42094.86342547 0 -1555.22981847 0 5002.54019794 0 2856.57104761 0 2586.07893643 0 1683
0.04050000 0.04050350 43133.88675558 0 -31.98923024 0 1590.32236562 0 2753.43400718 0 2678.06932392 0 1822
0.04150000 0.04152450 42292.28673115 0 1689.42221035 0 4704.60846551 0 -3567.60550156 0 10244.63915876 0 1887
0.04250000 0.04250150 39100.24024945 0 2367.63781254 0 6377.37169805 0 -4322.74964578 0 5736.33378803 0 1920
0.04350000 0.04349210 40224.22214818 0 618.41741384 0 13070.31013166 0 2093.76288629 0 13108.24202523 0 2005
0.04450000 0.04448520 37362.58242357 0 678.79456267 0 12974.26036609 0 52.93595388 0 5869.55015457 0 2151
0.04550000 0.04548030 40404.56501056 0 -612.03997560 0 16924.83380708 0 3251.19583502 0 19443.09007417 0 2274
0.04650000 0.04648670 38488.56073775 0 -333.24610351 0 14767.15235277 0 802.47139072 0 13317.20017573 0 2311
0.04750000 0.04749250 39119.64984411 0 1088.99139060 0 16801.61060898 0 -982.47818983 0 16393.23273735 0 2568
0.04850000 0.04851840 37803.56841423 0 1194.95446800 0 15958.45781698 0 -337.28884479 0 11388.88467431 0 2493
0.04950000 0.04949480 36558.47064482 0 1392.00067299 0 19916.90600780 0 -1715.38670241 0 11437.35320498 0 2644
0.05050000 0.05050630 36074.89445788 0 832.88123451 0 19691.64379778 0 -1427.27067928 0 7657.25146108 0 2829
0.05150000 0.05149060 33564.40202865 0 635.23943225 0 19480.46740789 0 1527.91220039 0 5364.61232231 0 2784
0.05250000 0.05249300 34777.22441494 0 -165.08803010 0 17552.04099450 0 1675.90204127 0 3653.72864587 0 3055
0.05350000 0.05348950 33537.00677219 0 43.86036016 0 16294.18834860 0 1116.72825593 0 -1580.63975068 0 3009
0.05450000 0.05448610 33382.06275082 0 129.99104647 0 14776.57987018 0 1119.07958968 0 1303.73692767 0 3336
0.05550000 0.05550870 33139.49827356 0 -360.80440056 0 12476.48744706 0 1658.67741241 0 -2872.03217615 0 3349
0.05650000 0.05647670 34104.65423200 0 593.25037885 0 12012.09903083 0 -327.93896577 0 -2348.46113301 0 3324
0.05750000 0.05747970 32609.22814747 0 543.07491297 0 11334.31598533 0 1739.67642372 0 -1575.97035677 0 3639
0.05850000 0.05849280 31728.25437387 0 -621.62831536 0 8288.46257060 0 1863.73146159 0 478.90346567 0 3846
0.05950000 0.05951020 32920.55804581 0 -133.62341347 0 8573.88343287 0 2494.38801126 0 609.45350847 0 3787
0.06050000 0.06049470 33174.10280804 0 -256.64697002 0 5774.19913441 0 1042.47158324 0 -4963.44372869 0 3930
0.06150000 0.06148310 32415.13220088 0 927.18635480 0 6178.16270966 0 -1051.93791984 0 2910.14152887 0 4083
0.06250000 0.06249100 30848.61154391 0 223.83699121 0 3908.04979189 0 158.11055810 0 -2128.48942394 0 4303
0.06350000 0.06350600 31708.06839543 0 -126.80232735 0 5166.74536875 0 976.50890763 0 102.75217589 0 4470
0.06450000 0.06451750 30861.14459646 0 135.25714678 0 3246.63735308 0 504.53744005 0 -4411.52358616 0 4479
0.06550000 0.06550280 30494.91327323 0 980.10023720 0 5470.41125000 0 -1862.17869402 0 -1690.83079236 0 4636
0.06650000 0.06648880 29868.14973369 0 720.32887700 0 3741.36019295 0 -1864.41911580 0 -4390.68322709 0 4653
0.06750000 0.06749660 29380.35889190 0 -422.62895059 0 7462.68968422 0 147.36540649 0 -3457.48100706 0 5220
0.06850000 0.06852730 29987.04736497 0 -223.17373763 0 6056.34809358 0 229.80183693 0 -3109.49470281 0 5029
0.06950000 0.06949320 30580.31548973 0 231.62079323 0 5590.54000415 0 899.85099080 0 -5971.91081121 0 5040
0.07050000 0.07048030 29867.81699778 0 875.00781876 0 8256.24264347 0 -1736.63743576 0 -2665.11480589 0 5475
0.07150000 0.07148790 28260.14800013 0 2045.20562606 0 10050.76503610 0 -2837.20581773 0 -3403.61106349 0 5509
0.07250000 0.07249820 27173.76525905 0 635.61542383 0 11701.32369234 0 -238.51175389 0 -1920.67366672 0 5916
0.07350000 0.07351270 26088.26981373 0 -64.97511543 0 11709.42026612 0 920.19779160 0 -3269.27448605 0 5721
0.07450000 0.07449140 26186.98146657 0 586.89401387 0 12769.07322255 0 478.73155212 0 -2479.73654009 0 6028
0.07550000 0.07549160 25834.28140362 0 132.57196800 0 10072.34850536 0 893.25172862 0 -1737.66891707 0 6183
0.07650000 0.07648840 24920.69951099 0 -22.14745663 0 11561.90734671 0 1170.86438823 0 -925.42840009 0 6330
0.07750000 0.07749960 25823.52294258 0 -66.94724116 0 9488.26389167 0 1041.17834968 0 -777.31433780 0 6583
0.07850000 0.07848650 25138.86335496 0 145.19042277 0 9240.98565571 0 1222.81555474 0 -447.37673834 0 6549
0.07950000 0.07947320 25205.63236059 0 284.42043630 0 7147.58877892 0 1060.16093325 0 1414.46034681 0 6828
0.08050000 0.08048110 24390.42938490 0 113.00487835 0 7791.08893466 0 793.53410422 0 1216.08319819 0 7147
0.08150000 0.08149960 24129.12078480 0 398.77511332 0 7581.70931867 0 504.69049857 0 2864.16851752 0 7386
0.08250000 0.08250610 23786.29188713 0 628.23312314 0 7814.94609929 0 581.81646391 0 2889.27898741 0 7227
0.08350000 0.08350160 23120.93098220 0 366.16810341 0 8214.49537816 0 -220.09482136 0 4389.89575211 0 7798
0.08450000 0.08449610 22609.84862683 0 427.25508884 0 8532.94582493 0 758.57576056 0 4243.41431401 0 7371
0.08550000 0.08548940 22036.21192067 0 606.31691797 0 7837.97142416 0 -149.33963955 0 4200.23628429 0 8256
0.08650000 0.08650700 21378.50394164 0 457.80689995 0 8936.03319562 0 249.96341474 0 5193.22005587 0 8037
0.08750000 0.08749060 21176.64415718 0 212.65262821 0 8868.47671501 0 -175.53150114 0 4372.89294718 0 8155
0.08850000 0.08849210 20761.72247935 0 260.22942664 0 9234.15347839 0 -83.52547507 0 4248.97100368 0 8718
0.08950000 0.08949900 20495.42284062 0 394.53494872 0 9338.28872654 0 53.40023139 0 3539.47822610 0 8571
0.09050000 0.09049190 19898.49462087 0 490.01240853 0 9157.40239551 0 487.60007320 0 4249.98030260 0 8932
0.09150000 0.09150830 19381.64484308 0 96.80740524 0 9275.67891977 0 300.83540778 0 3766.45957165 0 9285
0.09250000 0.09250820 19679.99804099 0 55.63510757 0 9661.20892569 0 518.00769875 0 3934.93485329 0 9204
0.09350000 0.09350330 19099.81752863 0 76.47513390 0 8331.81805947 0 746.39540807 0 3529.13013935 0 9349
0.09450000 0.09448040 18879.43544526 0 373.14668453 0 8698.42648340 0 -303.44294819 0 3418.93909767 0 9564
0.09550000 0.09549270 18499.11830191 0 393.42139255 0 8489.15777938 0 -535.95103717 0 1950.24279778 0 10155
0.09650000 0.09649430 18331.97396390 0 168.28340394 0 8630.37089893 0 115.89302603 0 1848.52543057 0 9913
0.09750000 0.09749140 17654.30183036 0 127.63638536 0 8442.76330255 0 361.55527460 0 1922.80317653 0 10476
0.09850000 0.09850240 17870.35834692 0 65.18429541 0 8417.35337034 0 747.43798058 0 422.72322577 0 10575
0.09950000 0.09950330 17728.83467386 0 228.22577784 0 7146.64602718 0 148.82611713 0 364.21272539 0 10882
0.10050000 0.10051200 17323.00777752 0 248.39955597 0 7225.26043115 0 480.40188638 0 1454.39974702 0 10875
0.10150000 0.10150300 17250.24952554 0 -93.48037889 0 6954.79050237 0 1114.48783415 0 1700.83505201 0 11118
0.10250000 0.10250800 17530.41316045 0 -374.54195710 0 6264.57422508 0 948.07440601 0 1534.16763547 0 11575
0.10350000 0.10349800 17615.14990514 0 151.96492587 0 5909.47846359 0 75.47515158 0 1445.67097502 0 11364
0.10450000 0.10450100 17330.88252735 0 374.95787699 0 5762.29828009 0 -652.45186080 0 1524.89539482 0 12093
0.10550000 0.10551000 16857.62115357 0 271.91622086 0 6729.15119165 0 -403.48443554 0 1321.28320124 0 12067
0.10650000 0.10649700 16841.64982997 0 379.04720130 0 7169.27206895 0 -191.80006883 0 1519.70471465 0 12054
0.10750000 0.10749900 15963.44885561 0 437.06857990 0 6865.57291412 0 219.36834796 0 1009.52518271 0 12807
0.10850000 0.10850100 15780.88775384 0 230.58487543 0 7557.58596531 0 701.57144472 0 2383.46495058 0 12736
0.10950000 0.10950300 15290.87867267 0 161.33698729 0 6804.27186858 0 477.82096485 0 1664.68884116 0 12933
0.11050000 0.11050200 14967.01572178 0 306.44644432 0 6394.34122938 0 835.66179759 0 2453.58349769 0 13428
0.11150000 0.11150900 14587.25313827 0 222.53932117 0 6300.02169053 0 -302.62552697 0 2036.66540441 0 13453
0.11250000 0.11250000 14329.05007332 0 316.41077566 0 5937.90520137 0 -336.34942041 0 1251.02046858 0 13668
0.11350000 0.11349100 14154.36372138 0 86.47562254 0 6271.53949677 0 561.61717603 0 1826.04357436 0 13791
0.11450000 0.11448600 13648.27240464 0 1.31574869 0 5234.62349408 0 -60.80748727 0 1255.50131214 0 14205
0.11550000 0.11549300 14065.07958595 0 4.62790175 0 5488.35680666 0 570.96372770 0 321.38739573 0 14776
0.11650000 0.11649800 13846.69391804 0 41.02622660 0 5319.87043382 0 -118.97416054 0 155.61614790 0 14553
0.11750000 0.11747300 13890.39323402 0 196.16334571 0 4905.84714294 0 -40.23986074 0 -270.31908850 0 14568
0.11850000 0.11849100 13599.13840215 0 72.67883901 0 5030.01309278 0 -64.81440399 0 29.14522552 0 16015
0.11950000 0.11950300 13527.04562199 0 -24.43789971 0 4141.48621406 0 511.35963530 0 71.68528959 0 15270
0.12050000 0.12050700 13840.48284775 0 -198.37049390 0 4519.68493879 0 1194.13371943 0 646.93177207 0 15999
0.12150000 0.12150000 13718.03603344 0 26.11621963 0 3355.45308634 0 545.75343703 0 -155.80580737 0 15670
0.12250000 0.12250700 13673.67124565 0 304.09732881 0 3559.85275490 0 131.95529745 0 986.94017836 0 16887
0.12350000 0.12352200 12963.83464096 0 545.13676648 0 3682.12211005 0 -365.00796421 0 734.83394437 0 16407
0.12450000 0.12449800 12410.16208931 0 293.36105016 0 3796.51671538 0 -310.36829156 0 1082.79473887 0 16306
0.12550000 0.12549900 12147.30072163 0 -10.41105148 0 3499.49446110 0 244.84260911 0 352.50707613 0 17523
0.12650000 0.12650100 12388.86699116 0 -27.26327122 0 3341.24526305 0 368.63256737 0 846.27829130 0 17154
0.12750000 0.12750600 12284.27700394 0 -66.98106931 0 3074.23578771 0 319.13921011 0 209.29199553 0 18007
0.12850000 0.12850300 12571.09535702 0 -48.32966888 0 2673.25574445 0 262.59185159 0 363.11026041 0 17496
0.12950000 0.12949900 12530.05792832 0 29.40775415 0 2885.10869735 0 -389.34426855 0 -321.85655336 0 18405
0.13050000 0.13049000 12442.99203227 0 197.93793722 0 3085.43789663 0 -501.56610839 0 -136.97517319 0 18100
0.13150000 0.13148800 12239.02492039 0 184.54642602 0 3650.17946284 0 -310.21523304 0 -129.25237276 0 19059
0.13250000 0.13249300 12307.45760556 0 32.64161444 0 3735.77022969 0 -67.46386912 0 -135.21832759 0 18957
0.13350000 0.13349100 12147.74436951 0 20.96934969 0 3988.86025285 0 -19.78758265 0 -818.90299900 0 19468
0.13450000 0.13450700 12071.10419860 0 98.62059411 0 3866.95690719 0 -43.40395740 0 -760.64648703 0 19953
0.13550000 0.13551000 12066.11315997 0 107.43931572 0 4137.61538632 0 109.55185600 0 -275.40440230 0 19956
0.13650000 0.13649900 11967.95606698 0 -56.90460597 0 3818.02254626 0 254.88457883 0 -423.89778352 0 19723
0.13750000 0.13749600 12016.42459764 0 58.59878631 0 3450.46027940 0 493.94645609 0 -30.58641565 0 20946
0.13850000 0.13851100 12016.42459764 0 -8.39259782 0 3308.23786093 0 644.42848892 0 114.04634174 0 20955
0.13950000 0.13949800 11799.59169731 0 98.38091335 0 3200.50906497 0 67.18570190 0 350.97870919 0 20506
0.14050000 0.14048300 11699.99274871 0 300.94631975 0 3277.03832391 0 -28.15300704 0 670.30757876 0 21447
0.14150000 0.14148400 11293.72220450 0 254.77810334 0 3159.20544753 0 -227.24864339 0 807.49459382 0 21771
0.14250000 0.14249400 11050.44789063 0 68.65972197 0 3281.46371150 0 317.83599447 0 1110.61700641 0 22470
0.14350000 0.14350900 11150.09120402 0 -52.47489283 0 3155.73390289 0 274.51821567 0 980.47290142 0 22519
0.14450000 0.14449900 10965.30077166 0 245.89183634 0 3319.52869942 0 122.76402254 0 849.01005311 0 22218
0.14550000 0.14550500 10790.08204228 0 183.08127890 0 2867.38496463 0 -70.19385633 0 756.37970356 0 23559
0.14650000 0.14650700 10517.23859735 0 53.38758742 0 3245.92751647 0 -359.38583647 0 435.86740327 0 23044
0.14750000 0.14750500 10453.73040362 0 160.46632833 0 3117.45818222 0 -26.88450684 0 499.13269978 0 23649
0.14850000 0.14849900 10323.09828597 0 219.78537697 0 3390.41253912 0 -275.88354201 0 -640.57318886 0 23640
0.14950000 0.14949500 10019.26603677 0 256.27874228 0 3350.97224277 0 -211.40154119 0 -550.92969865 0 24457
0.15050000 0.15050000 9823.41768106 0 58.39437555 0 3502.48908428 0 9.23980999 0 -625.12204240 0 24591
0.15150000 0.15149900 9650.04009036 0 -5.05053181 0 3218.95372549 0 326.20541168 0 -724.53133152 0 25020
0.15250000 0.15250500 9747.04369887 0 8.23424880 0 2701.52720547 0 512.23140338 0 -811.93661819 0 25297
0.15350000 0.15350100 9672.85468248 0 11.90296165 0 2405.66952687 0 454.42852136 0 -758.11880324 0 25452
0.15450000 0.15450400 9657.88156660 0 82.41812996 0 2344.96740597 0 73.80426276 0 101.57939272 0 26061
0.15550000 0.15549900 9450.40963649 0 83.16090742 0 1824.65717474 0 345.77250134 0 -110.62570569 0 26128
0.15650000 0.15649500 9437.01147058 0 78.73452163 0 2379.12829258 0 79.56791417 0 366.76037332 0 26331
0.15750000 0.15749700 9130.30660137 0 193.11326654 0 1686.30558401 0 -176.04613268 0 -79.10762950 0 27345
0.15850000 0.15849900 9129.69658554 0 100.54325310 0 2348.76059533 0 -188.40616256 0 225.96650102 0 26980
0.15950000 0.15949700 8816.48118372 0 212.74579426 0 2341.24076380 0 -298.19792115 0 -276.03216405 0 27777
0.16050000 0.16050000 8711.92447009 0 55.77796219 0 2610.03592184 0 -19.80244486 0 -53.05629337 0 28224
0.16150000 0.16150500 8918.33164529 0 -93.41305532 0 2895.15732179 0 48.01589892 0 -408.97235979 0 28075
0.16250000 0.16249700 8903.80217729 0 85.25093257 0 2460.04966551 0 42.61526239 0 -724.23297833 0 28590
0.16350000 0.16349900 8781.37754538 0 212.14908787 0 3146.25092950 0 -417.22531944 0 274.70232953 0 29163
0.16450000 0.16449100 8559.23196170 0 146.53911232 0 2819.79263853 0 -24.61779892 0 -455.28365265 0 28996
0.16550000 0.16550500 8635.21775199 0 -10.25967882 0 3476.02548836 0 293.76587885 0 400.05392832 0 30777
0.16650000 0.16650700 8543.22736450 0 -99.31146477 0 2817.37475759 0 414.25842426 0 58.47711588 0 29211
0.16750000 0.16749900 8629.35050881 0 19.51418465 0 3016.51719880 0 441.79232068 0 964.79993101 0 30922
0.16850000 0.16850800 8800.83150482 0 -0.07162351 0 2660.47868556 0 297.50804870 0 944.11152134 0 30867
0.16950000 0.16949900 8529.27463874 0 106.88786141 0 2370.13333185 0 72.25715170 0 1147.91670175 0 30852
0.17050000 0.17049200 8461.91779968 0 224.49359007 0 2584.53726006 0 -164.58559887 0 1243.34536029 0 31257
0.17150000 0.17149500 8266.51309184 0 90.06295928 0 2411.38149330 0 -58.74241731 0 816.50397310 0 32608
0.17250000 0.17250900 8104.93653470 0 48.89110527 0 2804.20950681 0 108.53767695 0 1198.12655033 0 32361
0.17350000 0.17350400 8075.73341314 0 53.27124077 0 2304.92818499 0 26.16945738 0 531.44357473 0 32508
0.17450000 0.17449800 7937.24872804 0 146.21635849 0 2691.85568173 0 -230.80115377 0 562.19946387 0 32791
0.17550000 0.17549800 7979.09581413 0 40.35809290 0 2173.77478108 0 149.68235753 0 464.41947157 0 33633
0.17650000 0.17650100 7889.65640194 0 -47.07126167 0 2389.36546736 0 501.20009889 0 677.25510453 0 33984
0.17750000 0.17750300 7803.31143369 0 26.16291357 0 1910.18139441 0 142.08821498 0 436.84342860 0 34069
0.17850000 0.17849800 7855.87261603 0 52.74097064 0 1798.07157566 0 153.30585158 0 982.44491624 0 34536
