### header ###
fiducial parameters:
Omega_m = 0.31
Omega_nu = 0
Omega_de = 0.69
Omega_k = 0
H_0 = 100
w_de = -1
zeff = 0
beta = 0
fgrowth = 0
b_1 = 2
gamma = 0.55
Lx = 3500 Ly = 3500 Lz = 3500
nx = 700 ny = 700 nz = 700
xoffset = 1379.75464 yoffset = 22.6059522 zoffset = 368.141391
bins = 400 dk = 0.001
kx_ny = 0.628318531 ky_ny = 0.628318531 kz_ny = 0.628318531
############################
A(data) = 3.33018096 (not used)
A(ran) = 3.32717912 (used)
Ngal = 186887
weighted Ngal = 0
Nran = 9399747
weighted Nran = 0
SN(data) = 6661.14706
SN(ran) = 132.339823
SN(data+ran) = 6793.48689
############################
13 columns: k_central k_mean P_0(k) sigma^{lin}_{P_0(k)} P^img_1(k) sigma^{lin}_{P_1(k)} P_2(k) sigma^{lin}_{P_2(k)} P^img_3(k) sigma^{lin}_{P_3(k)} P_4(k) sigma^{lin}_{P_4(k)} N_modes
### header ###
0.00050000 0 0 0 0 0 0 0 0 0 0 0 0
0.00150000 0.00179520 17296.83255272 0 -31037.82736385 0 -37685.55807870 0 45073.07163000 0 22274.11809521 0 3
0.00250000 0.00253879 39041.90055350 0 -31933.55242938 0 -6741.28496111 0 -55247.13750258 0 -2675.08579194 0 6
0.00350000 0.00331552 58810.29543416 0 -18029.40611115 0 -28598.09677114 0 -11307.03164084 0 -21748.39535986 0 7
0.00450000 0.00420575 84138.70734497 0 -8305.19918680 0 -169.89828221 0 -53653.55432506 0 9534.80255407 0 24
0.00550000 0.00557378 85129.59488033 0 13878.19291737 0 23849.62262170 0 -43716.95097914 0 24164.39079109 0 45
0.00650000 0.00659388 94587.05851808 0 9019.08407837 0 75606.24953270 0 24311.46006263 0 215.06163619 0 40
0.00750000 0.00754703 69102.26073030 0 5009.50546962 0 62124.45599426 0 24270.75536983 0 -1997.60220875 0 57
0.00850000 0.00846663 93194.33691729 0 1253.74890303 0 75372.22527710 0 27805.74166116 0 3956.44068417 0 75
0.00950000 0.00948925 80641.76385917 0 4171.05534512 0 79650.09994003 0 10031.97654847 0 20022.49420275 0 112
0.01050000 0.01054430 76693.96321742 0 8386.25365410 0 69515.07508071 0 24090.52341942 0 22813.15026689 0 105
0.01150000 0.01145670 75145.63212345 0 4381.00061215 0 82351.36095677 0 23590.97590887 0 36169.94601573 0 144
0.01250000 0.01249090 69368.44945705 0 2585.48001180 0 73026.10438664 0 18722.60592042 0 36003.91079741 0 169
0.01350000 0.01339930 78853.75199914 0 6554.33174536 0 72215.22697776 0 35457.55843574 0 36193.90300113 0 180
0.01450000 0.01448870 69047.80295328 0 -2015.89159252 0 55532.51400006 0 28729.41654301 0 55649.30430392 0 267
0.01550000 0.01550050 65313.50785278 0 -5375.69242806 0 30994.46078378 0 21193.72460048 0 39535.45881770 0 238
0.01650000 0.01653350 85436.71012382 0 -9672.26684905 0 17793.05270419 0 32831.60664628 0 64547.66070351 0 315
0.01750000 0.01747870 81072.87868454 0 -8670.78722061 0 -5615.79465960 0 23662.18139328 0 28375.16371249 0 297
0.01850000 0.01844180 95943.84464075 0 -2537.46622021 0 -6314.46242896 0 -3737.95519549 0 39005.18869160 0 388
0.01950000 0.01947590 92890.43812091 0 4860.89452171 0 -6106.86849568 0 -17017.00165372 0 24299.25974598 0 399
0.02050000 0.02045430 82262.52046921 0 7553.68186398 0 -8410.85392893 0 -11834.63987966 0 14883.49900876 0 462
0.02150000 0.02154770 83494.75245016 0 4225.55748692 0 10199.32052803 0 -2544.50913027 0 9613.89387951 0 571
0.02250000 0.02255340 73740.26655814 0 166.66076182 0 5280.76287338 0 -1724.96949657 0 -6557.44837170 0 510
0.02350000 0.02348930 71039.11645337 0 3113.99772877 0 13530.59480501 0 101.63950701 0 -564.02174753 0 555
0.02450000 0.02439640 70985.98961998 0 1667.16217808 0 3209.21565457 0 -5065.28309907 0 -8900.08662631 0 592
0.02550000 0.02547300 64759.61347719 0 3239.30607189 0 14809.52072511 0 973.66179737 0 4539.54927253 0 837
0.02650000 0.02652900 63904.70401642 0 1523.13189451 0 11533.29205858 0 -1365.65908023 0 -8817.26865870 0 723
0.02750000 0.02749970 61880.56057337 0 1223.61412092 0 13853.01590030 0 4873.00610878 0 5432.62354200 0 826
0.02850000 0.02848090 60451.01619871 0 490.23866895 0 12526.06509741 0 -569.43425164 0 -2462.48972884 0 831
0.02950000 0.02946900 61453.43857889 0 2849.60577592 0 22442.92611276 0 -1571.42296602 0 12727.70305793 0 996
0.03050000 0.03053250 56501.44096545 0 2531.28842351 0 19908.03305024 0 2177.13541375 0 14129.63035219 0 1041
0.03150000 0.03150510 55076.22215761 0 487.96386446 0 25175.02065701 0 6350.14280954 0 14075.17257517 0 1036
0.03250000 0.03246190 56138.53700131 0 -1188.56593856 0 20297.55588706 0 4483.22817443 0 23269.33119737 0 1059
0.03350000 0.03345080 55447.22269552 0 1184.02963901 0 26077.84408860 0 3115.80559388 0 16065.59877950 0 1302
0.03450000 0.03451200 53839.55369788 0 3538.28037683 0 25636.96900991 0 -6281.34411487 0 18309.45883410 0 1339
0.03550000 0.03553350 48764.44379831 0 3414.65789565 0 27676.08556884 0 -3023.03882260 0 8854.47962446 0 1365
0.03650000 0.03647120 44646.94784325 0 3831.09906746 0 33477.66886852 0 -4399.82237338 0 13323.52215799 0 1308
0.03750000 0.03744890 41482.40752999 0 953.97935927 0 31741.67472218 0 4446.03939106 0 2640.65871661 0 1579
0.03850000 0.03847530 43121.90826287 0 -1632.91256190 0 31246.12004253 0 7519.29915344 0 4716.57586702 0 1662
0.03950000 0.03950240 43733.25503866 0 -2159.83314652 0 16536.08735404 0 5681.60982229 0 -84.95779224 0 1683
0.04050000 0.04050350 45184.31633539 0 804.67853891 0 19666.02313283 0 837.97209391 0 -2.44554238 0 1822
0.04150000 0.04152450 44574.96597506 0 575.67748640 0 14157.69108047 0 -2274.70467331 0 -2713.91607246 0 1887
0.04250000 0.04250150 42756.89697131 0 1068.74884705 0 18555.68340635 0 66.28920045 0 -5389.42332988 0 1920
0.04350000 0.04349210 41869.04665560 0 748.45615246 0 14998.84745702 0 -392.91008837 0 -2681.42995660 0 2005
0.04450000 0.04448520 41641.01164635 0 76.24820801 0 15561.72570214 0 2966.67335971 0 -5522.77279079 0 2151
0.04550000 0.04548030 40883.81563069 0 725.75469055 0 16964.76211609 0 2723.01085396 0 -1801.41002594 0 2274
0.04650000 0.04648670 39862.42730373 0 1300.48720697 0 16339.32952018 0 -984.92158052 0 -1561.55180073 0 2311
0.04750000 0.04749250 38278.04981968 0 1837.16804490 0 16782.20101433 0 -134.37096015 0 -1445.81516058 0 2568
0.04850000 0.04851840 35413.19364795 0 494.11060580 0 17630.01210905 0 1968.59872873 0 2962.04833058 0 2493
0.04950000 0.04949480 36119.25924567 0 -1066.03039468 0 11290.06210950 0 5368.20587012 0 957.66829137 0 2644
0.05050000 0.05050630 36992.69100535 0 -413.55967885 0 13011.74861178 0 4025.46120278 0 3170.21900610 0 2829
0.05150000 0.05149060 36743.24998598 0 361.02511538 0 8119.54364108 0 -41.71942641 0 1297.74768132 0 2784
0.05250000 0.05249300 35833.88274820 0 994.37017120 0 9847.10847774 0 -790.05590485 0 3397.22253404 0 3055
0.05350000 0.05348950 34300.41385813 0 1352.76001818 0 8258.87125715 0 -655.66054407 0 1459.76788634 0 3009
0.05450000 0.05448610 33691.06349780 0 2.37380452 0 8752.44061254 0 1409.48039938 0 4301.88710432 0 3336
0.05550000 0.05550870 32713.70722272 0 -382.82375386 0 7770.43712594 0 3838.95163490 0 4540.20365315 0 3349
0.05650000 0.05647670 34196.93299061 0 318.90074937 0 7548.70191655 0 761.63693091 0 7677.94763459 0 3324
0.05750000 0.05747970 32785.91091485 0 227.89858753 0 5997.38729060 0 2088.31710859 0 4094.31535344 0 3639
0.05850000 0.05849280 32611.44638686 0 791.52881581 0 7983.97594078 0 -1908.20716135 0 8286.27760480 0 3846
0.05950000 0.05951020 31636.19743920 0 826.47606827 0 6333.40619334 0 -819.53297898 0 6498.48756872 0 3787
0.06050000 0.06049470 30966.73279141 0 283.89027709 0 11926.91863827 0 -1171.62968082 0 6481.26293986 0 3930
0.06150000 0.06148310 30918.70790862 0 595.85237365 0 8355.49776496 0 -1344.27525252 0 3031.62340904 0 4083
0.06250000 0.06249100 31074.31740180 0 12.35625887 0 13017.62694616 0 16.68093839 0 2418.91241603 0 4303
0.06350000 0.06350600 31116.90759809 0 -500.92725545 0 9258.59847647 0 -295.44064959 0 621.67489838 0 4470
0.06450000 0.06451750 31134.54260123 0 99.46729609 0 9875.39102996 0 1559.52211169 0 -1267.61289921 0 4479
0.06550000 0.06550280 31906.15717292 0 -87.73247698 0 9555.12162688 0 -1773.19402090 0 -2628.94641264 0 4636
0.06650000 0.06648880 31080.30664816 0 806.36994644 0 10229.53294851 0 -199.79349447 0 -2331.01468021 0 4653
0.06750000 0.06749660 30751.23083470 0 483.40205515 0 9711.17476794 0 537.23207042 0 -2704.06708957 0 5220
0.06850000 0.06852730 29141.89815752 0 326.23757615 0 10049.67809880 0 -275.18701484 0 -3054.54891313 0 5029
0.06950000 0.06949320 30455.98317194 0 528.43009652 0 10507.74453276 0 297.48364807 0 -2744.83832955 0 5040
0.07050000 0.07048030 28248.72406728 0 782.83220828 0 11237.71165991 0 -401.63664213 0 -1622.07646248 0 5475
0.07150000 0.07148790 28450.91658764 0 588.15064649 0 11630.22911991 0 532.16893901 0 -2212.27232569 0 5509
0.07250000 0.07249820 26939.85191542 0 718.62859651 0 11954.75754261 0 365.49264951 0 -1118.26993230 0 5916
0.07350000 0.07351270 26126.75626714 0 695.95929906 0 11698.88362902 0 356.66627498 0 -955.22046421 0 5721
0.07450000 0.07449140 25556.89056794 0 398.65089191 0 11656.40434470 0 584.27427316 0 -790.37422221 0 6028
0.07550000 0.07549160 25262.75202488 0 56.72071393 0 11154.86041871 0 1184.45110449 0 715.44985946 0 6183
0.07650000 0.07648840 24361.59227283 0 70.53624158 0 10558.97477147 0 718.22265870 0 -1155.39216849 0 6330
0.07750000 0.07749960 24491.69201303 0 502.00642891 0 9787.82603005 0 -469.89408639 0 854.90391517 0 6583
0.07850000 0.07848650 24108.38024650 0 176.34892236 0 10374.08451834 0 940.51464617 0 -304.69958080 0 6549
0.07950000 0.07947320 23780.08081684 0 57.13741020 0 9493.31038629 0 819.85684193 0 -123.00581063 0 6828
0.08050000 0.08048110 23888.66363496 0 -253.25750024 0 8641.83919657 0 355.66917638 0 -216.70424245 0 7147
0.08150000 0.08149960 23842.52425566 0 173.50513946 0 9246.03215033 0 707.21908221 0 283.63961604 0 7386
0.08250000 0.08250610 23836.75683324 0 297.43817416 0 8332.79408481 0 554.17165552 0 -343.40231255 0 7227
0.08350000 0.08350160 23550.60395198 0 236.76932685 0 8652.06528016 0 -335.67285740 0 975.03599668 0 7798
0.08450000 0.08449610 22757.02881033 0 647.39871147 0 8300.40778972 0 35.32379860 0 1628.59808629 0 7371
0.08550000 0.08548940 21854.09446678 0 762.99449342 0 9791.09793315 0 558.98190763 0 961.04888820 0 8256
0.08650000 0.08650700 21147.25248527 0 435.01892670 0 8855.83275049 0 41.39423251 0 2098.09954430 0 8037
0.08750000 0.08749060 20648.92500638 0 393.51344948 0 9328.94993871 0 754.87019166 0 1409.91295606 0 8155
0.08850000 0.08849210 20239.88166293 0 321.83769833 0 8629.17304966 0 -111.87468538 0 2787.25106668 0 8718
0.08950000 0.08949900 19747.09978252 0 122.05529506 0 8419.08359706 0 225.45741508 0 958.74302836 0 8571
0.09050000 0.09049190 19458.61774990 0 200.97914342 0 7587.53219707 0 424.81391639 0 1038.84032536 0 8932
0.09150000 0.09150830 19568.42059969 0 109.92019465 0 7774.70723677 0 462.86892224 0 -34.56405161 0 9285
0.09250000 0.09250820 19080.62975791 0 -237.28063103 0 6027.88808221 0 854.30277230 0 -202.78922676 0 9204
0.09350000 0.09350330 19226.92264565 0 -224.29505764 0 5445.25641532 0 928.80456044 0 11.20931820 0 9349
0.09450000 0.09448040 19829.72919979 0 67.92637203 0 4455.89946515 0 107.28825362 0 -2021.90302127 0 9564
0.09550000 0.09549270 19028.16839634 0 825.45456903 0 5756.98559675 0 -859.46350624 0 -1681.96892600 0 10155
0.09650000 0.09649430 18097.50606041 0 715.89905294 0 5270.24841867 0 -824.71589532 0 -1101.34809312 0 9913
0.09750000 0.09749140 17196.12448443 0 71.82248769 0 5722.58070381 0 728.68276654 0 -708.66648341 0 10476
0.09850000 0.09850240 17475.95538344 0 -49.54171488 0 5021.81669823 0 1594.33737891 0 -1140.90706528 0 10575
0.09950000 0.09950330 17294.94704924 0 185.24184407 0 4631.83912234 0 917.61354272 0 417.05562413 0 10882
0.10050000 0.10051200 16731.07059639 0 268.89276057 0 4194.69068582 0 888.00781070 0 2044.87289015 0 10875
0.10150000 0.10150300 16154.55017903 0 383.53359047 0 4163.45787521 0 354.92606618 0 1942.82278703 0 11118
0.10250000 0.10250800 16088.11390931 0 451.35958717 0 4334.85014165 0 -295.72680247 0 3299.64218329 0 11575
0.10350000 0.10349800 15524.57019237 0 154.65786849 0 4321.71816447 0 322.88137996 0 3031.00230201 0 11364
0.10450000 0.10450100 15327.70144654 0 -95.40525612 0 4530.01084315 0 500.10317952 0 3552.07782583 0 12093
0.10550000 0.10551000 15699.92201612 0 -198.43149548 0 3477.74462389 0 312.47561898 0 2510.42588205 0 12067
0.10650000 0.10649700 15877.60299123 0 42.97628085 0 3797.33746395 0 85.77942811 0 3246.09388443 0 12054
0.10750000 0.10749900 15982.96936224 0 -31.85646861 0 3291.83398064 0 97.85774159 0 2341.38494936 0 12807
0.10850000 0.10850100 16024.56135079 0 -92.40397822 0 3025.04632925 0 443.85417419 0 2788.93692862 0 12736
0.10950000 0.10950300 15685.94710796 0 167.12326474 0 2884.60959349 0 289.83404953 0 2178.69927252 0 12933
0.11050000 0.11050200 15629.82565140 0 416.83823667 0 3564.79942873 0 -543.59398099 0 1981.40906121 0 13428
0.11150000 0.11150900 14708.92356879 0 629.63283219 0 3857.69575774 0 -643.60995859 0 2595.30681229 0 13453
0.11250000 0.11250000 14191.18649525 0 553.69029757 0 4330.87949315 0 -110.68726183 0 2009.01505041 0 13668
0.11350000 0.11349100 13997.31237260 0 -86.19568073 0 4380.85642659 0 -10.29092272 0 2617.08992310 0 13791
0.11450000 0.11448600 14113.32629267 0 -447.64736355 0 3846.57128720 0 1332.38548939 0 2161.53009965 0 14205
0.11550000 0.11549300 14464.58450002 0 -168.95331223 0 3111.18056475 0 792.93074310 0 2326.33419510 0 14776
0.11650000 0.11649800 14754.73021219 0 86.69445186 0 2673.51084198 0 -293.56180083 0 1686.87123505 0 14553
0.11750000 0.11747300 14192.29561495 0 421.32573495 0 2880.37275626 0 -567.13393739 0 1707.02393991 0 14568
0.11850000 0.11849100 13701.28832605 0 557.99257287 0 3676.74287953 0 -1167.59248513 0 884.51630190 0 16015
0.11950000 0.11950300 13381.41820606 0 400.91460521 0 4870.94314614 0 -741.78479750 0 387.31901599 0 15270
0.12050000 0.12050700 13005.09389361 0 109.30995700 0 4046.03537312 0 189.96669397 0 -355.88989120 0 15999
0.12150000 0.12150000 12866.56484372 0 -60.30228325 0 5066.24803321 0 -82.96159861 0 -236.90685769 0 15670
0.12250000 0.12250700 12886.97264611 0 39.36875813 0 4015.06875124 0 289.36378278 0 -609.79622645 0 16887
0.12350000 0.12352200 12977.80954912 0 23.70854260 0 4739.33500316 0 179.03299202 0 -983.61947399 0 16407
0.12450000 0.12449800 12957.06901082 0 54.68204102 0 4041.52125596 0 65.23886410 0 -932.94601338 0 16306
0.12550000 0.12549900 12806.22873233 0 43.25655539 0 4055.95090319 0 -111.70499006 0 -899.73231500 0 17523
0.12650000 0.12650100 12810.88703504 0 21.21357784 0 3688.46627471 0 255.38146445 0 -868.17342320 0 17154
0.12750000 0.12750600 12800.57222188 0 45.48388956 0 3823.95633663 0 138.19742309 0 -1160.87121978 0 18007
0.12850000 0.12850300 12560.22598401 0 283.08172883 0 3911.12205344 0 98.74437187 0 -1019.81781347 0 17496
0.12950000 0.12949900 12538.04359012 0 74.32743452 0 3945.99277665 0 267.17806153 0 -155.39432396 0 18405
0.13050000 0.13049000 12368.45918878 0 -133.11765489 0 3671.26382824 0 626.92547102 0 -521.00675840 0 18100
0.13150000 0.13148800 12706.74069570 0 -108.81928244 0 3157.59722398 0 624.48318945 0 492.05207965 0 19059
0.13250000 0.13249300 12658.71581291 0 -106.81831960 0 3087.52304166 0 88.50808438 0 -196.79776217 0 18957
0.13350000 0.13349100 12732.47227262 0 200.84050346 0 2887.78167582 0 56.76452416 0 858.68157685 0 19468
0.13450000 0.13450700 12608.69451468 0 52.27691496 0 2806.12828389 0 -28.87726220 0 675.58477027 0 19953
0.13550000 0.13551000 12397.85086069 0 164.33715606 0 3222.83564443 0 -256.23881398 0 399.51378703 0 19956
0.13650000 0.13649900 12389.42155101 0 266.80983379 0 3348.23271712 0 -294.57442711 0 633.37943852 0 19723
0.13750000 0.13749600 11747.24124771 0 285.71145163 0 3624.60316268 0 -154.57912099 0 -178.69471051 0 20946
0.13850000 0.13851100 11601.17018390 0 245.24632868 0 3722.01714548 0 109.32836838 0 1116.90571508 0 20955
0.13950000 0.13949800 11491.58915805 0 50.24534041 0 3837.64287366 0 413.80701254 0 44.92822060 0 20506
0.14050000 0.14048300 11177.59737245 0 165.63149875 0 3748.25891745 0 104.05195326 0 1041.20718679 0 21447
0.14150000 0.14148400 10939.91302185 0 214.96514277 0 3177.92738798 0 371.48855058 0 497.30154317 0 21771
0.14250000 0.14249400 10710.16996826 0 104.49870667 0 3319.45106104 0 129.20911709 0 800.44613815 0 22470
0.14350000 0.14350900 10681.84305126 0 46.52746029 0 2880.16202351 0 251.23335679 0 626.65151845 0 22519
0.14450000 0.14449900 10408.51159367 0 -8.96758765 0 2611.71069258 0 272.55840116 0 620.68778186 0 22218
0.14550000 0.14550500 10640.87216973 0 -44.99576599 0 2279.56261757 0 319.91226654 0 623.98075823 0 23559
0.14650000 0.14650700 10470.41156383 0 78.75736950 0 2134.96668296 0 158.17599616 0 392.85019591 0 23044
0.14750000 0.14750500 10465.40943401 0 151.93941611 0 1987.16539243 0 -397.09479698 0 415.31541532 0 23649
0.14850000 0.14849900 10364.40190340 0 90.08647262 0 2211.58467148 0 29.46553928 0 357.52473363 0 23640
0.14950000 0.14949500 10202.41497197 0 96.74995283 0 2274.52721416 0 44.06399453 0 869.20490452 0 24457
0.15050000 0.15050000 10121.44923425 0 76.48334139 0 2480.03600241 0 251.46294457 0 597.84213438 0 24591
0.15150000 0.15149900 10204.88830889 0 109.46601014 0 2305.62693040 0 37.11036860 0 870.08110907 0 25020
0.15250000 0.15250500 9943.03624014 0 66.22819887 0 2550.85329492 0 65.30884955 0 975.45191656 0 25297
0.15350000 0.15350100 9740.89917576 0 314.10824317 0 2784.43390265 0 -528.95360102 0 1085.00743266 0 25452
0.15450000 0.15450400 9568.50870160 0 238.32874914 0 2795.12581651 0 53.69692091 0 957.92227978 0 26061
0.15550000 0.15549900 9323.14924271 0 -2.05723957 0 3105.82351662 0 212.89330718 0 904.73333570 0 26128
0.15650000 0.15649500 9282.95474497 0 34.90388588 0 2585.24709666 0 154.52921060 0 976.55770890 0 26331
0.15750000 0.15749700 9207.93388881 0 50.53936805 0 2348.67186576 0 401.23624992 0 656.73084458 0 27345
0.15850000 0.15849900 9261.37127570 0 -120.67111368 0 1847.17230454 0 325.33475272 0 833.50234154 0 26980
0.15950000 0.15949700 9186.10641321 0 14.09790953 0 1850.91003792 0 177.32051121 0 509.64826361 0 27777
0.16050000 0.16050000 9282.54437068 0 97.09455632 0 1628.94191339 0 -148.81391681 0 510.47233954 0 28224
0.16150000 0.16150500 9102.48987942 0 258.81418991 0 1675.71349092 0 -374.09720011 0 20.53202379 0 28075
0.16250000 0.16249700 8840.24961878 0 155.87124543 0 1982.35181295 0 -354.47909094 0 -171.56085263 0 28590
0.16350000 0.16349900 8599.37100346 0 52.30830305 0 2147.35554995 0 68.18901157 0 158.61409844 0 29163
0.16450000 0.16449100 8761.36902608 0 3.00045715 0 2146.76771651 0 69.63829828 0 -538.01289068 0 28996
0.16550000 0.16550500 8476.53599725 0 141.17430036 0 2084.24663931 0 -131.72349144 0 -339.46604675 0 30777
0.16650000 0.16650700 8613.91156266 0 170.92199969 0 2330.53775875 0 -238.44520671 0 -452.70827672 0 29211
0.16750000 0.16749900 8318.33116399 0 20.23799616 0 2279.19660807 0 84.96012139 0 -475.49403173 0 30922
0.16850000 0.16850800 8384.72306892 0 53.34266807 0 2446.00821017 0 -61.68779557 0 -620.66449034 0 30867
0.16950000 0.16949900 8400.13983268 0 -20.25308019 0 2260.24175249 0 12.54270189 0 -569.08820629 0 30852
0.17050000 0.17049200 8340.30282514 0 3.07736351 0 2220.53526741 0 176.79367935 0 -966.95827794 0 31257
0.17150000 0.17149500 8472.63189593 0 51.91578559 0 1882.96359710 0 173.37537246 0 -705.87150178 0 32608
0.17250000 0.17250900 8243.62086134 0 2.99778417 0 2023.50015363 0 128.31073013 0 -383.93065532 0 32361
0.17350000 0.17350400 8313.71722605 0 52.48332214 0 1621.33335229 0 266.27301985 0 -485.70236940 0 32508
0.17450000 0.17449800 8271.02720900 0 79.84874328 0 1745.21093100 0 252.57317338 0 -145.38340960 0 32791
0.17550000 0.17549800 8109.16228074 0 173.42971932 0 1633.43384816 0 -89.92642665 0 -1.37520860 0 33633
0.17650000 0.17650100 7960.98388951 0 118.31867080 0 1950.33152736 0 83.17588054 0 712.41419886 0 33984
0.17750000 0.17750300 7802.51286751 0 77.53157041 0 1568.65016678 0 119.25476783 0 119.97458651 0 34069
0.17850000 0.17849800 7787.19592453 0 84.73363915 0 1776.48810639 0 227.27637138 0 824.20570026 0 34536
