### header ###
fiducial parameters:
Omega_m = 0.31
Omega_nu = 0
Omega_de = 0.69
Omega_k = 0
H_0 = 100
w_de = -1
zeff = 0
beta = 0
fgrowth = 0
b_1 = 2
gamma = 0.55
Lx = 3500 Ly = 3500 Lz = 3500
nx = 700 ny = 700 nz = 700
xoffset = 1379.75464 yoffset = 22.6059522 zoffset = 368.141391
bins = 400 dk = 0.001
kx_ny = 0.628318531 ky_ny = 0.628318531 kz_ny = 0.628318531
############################
A(data) = 3.39710484 (not used)
A(ran) = 3.39774296 (used)
Ngal = 190971
weighted Ngal = 0
Nran = 9399747
weighted Nran = 0
SN(data) = 6600.73384
SN(ran) = 135.146527
SN(data+ran) = 6735.88037
############################
13 columns: k_central k_mean P_0(k) sigma^{lin}_{P_0(k)} P^img_1(k) sigma^{lin}_{P_1(k)} P_2(k) sigma^{lin}_{P_2(k)} P^img_3(k) sigma^{lin}_{P_3(k)} P_4(k) sigma^{lin}_{P_4(k)} N_modes
### header ###
0.00050000 0 0 0 0 0 0 0 0 0 0 0 0
0.00150000 0.00179520 30949.20870023 0 -42251.13839047 0 -63945.51962119 0 97077.25405689 0 53532.10571847 0 3
0.00250000 0.00253879 44635.30208646 0 -35621.59723861 0 9943.28024648 0 -95006.30576272 0 -68827.19904598 0 6
0.00350000 0.00331552 67030.31422840 0 -11882.77567442 0 -53094.22526296 0 16816.14007699 0 16517.34323120 0 7
0.00450000 0.00420575 85763.78952183 0 -1362.44263312 0 -1085.00632354 0 -50227.59449972 0 9308.10957964 0 24
0.00550000 0.00557378 73581.32970587 0 19140.07857355 0 26178.21942098 0 -40242.07897527 0 38738.33449303 0 45
0.00650000 0.00659388 71926.63403316 0 15351.43660800 0 79059.16096663 0 23235.61395865 0 -21131.05933772 0 40
0.00750000 0.00754703 46871.50921516 0 8080.99064049 0 55434.91146691 0 25552.67591310 0 21218.34705771 0 57
0.00850000 0.00846663 51562.30914047 0 7426.36601421 0 80723.28415674 0 40501.72389582 0 34670.63801227 0 75
0.00950000 0.00948925 49974.16064945 0 -1749.66959217 0 65538.21550296 0 38159.81766021 0 68379.00377730 0 112
0.01050000 0.01054430 52761.60026648 0 -3168.31132023 0 35990.93409698 0 43842.17059269 0 39127.41368197 0 105
0.01150000 0.01145670 55253.12674893 0 -3956.05249228 0 39725.89466930 0 33431.75131315 0 69359.02193965 0 144
0.01250000 0.01249090 62299.80781801 0 -3344.43952777 0 2381.59053830 0 14525.36425930 0 44447.08447425 0 169
0.01350000 0.01339930 68332.53166209 0 -2178.13362148 0 27749.28746870 0 7132.52693346 0 59628.60394500 0 180
0.01450000 0.01448870 63038.37062280 0 2131.55059430 0 9944.55573412 0 -9376.50899122 0 27321.94365028 0 267
0.01550000 0.01550050 61912.61413255 0 4895.17741148 0 14285.23984537 0 1251.19792773 0 -133.27514989 0 238
0.01650000 0.01653350 55538.28142247 0 928.66148400 0 11812.56839773 0 -3345.27136754 0 12025.40846717 0 315
0.01750000 0.01747870 55478.38895895 0 -710.88694104 0 16410.97865247 0 3103.32799731 0 -4758.02367001 0 297
0.01850000 0.01844180 59132.05105763 0 -3132.14292698 0 4605.78590070 0 3313.23999075 0 -9911.50396722 0 388
0.01950000 0.01947590 58439.62763215 0 1810.21643631 0 2695.82633023 0 -1595.34667784 0 -16978.51520031 0 399
0.02050000 0.02045430 61283.29961771 0 -1220.75259211 0 -69.99909492 0 -4333.57465400 0 -7767.34268199 0 462
0.02150000 0.02154770 56858.02294734 0 -681.52188800 0 -1034.93622403 0 2060.44493066 0 -9345.28727182 0 571
0.02250000 0.02255340 68920.03236444 0 -2790.51187858 0 -1457.48309977 0 9565.73590236 0 -4817.06211137 0 510
0.02350000 0.02348930 62636.64746933 0 -3527.04499432 0 -4658.99037246 0 5654.10365386 0 4567.62109200 0 555
0.02450000 0.02439640 66938.14638176 0 -1291.37024308 0 -10355.45130747 0 5952.98922922 0 -373.93526863 0 592
0.02550000 0.02547300 68499.45417616 0 1690.99716032 0 -7005.49945481 0 -5405.05082638 0 8407.48220506 0 837
0.02650000 0.02652900 69607.79748720 0 302.09758600 0 -9072.64346843 0 -4777.77709178 0 5213.60567586 0 723
0.02750000 0.02749970 63963.82009616 0 2837.98220152 0 9150.17093510 0 -4490.38199646 0 8436.60768824 0 826
0.02850000 0.02848090 63721.92109071 0 2655.28800539 0 -960.74277117 0 -3170.04154695 0 -4324.75715243 0 831
0.02950000 0.02946900 59779.88787138 0 1542.69676592 0 12077.42618086 0 -1596.52234471 0 -484.32484274 0 996
0.03050000 0.03053250 56842.38435964 0 2437.62326528 0 10050.54321216 0 -6944.32041245 0 -6894.98676842 0 1041
0.03150000 0.03150510 53769.79006907 0 3568.68134767 0 15077.37313141 0 -4018.91739658 0 -12411.04938506 0 1036
0.03250000 0.03246190 48832.87648348 0 2812.27280699 0 16122.16388394 0 -6200.92184580 0 -6749.37044369 0 1059
0.03350000 0.03345080 45905.13322506 0 1937.98702516 0 17483.38648539 0 -1574.18467406 0 -23197.90388902 0 1302
0.03450000 0.03451200 46627.39197033 0 985.43953941 0 20396.60027581 0 547.01117877 0 -14297.77289792 0 1339
0.03550000 0.03553350 44542.69059194 0 -1105.82671845 0 11456.54097570 0 6960.25846246 0 -22579.56965916 0 1365
0.03650000 0.03647120 44916.79666500 0 463.01310780 0 17053.26986774 0 -1223.85812725 0 -11970.17430637 0 1308
0.03750000 0.03744890 46442.05806932 0 -807.92825962 0 9786.62818078 0 -707.23571900 0 -18214.07454034 0 1579
0.03850000 0.03847530 45513.61397279 0 64.80231459 0 14678.97733703 0 3378.28986085 0 -9501.38477766 0 1662
0.03950000 0.03950240 46182.85679664 0 755.84288963 0 8267.99931223 0 289.02439215 0 -9724.55075146 0 1683
0.04050000 0.04050350 46276.57741086 0 -457.52851091 0 13444.97076457 0 1113.22343769 0 -9890.37523703 0 1822
0.04150000 0.04152450 45342.58771585 0 845.87678997 0 12287.38253909 0 -832.78806846 0 -4149.89334134 0 1887
0.04250000 0.04250150 44722.03524659 0 1723.66073533 0 15968.10715833 0 345.34659938 0 -7048.99912925 0 1920
0.04350000 0.04349210 43178.91701519 0 893.55008182 0 14480.99947151 0 -1173.31554276 0 77.17986856 0 2005
0.04450000 0.04448520 41301.17737185 0 1131.16899436 0 18615.02131002 0 -408.10170083 0 -907.70466736 0 2151
0.04550000 0.04548030 41174.84863861 0 1292.49045397 0 18832.51968217 0 1410.67824865 0 910.49077604 0 2274
0.04650000 0.04648670 40675.96659988 0 -535.34656694 0 18020.75497753 0 1996.41545068 0 2735.43299454 0 2311
0.04750000 0.04749250 39805.08581551 0 546.88917560 0 18863.79685757 0 2763.34953726 0 2731.66198757 0 2568
0.04850000 0.04851840 40873.83355344 0 664.40817111 0 19095.49196182 0 352.69119000 0 6017.68418102 0 2493
0.04950000 0.04949480 38510.96495559 0 201.02350821 0 16628.80976053 0 1681.75819326 0 2520.39686810 0 2644
0.05050000 0.05050630 39060.86650028 0 -110.80172298 0 15227.32611415 0 1422.34618784 0 7895.19090921 0 2829
0.05150000 0.05149060 39951.04596735 0 -366.77368276 0 13840.59375972 0 1844.38841411 0 738.76910105 0 2784
0.05250000 0.05249300 39794.21644250 0 144.61922613 0 12648.73373566 0 1285.53627348 0 3468.90493992 0 3055
0.05350000 0.05348950 37765.74743264 0 939.51422021 0 11797.48436989 0 483.18688593 0 -2688.40631948 0 3009
0.05450000 0.05448610 37464.84325943 0 1132.42229961 0 10479.14033583 0 -1789.12097972 0 -176.40105098 0 3336
0.05550000 0.05550870 34827.80027302 0 1966.75759004 0 13036.14924506 0 -2734.84516110 0 -5587.82266089 0 3349
0.05650000 0.05647670 32404.92829968 0 1560.25413069 0 13565.53207540 0 -1281.58780737 0 -5388.53603413 0 3324
0.05750000 0.05747970 32320.63520288 0 -269.59039686 0 11663.83544666 0 1813.32197146 0 -9455.86650539 0 3639
0.05850000 0.05849280 32180.99703330 0 -875.98162585 0 10581.40117169 0 1470.73708012 0 -9350.92159986 0 3846
0.05950000 0.05951020 32739.10606373 0 -265.49219959 0 8222.23703363 0 2076.28315990 0 -7587.57656185 0 3787
0.06050000 0.06049470 32972.46484752 0 -2.40530352 0 7519.59861576 0 685.64115854 0 -7041.06892343 0 3930
0.06150000 0.06148310 33567.72938773 0 -156.93378210 0 7074.73070617 0 -108.14305216 0 -6068.89223733 0 4083
0.06250000 0.06249100 33258.83955273 0 519.20554802 0 7718.71887457 0 -352.91523217 0 -6667.32885986 0 4303
0.06350000 0.06350600 32249.65154241 0 814.68168944 0 9360.06074615 0 -1575.22724657 0 -5299.32953707 0 4470
0.06450000 0.06451750 32209.61232142 0 602.13220936 0 9655.14204096 0 -1640.16620470 0 -5150.82950113 0 4479
0.06550000 0.06550280 31668.02917444 0 1.32090610 0 11965.07235577 0 1235.06023617 0 -4377.41815554 0 4636
0.06650000 0.06648880 32034.48232161 0 196.02026926 0 10768.24347548 0 803.64927583 0 -4683.34664096 0 4653
0.06750000 0.06749660 31447.97982699 0 331.56800541 0 11242.25905066 0 1185.39385624 0 -2245.08008626 0 5220
0.06850000 0.06852730 31946.97277769 0 240.78988575 0 10507.73344156 0 895.80603128 0 -1119.62305833 0 5029
0.06950000 0.06949320 30202.99296955 0 1058.64809399 0 12609.35998650 0 -610.07017902 0 -458.26052991 0 5040
0.07050000 0.07048030 29562.47634579 0 698.76648101 0 10273.01044055 0 824.76580570 0 324.90219604 0 5475
0.07150000 0.07148790 28259.81526422 0 107.09537770 0 11537.39580145 0 -3.51795021 0 -312.81500961 0 5509
0.07250000 0.07249820 28482.85923485 0 580.73839957 0 10534.90687409 0 753.95738615 0 -1328.70321200 0 5916
0.07350000 0.07351270 27259.72203540 0 742.20848122 0 9805.28357405 0 -194.33107997 0 -1994.58540318 0 5721
0.07450000 0.07449140 26334.38347401 0 726.74513443 0 11355.38925953 0 -187.33808029 0 -667.94959029 0 6028
0.07550000 0.07549160 25252.54812368 0 496.24233386 0 10266.58863752 0 -652.69032153 0 -1752.96367767 0 6183
0.07650000 0.07648840 25630.20337977 0 317.53320479 0 10589.76393419 0 1221.57334068 0 -2382.63311081 0 6330
0.07750000 0.07749960 24474.27883383 0 187.57321367 0 10415.41031817 0 103.64645910 0 -3026.18872253 0 6583
0.07850000 0.07848650 24778.17763021 0 376.46295242 0 10671.58369408 0 -201.21427680 0 -108.23810372 0 6549
0.07950000 0.07947320 23827.44022781 0 273.64090199 0 9268.11472345 0 1811.52519755 0 -444.30558591 0 6828
0.08050000 0.08048110 24470.17509096 0 -26.61654352 0 10774.96474083 0 488.68701050 0 679.18608192 0 7147
0.08150000 0.08149960 23516.77580129 0 -10.41089620 0 8802.56173155 0 1155.62508363 0 795.13012746 0 7386
0.08250000 0.08250610 24309.24182324 0 296.75162907 0 9919.14580192 0 577.78148646 0 2547.63684781 0 7227
0.08350000 0.08350160 23290.73720748 0 -32.59026220 0 9485.39127167 0 1017.18809068 0 2261.28432500 0 7798
0.08450000 0.08449610 23904.96769447 0 119.20153008 0 9170.98911177 0 588.63865915 0 2931.94682207 0 7371
0.08550000 0.08548940 23250.47616256 0 320.32707730 0 7501.97470381 0 3.63878880 0 1327.01735007 0 8256
0.08650000 0.08650700 22899.55069112 0 552.73645463 0 9847.82940554 0 -1034.00567261 0 2808.59052961 0 8037
0.08750000 0.08749060 21983.19599926 0 645.86590805 0 9069.53793329 0 -397.72366785 0 -793.21911422 0 8155
0.08850000 0.08849210 21729.76214899 0 666.87485331 0 10096.38312915 0 -300.48270772 0 1227.88423174 0 8718
0.08950000 0.08949900 20388.39279007 0 330.12393157 0 9362.91118377 0 265.16279104 0 -548.96544767 0 8571
0.09050000 0.09049190 20565.29738139 0 57.53902244 0 9362.82245419 0 509.56397051 0 479.00550468 0 8932
0.09150000 0.09150830 20123.20227104 0 91.32646844 0 8762.93288485 0 964.34630106 0 -514.31654840 0 9285
0.09250000 0.09250820 19960.05076393 0 128.17098105 0 7554.34733580 0 774.04576206 0 -759.92888658 0 9204
0.09350000 0.09350330 19939.08840170 0 44.39584314 0 6820.23210099 0 730.91653361 0 210.86583638 0 9349
0.09450000 0.09448040 19683.32540007 0 -179.41120183 0 5829.84366950 0 1409.56912895 0 -728.34670327 0 9564
0.09550000 0.09549270 19659.47932663 0 228.44205618 0 5960.34269279 0 18.60015911 0 -244.31799550 0 10155
0.09650000 0.09649430 18689.66506548 0 585.96457157 0 4515.82520226 0 271.70326988 0 -366.91565008 0 9913
0.09750000 0.09749140 18496.45641464 0 382.20486508 0 5574.71286610 0 -124.32011747 0 547.04777972 0 10476
0.09850000 0.09850240 17817.45333747 0 483.34327181 0 4947.76077621 0 -250.39597142 0 -467.88325238 0 10575
0.09950000 0.09950330 17060.92279363 0 540.36533356 0 5793.67527625 0 69.50298568 0 84.67141753 0 10882
0.10050000 0.10051200 16796.17592248 0 192.42228497 0 5595.49776918 0 96.27402957 0 41.72164465 0 10875
0.10150000 0.10150300 16297.29388375 0 -2.67855734 0 4963.59900545 0 598.18928885 0 -810.82638938 0 11118
0.10250000 0.10250800 16702.34439630 0 168.94000280 0 5185.04584372 0 232.01896720 0 306.02165148 0 11575
0.10350000 0.10349800 15874.05380820 0 274.59585404 0 4821.75368768 0 -331.67780826 0 -943.94071691 0 11364
0.10450000 0.10450100 16153.21923539 0 108.29001052 0 4944.15613720 0 -93.77584837 0 -187.61203286 0 12093
0.10550000 0.10551000 15682.61974888 0 93.78272492 0 4740.81013235 0 -104.92394316 0 -924.84500313 0 12067
0.10650000 0.10649700 15676.07594268 0 85.00271159 0 4893.51373193 0 140.21491182 0 -1379.73380916 0 12054
0.10750000 0.10749900 15695.37462537 0 22.77865664 0 4564.36028010 0 203.22511080 0 -933.63699495 0 12807
0.10850000 0.10850100 15876.16113562 0 62.60315205 0 4976.97498897 0 228.27790647 0 -1781.32386826 0 12736
0.10950000 0.10950300 15326.92506275 0 321.67909421 0 4610.07819392 0 -340.48976423 0 -1058.83775346 0 12933
0.11050000 0.11050200 15058.73992054 0 488.10805002 0 5256.58406403 0 -741.34891346 0 -2205.41796597 0 13428
0.11150000 0.11150900 14752.73379674 0 186.84563115 0 6516.99877643 0 37.78449156 0 159.36608159 0 13453
0.11250000 0.11250000 14627.29235925 0 -218.01300369 0 5388.32530139 0 1166.97137810 0 -1282.06472884 0 13668
0.11350000 0.11349100 15298.42068659 0 -407.99744358 0 5082.76282546 0 1085.72725134 0 789.79193437 0 13791
0.11450000 0.11448600 15373.28626599 0 -124.70276377 0 4328.05123792 0 535.12252476 0 -549.29596534 0 14205
0.11550000 0.11549300 15639.03134487 0 162.85759039 0 4459.75920168 0 122.89600778 0 1194.63282329 0 14776
0.11650000 0.11649800 14936.18219426 0 411.79396029 0 4829.55079913 0 -862.97719743 0 538.40995553 0 14553
0.11750000 0.11747300 14680.75192855 0 424.08966123 0 4714.57945157 0 -369.45331594 0 430.12549061 0 14568
0.11850000 0.11849100 14249.52619120 0 322.72499408 0 6108.69854317 0 -459.89537234 0 273.79950610 0 16015
0.11950000 0.11950300 13921.78132138 0 260.65421948 0 5326.35878404 0 165.20781502 0 -406.62657164 0 15270
0.12050000 0.12050700 13617.21705318 0 53.58013060 0 6038.14743938 0 790.49844361 0 685.98942213 0 15999
0.12150000 0.12150000 13566.19754722 0 -85.29097180 0 4842.08385169 0 428.28324280 0 -321.22768249 0 15670
0.12250000 0.12250700 13826.61885156 0 -48.33942913 0 5015.81636068 0 666.02637674 0 1058.22219203 0 16887
0.12350000 0.12352200 13446.19079624 0 139.45960131 0 4410.13718654 0 -144.72237426 0 413.75155655 0 16407
0.12450000 0.12449800 13529.15294941 0 355.44069772 0 4920.66498206 0 -321.05133246 0 1103.80701148 0 16306
0.12550000 0.12549900 12972.15303867 0 309.91687985 0 4819.12507400 0 -536.77622222 0 -125.85957561 0 17523
0.12650000 0.12650100 12967.71655989 0 236.92682185 0 5941.84257628 0 -93.89430236 0 734.52782733 0 17154
0.12750000 0.12750600 12458.51970800 0 155.08709781 0 5712.53207938 0 -74.99468093 0 -51.63761837 0 18007
0.12850000 0.12850300 12466.50536980 0 39.99452346 0 5526.15560586 0 226.27150894 0 222.82214669 0 17496
0.12950000 0.12949900 12451.53225392 0 33.08248952 0 5720.60647076 0 304.23485965 0 204.51501701 0 18405
0.13050000 0.13049000 12493.01333051 0 19.76573299 0 5005.04680845 0 592.01703774 0 502.39462080 0 18100
0.13150000 0.13148800 12150.18443284 0 82.62498079 0 5175.24122562 0 422.61564116 0 484.01872570 0 19059
0.13250000 0.13249300 12210.18780833 0 218.41228678 0 4880.85867622 0 -15.84532761 0 500.82965292 0 18957
0.13350000 0.13349100 11937.12253946 0 65.92729469 0 4666.35492724 0 131.47726686 0 275.86468697 0 19468
0.13450000 0.13450700 11728.27530093 0 147.79019934 0 4879.79392131 0 -70.62053468 0 947.11501748 0 19953
0.13550000 0.13551000 11746.46486392 0 29.31270259 0 4374.94481862 0 315.21847199 0 229.92162186 0 19956
0.13650000 0.13649900 11719.84599125 0 -67.89653671 0 4484.69221242 0 199.86447813 0 601.27042336 0 19723
0.13750000 0.13749600 11847.17293221 0 -50.46838439 0 4021.25763914 0 500.01666818 0 308.59259093 0 20946
0.13850000 0.13851100 11852.71853069 0 -20.87729275 0 4116.13173783 0 272.82569901 0 1040.52507818 0 20955
0.13950000 0.13949800 11930.80055720 0 -6.14705190 0 3363.92676081 0 333.90159325 0 882.67516321 0 20506
0.14050000 0.14048300 11912.50008224 0 -60.61028579 0 3608.46547112 0 439.88352568 0 1535.64276466 0 21447
0.14150000 0.14148400 11703.54193173 0 256.48060207 0 3535.54085118 0 53.31804562 0 1100.23010047 0 21771
0.14250000 0.14249400 11429.58936711 0 291.90255776 0 3266.01367415 0 -88.56653499 0 1438.55042658 0 22470
0.14350000 0.14350900 11154.41677083 0 278.68406924 0 3707.12166797 0 -319.09262708 0 996.26122028 0 22519
0.14450000 0.14449900 10853.26859129 0 236.04396257 0 3346.41376082 0 45.89359838 0 1330.79944823 0 22218
0.14550000 0.14550500 10434.44281213 0 72.24728054 0 3631.22460726 0 135.75846889 0 1022.67934229 0 23559
0.14650000 0.14650700 10536.64819201 0 -0.48905635 0 2963.02435591 0 237.20077441 0 254.38214761 0 23044
0.14750000 0.14750500 10356.24987365 0 111.26134219 0 3199.17812134 0 5.09467477 0 203.46135330 0 23649
0.14850000 0.14849900 10173.95496060 0 237.72095155 0 2686.96446387 0 -22.78575501 0 153.40567235 0 23640
0.14950000 0.14949500 10044.34323307 0 129.07491360 0 2662.34200665 0 116.79917682 0 154.66452320 0 24457
0.15050000 0.15050000 9705.99517897 0 139.27770568 0 2735.54390651 0 37.45619213 0 -393.63101617 0 24591
0.15150000 0.15149900 9658.52485603 0 138.96049744 0 2855.43974552 0 1.55164736 0 484.90491234 0 25020
0.15250000 0.15250500 9506.05417158 0 -26.51150989 0 2494.06636655 0 518.01546259 0 143.35372056 0 25297
0.15350000 0.15350100 9641.22258879 0 -66.70168206 0 2169.89286215 0 307.74300524 0 351.14507714 0 25452
0.15450000 0.15450400 9688.52654377 0 -105.39021708 0 1857.67566805 0 437.84163633 0 438.14442600 0 26061
0.15550000 0.15549900 9900.39058788 0 -11.34895637 0 1885.22620127 0 132.02406287 0 927.08764315 0 26128
0.15650000 0.15649500 9690.52295922 0 81.75365635 0 1673.79471385 0 -90.54919736 0 860.99076406 0 26331
0.15750000 0.15749700 9650.81647415 0 105.43103269 0 1702.94237943 0 159.54464986 0 1193.14660290 0 27345
0.15850000 0.15849900 9651.60394913 0 7.38062592 0 2147.45537072 0 -103.70302420 0 1337.94217906 0 26980
0.15950000 0.15949700 9587.66319872 0 106.35637125 0 2059.60199969 0 54.52077501 0 1012.90467042 0 27777
0.16050000 0.16050000 9551.40607590 0 162.52263624 0 2348.39458583 0 -103.03134131 0 1620.40169174 0 28224
0.16150000 0.16150500 9240.29800150 0 133.50141031 0 2295.34539083 0 -159.12983909 0 1102.05682061 0 28075
0.16250000 0.16249700 9334.27371325 0 59.54098349 0 2578.62565208 0 41.27522397 0 1349.34392952 0 28590
0.16350000 0.16349900 9248.71621999 0 88.46959793 0 2530.25694219 0 32.10102950 0 1303.57055972 0 29163
0.16450000 0.16449100 8825.59814761 0 288.82142325 0 2864.85617173 0 -325.26598730 0 766.83204756 0 28996
0.16550000 0.16550500 8755.57942128 0 162.20875537 0 2633.77108331 0 -79.67904796 0 952.50644831 0 30777
0.16650000 0.16650700 8537.70394842 0 49.99667578 0 2931.05952631 0 165.96534377 0 514.52284467 0 29211
0.16750000 0.16749900 8462.18398840 0 148.57656520 0 2756.21789762 0 -14.40424839 0 861.50095912 0 30922
0.16850000 0.16850800 8312.17554968 0 60.73217804 0 2378.11899365 0 228.75815530 0 692.58535695 0 30867
0.16950000 0.16949900 8242.61156242 0 -7.56886571 0 2253.60921671 0 463.98469665 0 1042.70006190 0 30852
0.17050000 0.17049200 8230.43342817 0 -8.72278275 0 1911.50124684 0 241.21467859 0 788.81479992 0 31257
0.17150000 0.17149500 8267.11201648 0 -30.60327427 0 1915.44971296 0 99.95253595 0 730.17342341 0 32608
0.17250000 0.17250900 8210.90183034 0 125.29170633 0 1680.74889434 0 -63.61932752 0 444.79138033 0 32361
0.17350000 0.17350400 8026.86559938 0 182.83172697 0 1910.18139441 0 -434.42554767 0 273.35142175 0 32508
0.17450000 0.17449800 7817.88526648 0 153.78277305 0 2003.04798646 0 -87.24080422 0 330.63523574 0 32791
0.17550000 0.17549800 7839.50200934 0 98.04041360 0 2077.58082995 0 -44.93143704 0 -292.49482768 0 33633
0.17650000 0.17650100 7670.67180939 0 72.50348719 0 1951.07463756 0 141.06338839 0 -14.30908592 0 33984
0.17750000 0.17750300 7556.23283928 0 -56.05313478 0 1986.03409034 0 141.16099092 0 -226.90037981 0 34069
0.17850000 0.17849800 7835.88627913 0 -13.80776382 0 1723.47218498 0 122.08856865 0 160.05151756 0 34536
