### header ###
fiducial parameters:
Omega_m = 0.31
Omega_nu = 0
Omega_de = 0.69
Omega_k = 0
H_0 = 100
w_de = -1
zeff = 0
beta = 0
fgrowth = 0
b_1 = 2
gamma = 0.55
Lx = 3500 Ly = 3500 Lz = 3500
nx = 700 ny = 700 nz = 700
xoffset = 1379.75464 yoffset = 22.6059522 zoffset = 368.141391
bins = 400 dk = 0.001
kx_ny = 0.628318531 ky_ny = 0.628318531 kz_ny = 0.628318531
############################
A(data) = 3.27980298 (not used)
A(ran) = 3.28503247 (used)
Ngal = 184760
weighted Ngal = 0
Nran = 9399747
weighted Nran = 0
SN(data) = 6692.26816
SN(ran) = 130.663424
SN(data+ran) = 6822.93158
############################
13 columns: k_central k_mean P_0(k) sigma^{lin}_{P_0(k)} P^img_1(k) sigma^{lin}_{P_1(k)} P_2(k) sigma^{lin}_{P_2(k)} P^img_3(k) sigma^{lin}_{P_3(k)} P_4(k) sigma^{lin}_{P_4(k)} N_modes
### header ###
0.00050000 0 0 0 0 0 0 0 0 0 0 0 0
0.00150000 0.00179520 60350.64086633 0 -38484.78973079 0 -74435.90643073 0 89649.81219657 0 -67084.10653360 0 3
0.00250000 0.00253879 111376.69063436 0 -38549.34049703 0 -22637.68753117 0 -71499.06839081 0 85603.85446183 0 6
0.00350000 0.00331552 114717.35915516 0 -11967.84515501 0 -62263.31778005 0 -38112.45824924 0 -2941.71816658 0 7
0.00450000 0.00420575 110017.35353638 0 13141.40470410 0 -23260.56915178 0 -73541.29048488 0 21270.69750730 0 24
0.00550000 0.00557378 79986.82867937 0 16304.39224980 0 4443.69914850 0 -34135.48775951 0 307.39585078 0 45
0.00650000 0.00659388 57604.46050195 0 17476.62085525 0 18117.91386280 0 15102.77197243 0 -13443.52890897 0 40
0.00750000 0.00754703 51108.67918529 0 3152.48418218 0 20281.58456346 0 14932.18936336 0 13437.42875065 0 57
0.00850000 0.00846663 41808.37780829 0 3727.07473128 0 20574.17033895 0 26253.75047220 0 13877.41653359 0 75
0.00950000 0.00948925 44905.92729199 0 -492.64434957 0 26707.15860344 0 20683.41862889 0 23640.77538317 0 112
0.01050000 0.01054430 52362.76082422 0 -7105.06512982 0 5796.38152831 0 18773.84725032 0 27380.06152229 0 105
0.01150000 0.01145670 51765.94351644 0 -1873.61371807 0 11298.15868328 0 3697.53887381 0 47845.98177903 0 144
0.01250000 0.01249090 60391.23464716 0 230.36748797 0 12686.88745316 0 3770.15294023 0 37377.00097960 0 169
0.01350000 0.01339930 60150.99932127 0 1433.24883444 0 13881.85301236 0 4634.58973918 0 48488.38390627 0 180
0.01450000 0.01448870 60936.47788914 0 -2368.66929385 0 25128.88127771 0 20719.46501897 0 61835.08666588 0 267
0.01550000 0.01550050 57878.85671445 0 -926.16152820 0 10655.52364090 0 16197.14037531 0 26172.67382251 0 238
0.01650000 0.01653350 69173.57712667 0 -4073.26426163 0 23050.16914567 0 12292.15175378 0 57903.47917168 0 315
0.01750000 0.01747870 67973.62052885 0 -1138.52245793 0 9220.06765827 0 -1837.29004806 0 25497.55266427 0 297
0.01850000 0.01844180 66119.83787092 0 8675.74498564 0 29823.34129801 0 -22027.22805114 0 51197.85240875 0 388
0.01950000 0.01947590 64963.58058907 0 4294.23417843 0 39100.79480929 0 -7164.55831025 0 15682.06518903 0 399
0.02050000 0.02045430 60139.46447644 0 1371.20467871 0 46301.53260399 0 -3956.04140108 0 20612.54588039 0 462
0.02150000 0.02154770 63279.38233248 0 -2847.56499568 0 44891.84147187 0 7414.62043664 0 7205.66228614 0 571
0.02250000 0.02255340 70279.36946241 0 -5421.59889223 0 40448.48615047 0 14637.93990833 0 3681.97792449 0 510
0.02350000 0.02348930 78400.67660381 0 -2111.00969755 0 39378.74020482 0 13993.20862973 0 18332.63943572 0 555
0.02450000 0.02439640 73102.30090967 0 586.22188734 0 23471.30189380 0 8863.64095314 0 3049.56896570 0 592
0.02550000 0.02547300 74246.69061079 0 2476.13190108 0 26691.40910378 0 9041.63248177 0 31829.07335413 0 837
0.02650000 0.02652900 70071.85316751 0 2296.06631863 0 20776.58468326 0 3803.75926698 0 18035.50626947 0 723
0.02750000 0.02749970 67059.81681228 0 2044.52906304 0 18960.17935905 0 9234.07584002 0 39557.53029962 0 826
0.02850000 0.02848090 62750.88679790 0 -204.65254785 0 13330.39870010 0 7079.82156557 0 26960.59245371 0 831
0.02950000 0.02946900 64061.64445324 0 -492.27057623 0 8764.04200455 0 7636.99893546 0 31129.55156261 0 996
0.03050000 0.03053250 64119.87323722 0 -97.43450151 0 2408.78615321 0 3618.44754837 0 22787.30777800 0 1041
0.03150000 0.03150510 60241.94713624 0 2722.16792299 0 4979.54814666 0 -8440.47851598 0 11084.45350048 0 1036
0.03250000 0.03246190 55879.55755257 0 5751.66182221 0 4950.07883637 0 -7169.98190556 0 18399.85208922 0 1059
0.03350000 0.03345080 53576.24868233 0 1347.84661794 0 10519.73411666 0 -2931.63626855 0 1374.45439941 0 1302
0.03450000 0.03451200 53027.23443339 0 -334.18663701 0 14267.82666616 0 -76.63340528 0 4057.93622745 0 1339
0.03550000 0.03553350 50305.34379033 0 920.95642948 0 9897.67324462 0 1008.60350424 0 -10358.53466022 0 1365
0.03650000 0.03647120 50298.24542428 0 873.53934428 0 13299.23243667 0 -1888.86411387 0 1668.55966889 0 1308
0.03750000 0.03744890 49014.66120146 0 1484.35706997 0 11407.62879716 0 -2072.01304908 0 -10939.03681729 0 1579
0.03850000 0.03847530 48978.39298744 0 1622.94157584 0 15623.50366914 0 -2939.95466626 0 -6373.02394884 0 1662
0.03950000 0.03950240 44754.64336562 0 105.52120412 0 13042.91487520 0 386.65687153 0 -9832.20190904 0 1683
0.04050000 0.04050350 46504.05786026 0 716.94717105 0 15632.93118655 0 269.07132884 0 -7528.31629656 0 1822
0.04150000 0.04152450 47491.83986047 0 -629.19694815 0 9848.16214145 0 3535.14156809 0 -13925.77415228 0 1887
0.04250000 0.04250150 44597.48110486 0 807.69534448 0 14473.01380971 0 -82.70694473 0 -10317.92978819 0 1920
0.04350000 0.04349210 42499.47029014 0 3506.61500954 0 12854.36452708 0 -5738.66293939 0 -8039.98648537 0 2005
0.04450000 0.04448520 41819.46900524 0 970.38656692 0 16957.10919020 0 767.88903863 0 -10280.63009285 0 2151
0.04550000 0.04548030 40639.92020980 0 -171.72722059 0 17820.66978459 0 -509.23678020 0 -7929.47379898 0 2274
0.04650000 0.04648670 39341.36287110 0 1305.76661671 0 15280.67477147 0 603.61288415 0 -10751.92832477 0 2311
0.04750000 0.04749250 39198.61916638 0 357.30623705 0 17330.77161538 0 2936.67167197 0 -4438.73029227 0 2568
0.04850000 0.04851840 38702.62083885 0 -968.29698541 0 15274.57461315 0 2374.93582013 0 -4483.93801103 0 2493
0.04950000 0.04949480 39678.86799424 0 625.91728122 0 12341.95122807 0 4800.80241664 0 -1123.59370684 0 2644
0.05050000 0.05050630 39405.35907749 0 366.61396953 0 11142.77101403 0 2350.60173402 0 1650.94684814 0 2829
0.05150000 0.05149060 36593.62973915 0 149.04572283 0 9516.12497841 0 2435.46048188 0 2814.96796785 0 2784
0.05250000 0.05249300 37890.96704618 0 641.22424213 0 8839.35123182 0 1249.36788023 0 6676.66764769 0 3055
0.05350000 0.05348950 35114.50771413 0 540.78125344 0 8090.70652902 0 83.11388075 0 2855.10700961 0 3009
0.05450000 0.05448610 37073.54583110 0 -320.65315849 0 7522.84833646 0 1425.67354692 0 7315.25440318 0 3336
0.05550000 0.05550870 35339.88083612 0 -374.53308415 0 7120.19352246 0 316.40079358 0 1686.27231042 0 3349
0.05650000 0.05647670 36701.54708545 0 27.46546374 0 5289.61364855 0 1057.99482249 0 3356.22947012 0 3324
0.05750000 0.05747970 36521.98060686 0 644.44290748 0 7260.54152864 0 -589.57697442 0 930.98841712 0 3639
0.05850000 0.05849280 35085.67060207 0 810.22191914 0 4397.81486673 0 -1656.96936808 0 522.24231774 0 3846
0.05950000 0.05951020 34352.54248379 0 1093.47223417 0 9884.48581145 0 -574.28443206 0 1681.22581581 0 3787
0.06050000 0.06049470 32341.37574117 0 1270.38569845 0 9711.91787814 0 -2439.61968073 0 -1359.31491558 0 3930
0.06150000 0.06148310 32063.98490549 0 1018.59445445 0 10296.24649816 0 -196.39182436 0 329.22776285 0 4083
0.06250000 0.06249100 30679.47079045 0 961.24409327 0 11987.14383770 0 186.79128428 0 -582.35771432 0 4303
0.06350000 0.06350600 29218.98197631 0 1009.58174781 0 12908.71139213 0 -1013.24627928 0 998.70461096 0 4470
0.06450000 0.06451750 28918.07780310 0 616.57405691 0 14486.32324604 0 -360.76669049 0 -1095.99659059 0 4479
0.06550000 0.06550280 27881.71636026 0 444.14254531 0 14549.98671653 0 720.38100562 0 -366.10266535 0 4636
0.06650000 0.06648880 27054.75671580 0 779.83647599 0 14807.96795754 0 -64.33581884 0 305.28963248 0 4653
0.06750000 0.06749660 26583.15902156 0 602.14884616 0 14610.98829974 0 714.79326060 0 636.44615448 0 5220
0.06850000 0.06852730 27185.74375176 0 -703.88063193 0 14758.05757127 0 3204.42425749 0 3724.72339753 0 5029
0.06950000 0.06949320 26245.87572237 0 -936.55730710 0 11060.45215028 0 2898.76196080 0 -317.55316894 0 5040
0.07050000 0.07048030 28223.99069808 0 145.85478547 0 10087.95381947 0 1461.78648418 0 3846.20527770 0 5475
0.07150000 0.07148790 27137.38613306 0 163.80699685 0 9473.70115008 0 222.26315036 0 2440.36279093 0 5509
0.07250000 0.07249820 26487.10925599 0 1202.75157946 0 9534.31454140 0 -886.77114224 0 2082.30567985 0 5916
0.07350000 0.07351270 24974.15908028 0 773.37696288 0 10400.09337518 0 -1270.17496571 0 546.43776389 0 5721
0.07450000 0.07449140 24141.65383735 0 654.40723882 0 9908.63134721 0 -432.62433728 0 -802.92612979 0 6028
0.07550000 0.07549160 23375.80668807 0 508.04780389 0 9997.03927808 0 218.49657988 0 -799.19505114 0 6183
0.07650000 0.07648840 23029.65043132 0 187.15507554 0 9974.32450673 0 238.02485035 0 -2909.39841867 0 6330
0.07750000 0.07749960 22983.28922808 0 -143.64430992 0 8673.84839096 0 1388.61785792 0 -1090.34229839 0 6583
0.07850000 0.07848650 23023.32844906 0 -483.47192969 0 7376.53326632 0 1233.15255029 0 -3469.18221984 0 6549
0.07950000 0.07947320 23411.07669437 0 -216.14968261 0 5687.70998061 0 1441.67814412 0 -2032.00710169 0 6828
0.08050000 0.08048110 23089.76471878 0 439.57629953 0 6379.45684307 0 -156.80623333 0 -2881.41532877 0 7147
0.08150000 0.08149960 22519.45537170 0 821.93200488 0 6168.48009472 0 -793.10043842 0 -1363.21901691 0 7386
0.08250000 0.08250610 21637.03974250 0 420.77228422 0 7213.59249196 0 -468.58643427 0 -2431.31237422 0 7227
0.08350000 0.08350160 21572.26715232 0 115.81538765 0 6127.16538609 0 1059.36791267 0 -1020.33244501 0 7798
0.08450000 0.08449610 21213.68875499 0 79.46276962 0 6744.60122900 0 694.75035860 0 -994.56981274 0 7371
0.08550000 0.08548940 21254.28253582 0 277.55498539 0 6077.74301249 0 346.72190780 0 -950.57879829 0 8256
0.08650000 0.08650700 20657.46522803 0 228.57958703 0 5809.71314704 0 198.03775799 0 306.28784020 0 8037
0.08750000 0.08749060 20335.93142851 0 487.31392031 0 6493.69617164 0 -429.57314900 0 59.63359498 0 8155
0.08850000 0.08849210 20199.95335392 0 143.59994513 0 6192.40380654 0 -56.18489820 0 757.28141787 0 8718
0.08950000 0.08949900 19782.59161276 0 191.31427440 0 7168.45132038 0 142.46087920 0 -1025.98784634 0 8571
0.09050000 0.09049190 19618.66372186 0 163.99776544 0 5613.13277233 0 44.01120043 0 -920.44290706 0 8932
0.09150000 0.09150830 19469.04347503 0 -31.24146174 0 6171.68545064 0 557.17626077 0 -851.18947331 0 9285
0.09250000 0.09250820 19010.31156925 0 145.22591460 0 5628.19461778 0 1035.00831681 0 -371.64382734 0 9204
0.09350000 0.09350330 19343.15838967 0 129.87569802 0 5361.99479983 0 612.67882854 0 -533.69730595 0 9349
0.09450000 0.09448040 18801.79706663 0 285.71588810 0 5150.13075573 0 -20.60067830 0 -312.93812189 0 9564
0.09550000 0.09549270 18355.37638946 0 428.78012842 0 5133.93760818 0 238.61157467 0 664.71317902 0 10155
0.09650000 0.09649430 17845.73588969 0 119.64961444 0 4639.08167394 0 -322.66066514 0 -126.82118238 0 9913
0.09750000 0.09749140 17859.04532603 0 125.28061513 0 5244.32829141 0 181.29115972 0 861.27802606 0 10476
0.09850000 0.09850240 17856.16161482 0 212.20121649 0 5166.82300713 0 -642.17919418 0 -1302.31725446 0 10575
0.09950000 0.09950330 17253.68779659 0 506.93979331 0 5670.33007499 0 -358.49299512 0 -471.75408012 0 10882
0.10050000 0.10051200 16733.39974775 0 415.17677536 0 5546.68541141 0 -310.99494419 0 -1045.29207462 0 10875
0.10150000 0.10150300 16020.45760792 0 289.23401578 0 7079.43337367 0 -31.50864867 0 -1671.52101848 0 11118
0.10250000 0.10250800 16373.82314269 0 -49.96284763 0 5356.19410383 0 174.00535244 0 -1193.80098352 0 11575
0.10350000 0.10349800 16074.91538494 0 -70.22346983 0 5783.30500711 0 1082.47642151 0 -2205.95034343 0 11364
0.10450000 0.10450100 16088.11390931 0 -42.63212101 0 4577.29261574 0 -31.91813567 0 -1238.60941919 0 12093
0.10550000 0.10551000 16240.72877931 0 20.93718522 0 4673.23146935 0 523.73741109 0 -2142.51978808 0 12067
0.10650000 0.10649700 16012.47194612 0 233.32661932 0 3750.74334557 0 -37.61446351 0 -1895.75174718 0 12054
0.10750000 0.10749900 15749.94331435 0 175.08674414 0 3807.86300985 0 -92.23517021 0 -1501.50406046 0 12807
0.10850000 0.10850100 15227.10429021 0 136.17549789 0 3996.67954670 0 887.12606054 0 -1106.14836316 0 12736
0.10950000 0.10950300 15570.82048364 0 112.26731375 0 3540.05496834 0 533.38453420 0 -1074.81351354 0 12933
0.11050000 0.11050200 15058.07444872 0 59.74495060 0 2787.98308568 0 371.39760277 0 -890.26930576 0 13428
0.11150000 0.11150900 14897.69574085 0 325.98026039 0 3457.93574614 0 199.65707274 0 536.25493597 0 13453
0.11250000 0.11250000 14392.71354380 0 560.50583810 0 3726.52017144 0 -879.47202553 0 -938.78663769 0 13668
0.11350000 0.11349100 13871.64911117 0 400.96895207 0 4059.10080313 0 -380.95710542 0 92.30693025 0 13791
0.11450000 0.11448600 13382.30550182 0 339.33849799 0 4786.01785111 0 -186.48073077 0 428.50839409 0 14205
0.11550000 0.11549300 13213.94113214 0 81.14641332 0 4499.67641950 0 678.23556634 0 656.53785775 0 14776
0.11650000 0.11649800 13321.63665451 0 -102.71779318 0 4489.91616619 0 883.57244104 0 995.56802047 0 14553
0.11750000 0.11747300 13173.79099919 0 -94.63397428 0 4156.15986762 0 355.31869455 0 1028.40239991 0 14568
0.11850000 0.11849100 13532.36939653 0 114.52659057 0 3712.80036081 0 14.30010205 0 1583.75637702 0 16015
0.11950000 0.11950300 13168.46722466 0 137.84805039 0 4439.75068239 0 -204.23108237 0 1366.40219043 0 15270
0.12050000 0.12050700 12933.88840920 0 299.04972508 0 4019.77141875 0 -440.95271707 0 1162.70126728 0 15999
0.12150000 0.12150000 12676.90537591 0 304.59754179 0 4582.43893113 0 -369.55313672 0 528.26040121 0 15670
0.12250000 0.12250700 12349.60415397 0 269.93311485 0 4796.41030265 0 23.18481628 0 980.80563733 0 16887
0.12350000 0.12352200 12189.00362216 0 -38.00354270 0 4859.17538618 0 489.54990562 0 741.80032517 0 16407
0.12450000 0.12449800 12180.13066460 0 -200.96250662 0 4108.14607603 0 878.21317468 0 1394.66256025 0 16306
0.12550000 0.12549900 12600.48702894 0 -116.39545725 0 4145.55668334 0 415.25219550 0 1297.92514047 0 17523
0.12650000 0.12650100 12479.92571811 0 -78.14136442 0 3431.13941431 0 228.44316530 0 1832.48755979 0 17154
0.12750000 0.12750600 12702.96968874 0 50.32630615 0 3609.33058448 0 154.43160807 0 1825.28937297 0 18007
0.12850000 0.12850300 13019.17971373 0 -113.02262426 0 3434.62205015 0 45.73022505 0 1455.46450192 0 17496
0.12950000 0.12949900 12703.52424859 0 18.34018145 0 3289.75992681 0 280.90341775 0 1742.19412543 0 18405
0.13050000 0.13049000 13013.85593920 0 34.91697350 0 3100.58847166 0 -251.48290872 0 1091.04769851 0 18100
0.13150000 0.13148800 12748.99815607 0 136.19546205 0 2879.19708938 0 -207.66713518 0 673.27558307 0 19059
0.13250000 0.13249300 12325.42534462 0 425.53373507 0 3777.48422141 0 -475.40973863 0 404.70890368 0 18957
0.13350000 0.13349100 12044.81806183 0 234.08525719 0 3230.02274005 0 -407.05247360 0 9.26306823 0 19468
0.13450000 0.13450700 11881.22290684 0 -73.88855586 0 3471.67773916 0 690.34937165 0 -462.51511306 0 19953
0.13550000 0.13551000 11987.25474967 0 -104.64023034 0 2636.31096741 0 712.13359157 0 -728.57296369 0 19956
0.13650000 0.13649900 11813.45569349 0 96.20415503 0 2407.36648001 0 58.68263576 0 -939.83364668 0 19723
0.13750000 0.13749600 11706.98020279 0 229.00659811 0 2162.30648343 0 -14.69505957 0 -1088.34921030 0 20946
0.13850000 0.13851100 11324.55573201 0 145.94462416 0 2307.80080500 0 -280.47307931 0 -755.83734403 0 20955
0.13950000 0.13949800 11371.36058313 0 144.15561410 0 2320.61113748 0 -232.32397512 0 -1662.86988486 0 20506
0.14050000 0.14048300 11032.79070509 0 182.81176282 0 2446.40749326 0 -264.74132556 0 -1404.70009349 0 21447
0.14150000 0.14148400 10806.64119932 0 319.59616742 0 2857.24761062 0 -436.23563101 0 -1940.19417335 0 21771
0.14250000 0.14249400 10542.14942569 0 206.82309509 0 3297.51267348 0 -115.47156055 0 -1246.04052115 0 22470
0.14350000 0.14350900 10305.20818529 0 201.98844234 0 3429.17627245 0 -49.04826753 0 -1605.50621424 0 22519
0.14450000 0.14449900 10197.84539883 0 49.19733322 0 3571.78688281 0 462.49847626 0 -621.84681194 0 22218
0.14550000 0.14550500 10151.89456987 0 86.05837171 0 3243.76473307 0 220.45306702 0 -500.79527020 0 23559
0.14650000 0.14650700 10102.12836917 0 -91.23529880 0 3348.47672346 0 695.51454207 0 399.87979653 0 23044
0.14750000 0.14750500 10145.73895557 0 -26.56585675 0 3027.79694609 0 486.69503152 0 761.73675169 0 23649
0.14850000 0.14849900 10360.27597814 0 9.59284279 0 2695.95942460 0 70.55986583 0 850.87781068 0 23640
0.14950000 0.14949500 9940.32998809 0 189.39660645 0 3126.83024364 0 -17.58952924 0 1066.56166301 0 24457
0.15050000 0.15050000 10009.39487148 0 218.61858305 0 2728.76718517 0 -418.22685452 0 894.23219043 0 24591
0.15150000 0.15149900 9666.98743930 0 217.57933789 0 3480.49524073 0 -344.25300736 0 940.14530932 0 25020
0.15250000 0.15250500 9420.46340473 0 123.17994243 0 3248.48958297 0 174.15730184 0 709.67800057 0 25297
0.15350000 0.15350100 9469.27576250 0 -69.86211863 0 3644.97769147 0 433.71682018 0 373.89977680 0 25452
0.15450000 0.15450400 9668.30729174 0 -96.76082221 0 2732.76001607 0 165.42076600 0 239.57318144 0 26061
0.15550000 0.15549900 9470.00778150 0 58.66222795 0 2704.16691034 0 101.64483078 0 453.36043910 0 26128
0.15650000 0.15649500 9451.74058012 0 69.53470650 0 2744.28376970 0 -35.92261232 0 229.40477208 0 26331
0.15750000 0.15749700 9423.29165995 0 88.53847426 0 2559.83716445 0 -114.25818360 0 107.67666733 0 27345
0.15850000 0.15849900 9379.07105772 0 27.98076075 0 2723.90924091 0 502.36578369 0 246.11809676 0 26980
0.15950000 0.15949700 9275.77874054 0 66.75735987 0 2286.08424138 0 42.22019395 0 218.13944334 0 27777
0.16050000 0.16050000 9180.37226439 0 117.05427435 0 2432.90950658 0 8.83721063 0 576.19433618 0 28224
0.16150000 0.16150500 9068.42881359 0 125.53349442 0 2184.06741185 0 -20.13928451 0 159.48919388 0 28075
0.16250000 0.16249700 8796.31738767 0 187.62866965 0 2766.92090267 0 38.96137846 0 394.97305100 0 28590
0.16350000 0.16349900 8600.62430871 0 184.63737384 0 2257.25822051 0 -97.65077985 0 404.03566803 0 29163
0.16450000 0.16449100 8518.58272489 0 86.85915613 0 2532.40863440 0 141.81537154 0 460.32127430 0 28996
0.16550000 0.16550500 8474.09593393 0 -83.98864345 0 2337.05938255 0 472.59368372 0 661.78732127 0 30777
0.16650000 0.16650700 8546.68781795 0 -145.03847337 0 1706.58029203 0 562.35363151 0 502.80499509 0 29211
0.16750000 0.16749900 8748.30359608 0 21.88670259 0 1521.71222130 0 50.80555677 0 814.35339001 0 30922
0.16850000 0.16850800 8521.61062165 0 185.62449036 0 1433.88103266 0 -315.31829276 0 391.27080946 0 30867
0.16950000 0.16949900 8437.70571674 0 166.42008285 0 1904.92416705 0 -308.83216078 0 518.16186639 0 30852
0.17050000 0.17049200 8261.16713491 0 108.30054716 0 2001.91668437 0 -246.43197763 0 170.23878196 0 31257
0.17150000 0.17149500 8120.63057838 0 112.97382299 0 2111.95244929 0 -52.51648481 0 78.62627155 0 32608
0.17250000 0.17250900 8097.31688240 0 3.25667489 0 2063.92756650 0 274.87535221 0 290.10911122 0 32361
0.17350000 0.17350400 8109.41737827 0 3.46872748 0 2291.76293421 0 218.29693833 0 66.77676947 0 32508
0.17450000 0.17449800 8013.78907818 0 148.51001802 0 1865.31750275 0 -83.68674107 0 108.68873905 0 32791
0.17550000 0.17549800 7859.32197828 0 114.68408556 0 1977.92642537 0 53.59599101 0 271.26960408 0 33633
0.17650000 0.17650100 7870.30226326 0 -50.71061613 0 1889.75140963 0 322.59966356 0 581.60351293 0 33984
0.17750000 0.17750300 7815.81121266 0 12.44432298 0 1695.78855740 0 478.09935389 0 428.73465451 0 34069
0.17850000 0.17849800 7731.29629191 0 113.88995586 0 1323.43489345 0 138.57341467 0 933.43069868 0 34536
