### header ###
fiducial parameters:
Omega_m = 0.31
Omega_nu = 0
Omega_de = 0.69
Omega_k = 0
H_0 = 100
w_de = -1
zeff = 0
beta = 0
fgrowth = 0
b_1 = 2
gamma = 0.55
Lx = 3500 Ly = 3500 Lz = 3500
nx = 700 ny = 700 nz = 700
xoffset = 1379.75464 yoffset = 22.6059522 zoffset = 368.141391
bins = 400 dk = 0.001
kx_ny = 0.628318531 ky_ny = 0.628318531 kz_ny = 0.628318531
############################
A(data) = 3.33674061 (not used)
A(ran) = 3.34360751 (used)
Ngal = 188383
weighted Ngal = 0
Nran = 9399747
weighted Nran = 0
SN(data) = 6622.88759
SN(ran) = 132.993269
SN(data+ran) = 6755.88086
############################
13 columns: k_central k_mean P_0(k) sigma^{lin}_{P_0(k)} P^img_1(k) sigma^{lin}_{P_1(k)} P_2(k) sigma^{lin}_{P_2(k)} P^img_3(k) sigma^{lin}_{P_3(k)} P_4(k) sigma^{lin}_{P_4(k)} N_modes
### header ###
0.00050000 0 0 0 0 0 0 0 0 0 0 0 0
0.00150000 0.00179520 8830.60027743 0 -18623.33970773 0 -39791.99820311 0 49622.45879423 0 20409.35515230 0 3
0.00250000 0.00253879 29755.13043678 0 -33729.54995121 0 -40784.54941800 0 15039.66306179 0 -30558.13309583 0 6
0.00350000 0.00331552 67434.47744519 0 -41760.24201354 0 -48132.35648423 0 -27939.05784848 0 -29910.85084194 0 7
0.00450000 0.00420575 101944.07127777 0 -28358.74874100 0 -64273.37540298 0 -28074.81409913 0 -5559.10755199 0 24
0.00550000 0.00557378 95584.26803569 0 22507.14414309 0 -37409.60909863 0 -74285.95344799 0 8731.61134467 0 45
0.00650000 0.00659388 76899.48309687 0 23729.83769466 0 15215.56944539 0 -30707.30969479 0 -3988.71606729 0 40
0.00750000 0.00754703 58680.19569396 0 2734.45696921 0 24409.72806759 0 24334.86248819 0 6444.92817866 0 57
0.00850000 0.00846663 50821.86083221 0 -6535.19943062 0 17801.48201387 0 21867.95846296 0 3840.77059120 0 75
0.00950000 0.00948925 73231.40244215 0 -7034.99094750 0 -1519.59380268 0 23520.43589628 0 3267.99899840 0 112
0.01050000 0.01054430 67304.48861696 0 1078.07765280 0 9075.88209794 0 -2188.07133395 0 21139.71047134 0 105
0.01150000 0.01145670 70778.69514902 0 4842.88241787 0 8486.57353049 0 -18235.92419833 0 18429.13284917 0 144
0.01250000 0.01249090 72444.03837080 0 -3032.28888086 0 17690.68095635 0 10167.43333680 0 30330.54173446 0 169
0.01350000 0.01339930 77104.44841647 0 -4954.29349121 0 23107.73245784 0 11402.41593459 0 12649.39920748 0 180
0.01450000 0.01448870 91134.81255597 0 -5544.45608083 0 26653.69903415 0 13851.01948485 0 31113.46932703 0 267
0.01550000 0.01550050 86534.29497382 0 2347.28546614 0 27659.55968539 0 590.25686479 0 17477.61906298 0 238
0.01650000 0.01653350 92006.46972413 0 8130.36864930 0 46853.98512398 0 -12922.90812422 0 49798.25426586 0 315
0.01750000 0.01747870 71695.27166482 0 9821.11071209 0 43691.10849026 0 9749.68340374 0 26109.56491187 0 297
0.01850000 0.01844180 73319.02289804 0 3031.32394672 0 63093.93751951 0 6941.45888364 0 70541.23262236 0 388
0.01950000 0.01947590 65022.58575683 0 3351.65989698 0 48989.26236045 0 22023.01339630 0 31329.63675555 0 399
0.02050000 0.02045430 73587.98442404 0 274.23317190 0 62619.34520209 0 9165.22168936 0 54113.72808644 0 462
0.02150000 0.02154770 65841.11609161 0 -2260.41921164 0 40457.24819606 0 11407.18514928 0 38767.17160509 0 571
0.02250000 0.02255340 68046.48969280 0 -1817.07079603 0 31006.43927648 0 3088.05541911 0 27622.29326364 0 510
0.02350000 0.02348930 74074.22249825 0 1293.17810818 0 35835.54642774 0 1927.00674018 0 20017.39225215 0 555
0.02450000 0.02439640 70519.71570028 0 2363.71152882 0 25584.95129622 0 -2644.39644999 0 -2696.00378939 0 592
0.02550000 0.02547300 68473.83351121 0 390.51660807 0 32459.71881261 0 1105.02704315 0 11942.77904991 0 837
0.02650000 0.02652900 68175.25848937 0 -860.05799439 0 18533.39010048 0 -328.74196843 0 -13046.35314626 0 723
0.02750000 0.02749970 69715.60392153 0 1734.50792594 0 24793.26165806 0 9247.18563481 0 4659.25656119 0 826
0.02850000 0.02848090 65354.65619346 0 1762.08064156 0 17662.06566823 0 -3149.41192063 0 -12883.86711096 0 831
0.02950000 0.02946900 62939.21532208 0 4435.69130431 0 24067.67555370 0 2354.20637303 0 4245.79892136 0 996
0.03050000 0.03053250 56935.55041401 0 1424.81952476 0 20512.05963604 0 5478.94038045 0 5714.11812054 0 1041
0.03150000 0.03150510 55037.84661616 0 -284.01560761 0 15318.05210519 0 8822.44824768 0 8158.32955681 0 1036
0.03250000 0.03246190 56877.65436594 0 -1693.12667013 0 12439.99740910 0 10665.08425267 0 11916.49291314 0 1059
0.03350000 0.03345080 54794.61666709 0 125.09539214 0 5518.81323348 0 -100.20774440 0 3231.27604530 0 1302
0.03450000 0.03451200 53692.81716225 0 2434.29590620 0 4275.47896439 0 -4348.02648363 0 8662.85701479 0 1339
0.03550000 0.03553350 55816.44864193 0 -1394.28545956 0 8680.23692041 0 -1061.14915890 0 -1256.95425895 0 1365
0.03650000 0.03647120 54931.59294940 0 -2226.06977469 0 1772.82801140 0 2661.29943414 0 -2280.02844784 0 1308
0.03750000 0.03744890 56649.95209259 0 -67.37059215 0 1483.70268935 0 -388.74201656 0 -7863.25935320 0 1579
0.03850000 0.03847530 57630.52481478 0 1877.40690743 0 5783.40482788 0 -4454.22469441 0 -7071.03733758 0 1662
0.03950000 0.03950240 53159.99606086 0 3028.01877003 0 6811.82497371 0 -4882.79963568 0 -5131.63063922 0 1683
0.04050000 0.04050350 49824.42949065 0 3821.93773878 0 14064.63593807 0 -3368.21905402 0 -4466.32519028 0 1822
0.04150000 0.04152450 46596.66935478 0 2561.51193519 0 17149.43054528 0 -4550.41864554 0 -6805.24789391 0 1887
0.04250000 0.04250150 42712.19944761 0 2425.22330709 0 22281.88193307 0 841.78635654 0 -4854.29525953 0 1920
0.04350000 0.04349210 42003.91561049 0 1255.47912975 0 25650.61118215 0 1799.28051612 0 -1695.01217361 0 2005
0.04450000 0.04448520 41022.34468057 0 -633.37832940 0 22067.93274394 0 5241.12293549 0 365.68119986 0 2151
0.04550000 0.04548030 42176.05098713 0 -479.64324850 0 21397.91353630 0 3064.93027347 0 5528.78421954 0 2274
0.04650000 0.04648670 41363.95354658 0 -126.34315180 0 17901.74643428 0 3556.64739898 0 6455.46481576 0 2311
0.04750000 0.04749250 41846.30970186 0 364.22492570 0 19102.47941589 0 3067.35924561 0 8442.59693459 0 2568
0.04850000 0.04851840 41730.29578178 0 534.68885896 0 15160.44619656 0 365.76549296 0 10316.98703645 0 2493
0.04950000 0.04949480 40499.72748037 0 1162.14670743 0 18834.95974550 0 -93.81688580 0 8154.54745865 0 2644
0.05050000 0.05050630 40015.26399768 0 843.75837136 0 16697.24244570 0 167.77542712 0 6596.00137229 0 2829
0.05150000 0.05149060 38533.59099736 0 -166.61750615 0 19086.17535638 0 84.13482543 0 4548.27804453 0 2784
0.05250000 0.05249300 37960.17611514 0 468.17495086 0 16088.00299734 0 1534.53364497 0 4390.36158238 0 3055
0.05350000 0.05348950 38275.94249226 0 438.72227736 0 17069.79575119 0 -711.77312767 0 1724.20420398 0 3009
0.05450000 0.05448610 36995.57471655 0 1066.70141209 0 15884.25770940 0 531.81180247 0 3318.35303254 0 3336
0.05550000 0.05550870 36513.99494506 0 450.76177165 0 13806.32196115 0 2038.85037020 0 1695.37818311 0 3349
0.05650000 0.05647670 35173.84561781 0 320.93931137 0 15791.09165503 0 2030.90907319 0 6096.96405680 0 3324
0.05750000 0.05747970 35221.09411681 0 97.79030711 0 12400.73457190 0 2106.46230680 0 1697.45223694 0 3639
0.05850000 0.05849280 35065.26279968 0 -160.87670261 0 10358.76757535 0 2166.67641503 0 1493.58494584 0 3846
0.05950000 0.05951020 33886.49038803 0 10.48967697 0 9695.30326511 0 455.64522567 0 3258.26092748 0 3787
0.06050000 0.06049470 34990.95178013 0 491.21691252 0 8681.50131686 0 -449.42971890 0 246.21569929 0 3930
0.06150000 0.06148310 32423.78333449 0 1481.65081792 0 10166.18003154 0 -1676.73388104 0 -821.12123839 0 4083
0.06250000 0.06249100 30967.06552732 0 1741.58410960 0 9627.19222465 0 -2344.47939331 0 -5014.67396740 0 4303
0.06350000 0.06350600 30009.34067084 0 1154.39396076 0 12752.21460319 0 -778.39794774 0 -719.47152748 0 4470
0.06450000 0.06451750 28331.90804439 0 -135.08412411 0 11312.13359143 0 1342.74466734 0 -3525.78059787 0 4479
0.06550000 0.06550280 28428.06872193 0 -363.79791462 0 12261.42913823 0 1608.87793811 0 -1107.00238532 0 4636
0.06650000 0.06648880 29901.09058862 0 -105.86037292 0 10048.15860482 0 682.11970351 0 -2975.05830460 0 4653
0.06750000 0.06749660 29246.82088065 0 -12.71494818 0 11939.34077885 0 82.01341219 0 -1244.15501767 0 5220
0.06850000 0.06852730 29402.20854989 0 358.53181431 0 10268.16358748 0 428.10911100 0 21.88681350 0 5029
0.06950000 0.06949320 30106.49955610 0 -103.59909969 0 12153.62270389 0 -262.05503765 0 -18.30724059 0 5040
0.07050000 0.07048030 29047.51207149 0 622.49121048 0 12543.03462874 0 -1125.82303743 0 -1536.99589069 0 5475
0.07150000 0.07148790 29234.17691613 0 729.95603595 0 13775.37752166 0 -674.88158838 0 -1484.64544110 0 5509
0.07250000 0.07249820 27905.11878582 0 496.49077667 0 13712.82317087 0 -650.02067042 0 -1469.78323718 0 5916
0.07350000 0.07351270 27965.12216131 0 258.68109554 0 14687.85029459 0 1501.10477737 0 -1329.69032853 0 5721
0.07450000 0.07449140 27443.61408080 0 112.65439652 0 14417.33600103 0 1008.07334503 0 -979.79633841 0 6028
0.07550000 0.07549160 27526.57623398 0 457.98103175 0 13649.38152433 0 649.04908157 0 -635.80951978 0 6183
0.07650000 0.07648840 26493.76397416 0 835.22702266 0 14038.68253721 0 309.65069112 0 -1762.45774225 0 6330
0.07750000 0.07749960 25200.30858606 0 970.32889269 0 13862.33250574 0 -738.40974626 0 310.37494628 0 6583
0.07850000 0.07848650 24823.76244966 0 255.83953088 0 14260.17374027 0 1149.32528376 0 -870.72883498 0 6549
0.07950000 0.07947320 23867.14671288 0 291.38681710 0 12892.96189246 0 1718.15950164 0 1670.62263152 0 6828
0.08050000 0.08048110 23821.22915751 0 -153.75171769 0 10434.73118325 0 1947.82491685 0 122.80616909 0 7147
0.08150000 0.08149960 23781.30084850 0 -218.28917450 0 10596.39646997 0 2118.89553858 0 1697.95134080 0 7386
0.08250000 0.08250610 23922.04813777 0 444.63499446 0 7882.30293836 0 687.83499730 0 1116.00732813 0 7227
0.08350000 0.08350160 22865.61162846 0 527.55832844 0 9274.90253598 0 -128.10887035 0 1832.43210380 0 7798
0.08450000 0.08449610 21817.60442882 0 821.22216828 0 7574.65531741 0 -975.71810529 0 317.83488535 0 7371
0.08550000 0.08548940 21283.78511970 0 391.94737247 0 9606.52932473 0 -72.92317808 0 895.62191741 0 8256
0.08650000 0.08650700 20262.06405683 0 132.34238023 0 8850.09860167 0 888.60118974 0 -350.95319943 0 8037
0.08750000 0.08749060 21139.26682346 0 -115.52036181 0 8374.90735962 0 1464.80328975 0 513.56567437 0 8155
0.08850000 0.08849210 20841.80092131 0 -193.16206781 0 7253.13260908 0 -119.87143838 0 -421.81929322 0 8718
0.08950000 0.08949900 21191.06271321 0 50.55478481 0 7894.33688705 0 -198.03553975 0 -337.11027652 0 8571
0.09050000 0.09049190 20677.76211845 0 284.41489070 0 6843.55688817 0 159.47033884 0 -212.86336095 0 8932
0.09150000 0.09150830 20784.45943309 0 307.46128884 0 7352.08826825 0 -102.07173095 0 -1147.04049719 0 9285
0.09250000 0.09250820 20361.44118149 0 96.08902841 0 7369.62345063 0 300.82875307 0 -711.80196479 0 9204
0.09350000 0.09350330 20115.10569727 0 66.56514943 0 7207.73633997 0 1071.82887244 0 -323.91507951 0 9349
0.09450000 0.09448040 19922.22978234 0 126.77238112 0 4880.82540263 0 671.43222613 0 -556.91561764 0 9564
0.09550000 0.09549270 19649.16451347 0 459.80442452 0 6067.15091940 0 144.63808116 0 139.49842050 0 10155
0.09650000 0.09649430 19120.77989086 0 471.43021716 0 5899.29674479 0 -308.58815445 0 -16.88146723 0 9913
0.09750000 0.09749140 17980.16119670 0 672.92621036 0 6384.94698556 0 -551.29459903 0 154.37171560 0 10476
0.09850000 0.09850240 17692.78828377 0 280.66495701 0 6364.97173986 0 138.45584798 0 -345.15915815 0 10575
0.09950000 0.09950330 17323.67324934 0 -38.71437751 0 5787.48638836 0 533.39451627 0 -190.71313152 0 10882
0.10050000 0.10051200 17341.08642855 0 90.37695107 0 5926.93600759 0 559.54534044 0 -695.02763852 0 10875
0.10150000 0.10150300 17463.75506679 0 36.03674074 0 5147.80160437 0 18.42247813 0 -571.03692960 0 11118
0.10250000 0.10250800 16990.60460498 0 199.77685767 0 4779.90660159 0 394.38965404 0 384.04822201 0 11575
0.10350000 0.10349800 17003.91404132 0 155.24792016 0 5605.92349431 0 130.97372652 0 -975.49184487 0 11364
0.10450000 0.10450100 16555.60786067 0 231.17159975 0 5183.71490008 0 -27.98575179 0 747.23168432 0 12093
0.10550000 0.10551000 16269.67680335 0 203.01881454 0 4793.28258511 0 853.93454456 0 -254.19692462 0 12067
0.10650000 0.10649700 16009.92097082 0 244.30801342 0 5066.76931946 0 -331.40607393 0 823.27625795 0 12054
0.10750000 0.10749900 15724.87720925 0 146.24075912 0 4863.73386813 0 586.16310400 0 19.15959908 0 12807
0.10850000 0.10850100 15690.27267477 0 83.05398828 0 4804.24068770 0 73.15343133 0 530.70268278 0 12736
0.10950000 0.10950300 15477.54351731 0 -61.43757817 0 3896.03802559 0 599.60452558 0 40.92662765 0 12933
0.11050000 0.11050200 15408.99992017 0 -3.86107857 0 3769.90893390 0 273.29485664 0 3.06606158 0 13428
0.11150000 0.11150900 15321.04672837 0 266.34843999 0 3192.10193768 0 -105.79127476 0 338.97027025 0 13453
0.11250000 0.11250000 15350.21657634 0 145.41668319 0 3560.57368270 0 246.11476940 0 -3.19722607 0 13668
0.11350000 0.11349100 14799.42773589 0 58.39115910 0 3431.44996783 0 269.56599623 0 506.14566361 0 13791
0.11450000 0.11448600 15054.41435373 0 172.10432128 0 3377.28056193 0 53.50038490 0 206.39053841 0 14205
0.11550000 0.11549300 14481.77585529 0 263.66104297 0 3625.34627287 0 -77.85909346 0 895.16496009 0 14776
0.11650000 0.11649800 14599.34254295 0 66.00338030 0 2901.19093293 0 240.59800804 0 147.98540440 0 14553
0.11750000 0.11747300 14313.30057365 0 -33.11476490 0 3497.67550480 0 414.66768942 0 934.92690115 0 14568
0.11850000 0.11849100 14091.58754666 0 442.72952682 0 3156.62119865 0 -660.41866756 0 69.81498105 0 16015
0.11950000 0.11950300 13807.76381675 0 364.67301006 0 3498.51843577 0 -104.47486060 0 315.37374874 0 15270
0.12050000 0.12050700 13147.61577439 0 96.43773564 0 3573.66129510 0 287.46053338 0 820.61991628 0 15999
0.12150000 0.12150000 13241.22547664 0 92.52697960 0 3590.12063137 0 238.92656466 0 185.29286358 0 15670
0.12250000 0.12250700 13303.77982742 0 -155.62502086 0 3144.30997003 0 594.36615326 0 347.98186777 0 16887
0.12350000 0.12352200 13349.58647082 0 1.77190744 0 2974.61465673 0 33.22268225 0 -208.17954848 0 16407
0.12450000 0.12449800 13182.44213281 0 167.35950723 0 2760.43255246 0 -575.60539362 0 -209.93084848 0 16306
0.12550000 0.12549900 13304.22347530 0 94.18001159 0 3362.86200590 0 -622.21282144 0 -748.72345031 0 17523
0.12650000 0.12650100 13192.64603400 0 155.45199819 0 3654.46066486 0 -478.90679303 0 -1525.53868424 0 17154
0.12750000 0.12750600 13174.56738298 0 -138.15527655 0 3566.47419947 0 326.62687717 0 -867.66655550 0 18007
0.12850000 0.12850300 13446.74535609 0 -194.99433355 0 3575.15860668 0 721.60769201 0 -1112.44705391 0 17496
0.12950000 0.12949900 13597.91837049 0 115.96511881 0 3171.07302827 0 49.63499185 0 -1498.88653798 0 18405
0.13050000 0.13049000 13390.84572347 0 231.63964826 0 3896.16002876 0 -191.35531183 0 -360.76558137 0 18100
0.13150000 0.13148800 12927.89916285 0 481.99790962 0 3537.45962826 0 -179.84708587 0 304.00083539 0 19059
0.13250000 0.13249300 12656.49757353 0 173.25226017 0 4409.80445063 0 254.19914286 0 325.61979648 0 18957
0.13350000 0.13349100 12397.96177266 0 146.20748553 0 4241.35135138 0 191.76457700 0 505.05650807 0 19468
0.13450000 0.13450700 12160.27742206 0 252.48555293 0 4730.42877201 0 -82.04036379 0 874.43218564 0 19953
0.13550000 0.13551000 11998.56777056 0 167.49925631 0 4615.36869487 0 -126.43188137 0 1386.06688262 0 19956
0.13650000 0.13649900 11603.38842329 0 121.28667511 0 4699.69506526 0 314.51196274 0 774.97298612 0 19723
0.13750000 0.13749600 11612.48320479 0 70.96913100 0 4617.81984939 0 143.68645646 0 889.03263730 0 20946
0.13850000 0.13851100 11573.22036759 0 25.44143121 0 4214.47738117 0 203.61108446 0 613.15575001 0 20955
0.13950000 0.13949800 11464.19390159 0 215.90567627 0 4155.12838630 0 -92.71242441 0 443.96064968 0 20506
0.14050000 0.14048300 11097.29710654 0 307.13077117 0 4445.01900094 0 -321.94084646 0 947.54424680 0 21447
0.14150000 0.14148400 10862.06391047 0 101.24876414 0 4134.63185434 0 60.16042684 0 28.16265638 0 21771
0.14250000 0.14249400 10796.33747735 0 32.26429192 0 4466.12554873 0 335.89468134 0 250.26065882 0 22470
0.14350000 0.14350900 10712.27729568 0 38.86876697 0 3801.38575084 0 158.12941313 0 -5.50087877 0 22519
0.14450000 0.14449900 10708.43974154 0 -74.22051539 0 3808.98322075 0 416.70736054 0 141.19537363 0 22218
0.14550000 0.14550500 10901.89239871 0 -80.97893625 0 3294.18531439 0 381.84218293 0 382.47659940 0 23559
0.14650000 0.14650700 10721.21680042 0 115.58690900 0 3214.53942911 0 -60.26523865 0 -121.52735408 0 23044
0.14750000 0.14750500 10746.16090236 0 195.43909054 0 3456.08351625 0 63.99276812 0 338.88708627 0 23649
0.14850000 0.14849900 10385.29771845 0 92.72617749 0 3098.63642100 0 -221.24276024 0 70.65170094 0 23640
0.14950000 0.14949500 10410.99602178 0 75.41659006 0 3250.20871849 0 409.38051584 0 304.57868675 0 24457
0.15050000 0.15050000 10319.22745823 0 71.69848811 0 3023.74865921 0 196.50606369 0 18.09972430 0 24591
0.15150000 0.15149900 10196.43681682 0 26.57129144 0 3034.22984032 0 -173.43859228 0 212.83119648 0 25020
0.15250000 0.15250500 10162.07628867 0 112.01443446 0 2658.79282362 0 277.94095904 0 -290.70470849 0 25297
0.15350000 0.15350100 9895.92083551 0 88.33472897 0 2738.73817123 0 -34.66797612 0 -55.64364779 0 25452
0.15450000 0.15450400 9813.19159747 0 144.99299946 0 2344.78994682 0 161.09298095 0 -192.05849371 0 26061
0.15550000 0.15549900 9814.15653160 0 45.89870033 0 2781.02890519 0 319.14697395 0 -198.01003000 0 26128
0.15650000 0.15649500 9455.55595187 0 260.74183994 0 1939.27360400 0 -187.67525268 0 -341.81738051 0 26331
0.15750000 0.15749700 9222.16389449 0 308.41735002 0 2453.01784664 0 -176.20695504 0 -490.63795204 0 27345
0.15850000 0.15849900 8747.93758658 0 253.00351183 0 2921.98692721 0 -219.62233637 0 325.06080016 0 26980
0.15950000 0.15949700 8489.67906564 0 78.64634662 0 2640.02651839 0 309.11609543 0 -106.86922819 0 27777
0.16050000 0.16050000 8700.71126997 0 -89.42954103 0 2599.26636960 0 537.57367928 0 718.12616529 0 28224
0.16150000 0.16150500 8649.40339289 0 -68.63875961 0 1916.78065659 0 420.13564952 0 300.49268980 0 28075
0.16250000 0.16249700 8774.78937439 0 38.85257382 0 2279.95080946 0 74.48115851 0 593.54762292 0 28590
0.16350000 0.16349900 8649.74722000 0 106.44876092 0 1944.96338804 0 -268.04982961 0 1087.89779858 0 29163
0.16450000 0.16449100 8581.25907884 0 73.20677998 0 2421.95140399 0 -168.00390577 0 647.18908784 0 28996
0.16550000 0.16550500 8650.20195907 0 18.28161993 0 2416.84945340 0 12.50432635 0 701.41394972 0 30777
0.16650000 0.16650700 8537.19375336 0 101.44873842 0 2604.60123534 0 -142.83243430 0 230.48838202 0 29211
0.16750000 0.16749900 8475.81506945 0 164.96935429 0 2870.29085823 0 -139.37641733 0 852.50488927 0 30922
0.16850000 0.16850800 8234.57044463 0 183.68574914 0 2739.85838212 0 -48.27920393 0 636.29420508 0 30867
0.16950000 0.16949900 8290.76953957 0 97.69015360 0 3554.14078847 0 -56.83572964 0 933.04361591 0 30852
0.17050000 0.17049200 8181.64325280 0 -112.06101749 0 2644.26335562 0 354.73862495 0 858.48193531 0 31257
0.17150000 0.17149500 8324.91933497 0 -46.32049855 0 3061.43654644 0 414.63774319 0 1061.29112622 0 32608
0.17250000 0.17250900 8328.51288278 0 36.87235152 0 2666.73412064 0 -206.51475982 0 1059.51320735 0 32361
0.17350000 0.17350400 8334.12502844 0 74.22118086 0 2809.07854227 0 34.98529527 0 691.77680870 0 32508
0.17450000 0.17449800 8237.88671252 0 111.68169855 0 2457.11049832 0 -94.65316205 0 776.35051278 0 32791
0.17550000 0.17549800 8019.21267349 0 92.82200544 0 2700.15189704 0 8.27518641 0 72.79740391 0 33633
0.17650000 0.17650100 7923.11854313 0 105.97982511 0 2629.75607001 0 30.57621175 0 422.54243926 0 33984
0.17750000 0.17750300 7798.61985739 0 14.24619883 0 2272.05387724 0 218.29139274 0 -152.38860959 0 34069
0.17850000 0.17849800 7864.50156726 0 -46.47655169 0 1951.00809037 0 373.79219219 0 43.86291113 0 34536
