### header ###
fiducial parameters:
Omega_m = 0.31
Omega_nu = 0
Omega_de = 0.69
Omega_k = 0
H_0 = 100
w_de = -1
zeff = 0
beta = 0
fgrowth = 0
b_1 = 2
gamma = 0.55
Lx = 3500 Ly = 3500 Lz = 3500
nx = 700 ny = 700 nz = 700
xoffset = 1379.75464 yoffset = 22.6059522 zoffset = 368.141391
bins = 400 dk = 0.001
kx_ny = 0.628318531 ky_ny = 0.628318531 kz_ny = 0.628318531
############################
A(data) = 3.29658945 (not used)
A(ran) = 3.3039838 (used)
Ngal = 185213
weighted Ngal = 0
Nran = 9399747
weighted Nran = 0
SN(data) = 6695.14079
SN(ran) = 131.41722
SN(data+ran) = 6826.55801
############################
13 columns: k_central k_mean P_0(k) sigma^{lin}_{P_0(k)} P^img_1(k) sigma^{lin}_{P_1(k)} P_2(k) sigma^{lin}_{P_2(k)} P^img_3(k) sigma^{lin}_{P_3(k)} P_4(k) sigma^{lin}_{P_4(k)} N_modes
### header ###
0.00050000 0 0 0 0 0 0 0 0 0 0 0 0
0.00150000 0.00179520 89210.93353333 0 -59358.75512325 0 -107636.73902342 0 155650.53061227 0 -49102.72530523 0 3
0.00250000 0.00253879 155564.01927608 0 -56282.27891376 0 -30773.08049269 0 -118570.44097497 0 55786.61332214 0 6
0.00350000 0.00331552 158736.10160327 0 -9978.73880312 0 -80474.50860919 0 -77541.44157623 0 37832.29461433 0 7
0.00450000 0.00420575 152220.02339619 0 18559.34350134 0 -61285.40694513 0 -69453.74076159 0 31824.41505141 0 24
0.00550000 0.00557378 101913.79231010 0 12408.38749779 0 -43727.04396837 0 -20042.23653332 0 9190.16579130 0 45
0.00650000 0.00659388 125472.49283585 0 -6544.00584100 0 -43965.28287882 0 20977.22443605 0 -60318.03274731 0 40
0.00750000 0.00754703 98196.35582897 0 -10749.08897835 0 -55528.41025718 0 -7161.58586947 0 -23618.37116533 0 57
0.00850000 0.00846663 104358.18120552 0 2222.94205715 0 -42343.41714908 0 -43347.50320880 0 -38640.62104791 0 75
0.00950000 0.00948925 104551.38985636 0 7654.21247312 0 -17081.55241996 0 -47153.44744158 0 -5260.39943578 0 112
0.01050000 0.01054430 103052.30367684 0 2404.99296386 0 -11883.21932230 0 -36544.38482470 0 -52517.81575756 0 105
0.01150000 0.01145670 103201.14753988 0 1479.27730177 0 23317.02334425 0 -7160.98694483 0 -40879.04641600 0 144
0.01250000 0.01249090 103680.84180789 0 8886.55536604 0 34474.10200234 0 -15433.62237739 0 -35565.25395811 0 169
0.01350000 0.01339930 90885.59336055 0 11136.89267965 0 84697.37093525 0 -6211.63594205 0 10983.43487867 0 180
0.01450000 0.01448870 85229.85930074 0 6344.38647832 0 63927.66279410 0 21570.38164884 0 9746.43368304 0 267
0.01550000 0.01550050 81671.24875990 0 -646.19420748 0 60118.05846633 0 26058.54540591 0 2047.69005417 0 238
0.01650000 0.01653350 78293.64655326 0 3426.81384750 0 61429.92524136 0 18584.96416629 0 22179.28836130 0 315
0.01750000 0.01747870 82462.16201428 0 4732.30318429 0 58458.81540287 0 239.20051722 0 21321.16245342 0 297
0.01850000 0.01844180 75012.53776007 0 4072.28823630 0 63793.79204694 0 333.04535284 0 28043.09327586 0 388
0.01950000 0.01947590 65439.39293815 0 2639.40541136 0 51589.70439693 0 -211.27953803 0 2766.95417626 0 399
0.02050000 0.02045430 68764.20104732 0 1647.48639469 0 55387.44114397 0 3130.45706504 0 -7068.98546615 0 462
0.02150000 0.02154770 66342.10545776 0 151.42367546 0 47237.85145036 0 3810.50271473 0 -17877.56762493 0 571
0.02250000 0.02255340 64648.36877180 0 1324.67710751 0 50943.08761485 0 5324.82819886 0 -19140.07857355 0 510
0.02350000 0.02348930 64086.48873440 0 1681.56964291 0 35389.56939845 0 -2036.76522518 0 -21028.35485398 0 555
0.02450000 0.02439640 60448.46522342 0 2769.02823009 0 40978.20171672 0 9518.09921147 0 -22690.25980470 0 592
0.02550000 0.02547300 59303.63187442 0 306.02830620 0 32088.94009863 0 7785.69861294 0 -12633.42788387 0 837
0.02650000 0.02652900 56040.26899635 0 73.40287235 0 22634.24926012 0 8156.15568221 0 -12489.79688339 0 723
0.02750000 0.02749970 58348.34708127 0 -526.18523826 0 20238.66163127 0 2822.15506348 0 -13006.75757315 0 826
0.02850000 0.02848090 60515.56696495 0 -2619.05306496 0 16928.38299010 0 6112.33645577 0 -3899.19901672 0 831
0.02950000 0.02946900 61978.71766636 0 -2796.86713443 0 9123.17496173 0 4759.46552562 0 -5804.32282532 0 996
0.03050000 0.03053250 64103.68008967 0 -820.43469329 0 6519.56084292 0 -304.40788232 0 -4154.32982012 0 1041
0.03150000 0.03150510 65238.08771354 0 1075.53000486 0 2099.82977103 0 2400.14611079 0 -9980.70194498 0 1036
0.03250000 0.03246190 62927.90230119 0 4085.77513179 0 12930.11740224 0 -8319.71756360 0 -740.21428401 0 1059
0.03350000 0.03345080 58948.15901223 0 3689.13174652 0 10395.81217316 0 -3447.69857135 0 -12286.16250742 0 1302
0.03450000 0.03451200 52624.84580811 0 2697.88929287 0 22926.83503561 0 -1695.38927431 0 -2157.33762720 0 1339
0.03550000 0.03553350 49466.84930104 0 3341.61127255 0 17943.67115874 0 -514.12799806 0 -6564.08090747 0 1365
0.03650000 0.03647120 49075.55187271 0 315.30498332 0 23285.74616885 0 5947.15525962 0 -865.30745791 0 1308
0.03750000 0.03744890 45579.38477069 0 -508.23080864 0 12829.40933395 0 6493.25252376 0 -3829.90121819 0 1579
0.03850000 0.03847530 47818.47561060 0 -72.08412903 0 12625.77495798 0 2277.77693486 0 -5312.93843573 0 1662
0.03950000 0.03950240 46408.34083060 0 -130.01544711 0 10790.71424050 0 132.79822842 0 139.89548535 0 1683
0.04050000 0.04050350 45525.48155352 0 970.67937451 0 7385.90532775 0 -1219.23309812 0 -6267.76848980 0 1822
0.04150000 0.04152450 44943.85918556 0 1056.61507759 0 9134.38816184 0 901.87846161 0 -5733.13952331 0 1887
0.04250000 0.04250150 44680.88690591 0 73.09974993 0 8792.61292789 0 -2295.60048836 0 -9099.18470273 0 1920
0.04350000 0.04349210 43008.66714203 0 397.50628038 0 11123.80506725 0 -591.97267296 0 -4528.29170763 0 2005
0.04450000 0.04448520 43112.03709759 0 1023.46238079 0 9189.10103639 0 836.82304591 0 -9755.79465326 0 2151
0.04550000 0.04548030 41728.52119027 0 407.85436714 0 8513.27004155 0 -1208.55227546 0 -6617.22992325 0 2274
0.04650000 0.04648670 41929.05003109 0 385.15068698 0 12999.99194301 0 445.11635240 0 -4958.60796682 0 2311
0.04750000 0.04749250 40615.07592864 0 1113.82236233 0 10221.11473003 0 298.46743724 0 -8494.73665145 0 2568
0.04850000 0.04851840 39956.03700597 0 870.95509539 0 13031.04729447 0 106.30756998 0 -5336.97305952 0 2493
0.04950000 0.04949480 38399.83116217 0 1032.37304842 0 11450.10808147 0 24.68456793 0 -6979.13567967 0 2644
0.05050000 0.05050630 36391.21539484 0 1205.90147939 0 13383.74735742 0 -1600.73699955 0 -5100.33128143 0 2829
0.05150000 0.05149060 34948.58340779 0 2276.52362961 0 16586.10865228 0 -1263.34278839 0 -3789.80654122 0 2784
0.05250000 0.05249300 33424.43112316 0 647.29999981 0 14440.96025052 0 723.45992190 0 -2830.12963408 0 3055
0.05350000 0.05348950 32912.46147203 0 31.63264826 0 15892.90884302 0 1520.19272731 0 -3870.98301169 0 3009
0.05450000 0.05448610 32688.30838171 0 416.33025985 0 14672.43353083 0 1661.69421798 0 1394.13018280 0 3336
0.05550000 0.05550870 31982.13187202 0 -284.06440888 0 12866.01028388 0 2867.41823822 0 637.46210812 0 3349
0.05650000 0.05647670 33744.85580300 0 -637.68504118 0 13767.61368380 0 3352.54719274 0 4760.33063898 0 3324
0.05750000 0.05747970 33642.81679107 0 -366.90455889 0 11831.31252058 0 391.23531763 0 3592.05049964 0 3639
0.05850000 0.05849280 33762.71263008 0 576.89751806 0 11916.38200117 0 -20.77558648 0 3440.97730600 0 3846
0.05950000 0.05951020 33419.55099651 0 220.64272649 0 11625.12716931 0 -59.20935670 0 4775.56994359 0 3787
0.06050000 0.06049470 32720.69467680 0 801.64620566 0 13931.87431060 0 -532.25212299 0 5933.30235463 0 3930
0.06150000 0.06148310 31544.91688832 0 1170.73129387 0 13378.97814273 0 -199.22784342 0 3921.88051448 0 4083
0.06250000 0.06249100 31289.59753457 0 455.02744600 0 16493.38624579 0 -585.23809817 0 3191.51410424 0 4303
0.06350000 0.06350600 30199.66561047 0 297.70547201 0 14056.98301218 0 2398.78189357 0 4973.84727143 0 4470
0.06450000 0.06451750 30062.02385634 0 -240.20648879 0 13357.57213262 0 3281.19752277 0 5199.20930222 0 4479
0.06550000 0.06550280 30414.50209535 0 -141.01791448 0 11683.24504132 0 1509.26789832 0 7920.76720938 0 4636
0.06650000 0.06648880 30122.47087971 0 315.91499916 0 9746.28949748 0 2168.76156006 0 7127.82426596 0 4653
0.06750000 0.06749660 29611.05578843 0 651.41150652 0 9702.96728220 0 -659.11323368 0 5939.14741543 0 5220
0.06850000 0.06852730 27510.60491037 0 1017.26240170 0 9006.14065153 0 -730.40966591 0 5552.49719861 0 5029
0.06950000 0.06949320 27653.01587919 0 680.40944094 0 11501.01667546 0 -185.17751513 0 6056.82501505 0 5040
0.07050000 0.07048030 26777.47679209 0 194.88120334 0 9514.20620134 0 15.96544527 0 1694.79034967 0 5475
0.07150000 0.07148790 25864.67128326 0 530.40987518 0 8117.38085768 0 528.83048873 0 44.97247447 0 5509
0.07250000 0.07249820 25347.82150547 0 239.40015877 0 8753.16154034 0 -309.32350081 0 737.80416691 0 5916
0.07350000 0.07351270 25310.44417175 0 -105.65263480 0 7043.93045224 0 732.98393272 0 -979.17966786 0 5721
0.07450000 0.07449140 25001.22160084 0 23.06059487 0 6826.70936001 0 1331.93075032 0 -2665.49190658 0 6028
0.07550000 0.07549160 25130.98860513 0 315.13528801 0 5970.56877638 0 -838.75069594 0 -1708.84289621 0 6183
0.07650000 0.07648840 24768.97193674 0 129.01723938 0 6629.79624939 0 -42.11704582 0 -2409.91745530 0 6330
0.07750000 0.07749960 24340.18626272 0 476.43234699 0 6345.36250365 0 2.67661638 0 -2761.10911547 0 6583
0.07850000 0.07848650 24746.67863087 0 72.84431967 0 7203.08912845 0 -833.86058720 0 -2699.14259812 0 6549
0.07950000 0.07947320 23662.95777706 0 85.22032087 0 7968.83645695 0 -79.77443226 0 -2089.42622829 0 6828
0.08050000 0.08048110 24130.11899252 0 458.03316037 0 8229.80122994 0 487.11649701 0 -2467.05930198 0 7147
0.08150000 0.08149960 23381.79593443 0 433.28869998 0 8413.68218415 0 -499.98450371 0 -1549.82840556 0 7386
0.08250000 0.08250610 23094.75575741 0 395.71505208 0 8897.89056932 0 163.50975277 0 -1717.54948581 0 7227
0.08350000 0.08350160 22768.12000728 0 -46.58091986 0 8695.06585073 0 600.19014078 0 -614.68078959 0 7798
0.08450000 0.08449610 22650.22058372 0 203.26614823 0 8692.18213952 0 1207.40988218 0 1695.41145670 0 7371
0.08550000 0.08548940 22465.33033059 0 -21.24962423 0 6959.02733960 0 890.62755142 0 -431.94333779 0 8256
0.08650000 0.08650700 21982.19779153 0 566.74907286 0 8373.42113923 0 348.08168854 0 923.54400572 0 8037
0.08750000 0.08749060 21444.27473954 0 773.53667612 0 6485.31122675 0 -318.28851530 0 572.88028653 0 8155
0.08850000 0.08849210 20008.74111853 0 707.35328569 0 8619.67898507 0 -116.28343616 0 2203.58791848 0 8718
0.08950000 0.08949900 19836.60574190 0 433.11234995 0 7686.23275871 0 488.80346806 0 2284.47601782 0 8571
0.09050000 0.09049190 19217.27330431 0 -58.48687613 0 7865.73269012 0 1109.29715397 0 2830.12963408 0 8932
0.09150000 0.09150830 19376.09924461 0 -187.31478878 0 7699.94147814 0 897.75697282 0 3049.56896570 0 9285
0.09250000 0.09250820 19635.52234122 0 -30.10084305 0 6424.74220021 0 242.83842982 0 3057.34389476 0 9204
0.09350000 0.09350330 19756.41638796 0 401.32830685 0 7825.57146597 0 -45.49486985 0 4633.92426736 0 9349
0.09450000 0.09448040 19263.52359558 0 455.15610388 0 8208.71686455 0 -782.20001006 0 3770.67422649 0 9564
0.09550000 0.09549270 18780.61288046 0 389.48290851 0 9687.80561597 0 -300.12335294 0 4846.52033046 0 10155
0.09650000 0.09649430 18774.51272213 0 36.89397935 0 9317.64800902 0 591.92498081 0 4329.73709986 0 9913
0.09750000 0.09749140 18517.30786491 0 -68.17914041 0 9756.90377296 0 1172.57243256 0 5326.35878404 0 10476
0.09850000 0.09850240 18516.19874521 0 210.55861022 0 8839.01849592 0 440.94273499 0 5142.41128265 0 10575
0.09950000 0.09950330 17971.51006308 0 608.06599973 0 8895.22868205 0 -199.48959567 0 4918.63529302 0 10882
0.10050000 0.10051200 17385.67304028 0 445.33595810 0 8775.66557895 0 -187.87156687 0 3390.58999827 0 10875
0.10150000 0.10150300 16678.83105877 0 345.68820824 0 8674.42513320 0 89.20793891 0 4010.92064358 0 11118
0.10250000 0.10250800 16231.63399782 0 -136.57367186 0 6941.07069174 0 1214.00914436 0 2678.04714153 0 11575
0.10350000 0.10349800 16640.34460536 0 -164.95271749 0 6745.42197758 0 673.21458148 0 1465.02511369 0 11364
0.10450000 0.10450100 16444.80680316 0 152.72800022 0 4924.99054887 0 337.95542573 0 557.14409630 0 12093
0.10550000 0.10551000 16029.21965351 0 111.48760260 0 4799.71547934 0 404.47820679 0 176.13153490 0 12067
0.10650000 0.10649700 15836.12191464 0 159.91953232 0 3943.37525417 0 -70.17134120 0 605.41520366 0 12054
0.10750000 0.10749900 15299.75163023 0 396.42599780 0 3497.40931608 0 279.59465651 0 -832.81135997 0 12807
0.10850000 0.10850100 15164.88267534 0 285.22898456 0 3632.14517660 0 46.06440281 0 -263.53793069 0 12736
0.10950000 0.10950300 14482.88497499 0 440.61443556 0 4374.00206688 0 -126.54390246 0 81.02962302 0 12933
0.11050000 0.11050200 14129.74126416 0 335.64402029 0 4237.36961167 0 -106.54270336 0 152.93096912 0 13428
0.11150000 0.11150900 13845.14115047 0 29.00148360 0 4413.64200477 0 129.56625363 0 729.70204754 0 13453
0.11250000 0.11250000 13717.03782571 0 -5.75397988 0 4367.34734871 0 485.82215432 0 240.41943977 0 13668
0.11350000 0.11349100 14170.22413302 0 -100.55800440 0 4145.09085307 0 139.82561081 0 1164.40931161 0 13791
0.11450000 0.11448600 14077.94537441 0 -69.54790502 0 4346.37389528 0 409.00896074 0 1054.18388722 0 14205
0.11550000 0.11549300 14356.00168190 0 46.25738964 0 4404.48067609 0 -91.44503333 0 1392.83251276 0 14776
0.11650000 0.11649800 14142.60705262 0 -82.60069106 0 4071.93331799 0 28.42939967 0 433.25209903 0 14553
0.11750000 0.11747300 14265.71933874 0 204.54829060 0 4562.43041183 0 -220.28780819 0 703.10646638 0 14568
0.11850000 0.11849100 14049.88464613 0 389.57940193 0 4890.55238235 0 -696.14230381 0 899.56261968 0 16015
0.11950000 0.11950300 13748.53682505 0 122.30262875 0 5293.20719636 0 165.87772332 0 742.26615544 0 15270
0.12050000 0.12050700 13839.04099214 0 -19.67944348 0 5478.56327976 0 102.50550767 0 59.94403759 0 15999
0.12150000 0.12150000 13419.90465947 0 170.78114149 0 5053.14932961 0 388.22294854 0 40.74406655 0 15670
0.12250000 0.12250700 13382.08367788 0 216.74860724 0 4972.02831513 0 274.67460154 0 525.62735105 0 16887
0.12350000 0.12352200 13324.74218966 0 -30.46285971 0 4703.01133315 0 -76.00564353 0 -277.56496747 0 16407
0.12450000 0.12449800 13089.05425451 0 45.89138014 0 4571.19245742 0 723.88138738 0 511.02135379 0 16306
0.12550000 0.12549900 12996.33184802 0 51.41479622 0 3846.39382805 0 84.70003282 0 -123.14666884 0 17523
0.12650000 0.12650100 12974.26036609 0 101.67777164 0 3810.45834994 0 -123.42838524 0 159.01559977 0 17154
0.12750000 0.12750600 12951.41250038 0 212.20676209 0 3759.51648236 0 209.66465975 0 -33.25096480 0 18007
0.12850000 0.12850300 12581.52108216 0 107.85257372 0 3707.23257994 0 238.62377498 0 -295.71127479 0 17496
0.12950000 0.12949900 12229.04284314 0 83.80375320 0 3473.91816094 0 118.05691856 0 423.52401019 0 18405
0.13050000 0.13049000 12522.18317848 0 -14.67609363 0 3454.75257261 0 750.90841611 0 463.77840039 0 18100
0.13150000 0.13148800 12336.18380566 0 -40.46345927 0 3435.30970436 0 225.02153104 0 677.62000491 0 19059
0.13250000 0.13249300 12382.87774481 0 269.18778641 0 3054.85946665 0 -110.17606856 0 723.66843640 0 18957
0.13350000 0.13349100 12000.34236207 0 338.73402776 0 3739.24177434 0 -355.67804933 0 1211.87963455 0 19468
0.13450000 0.13450700 11616.03238781 0 210.30794917 0 3595.01184922 0 -71.46490750 0 1083.16407572 0 19953
0.13550000 0.13551000 11626.23628900 0 96.49574260 0 4293.63525379 0 180.09331045 0 994.23264035 0 19956
0.13650000 0.13649900 11337.53243244 0 25.04725007 0 3738.60957611 0 144.06022980 0 1197.60526408 0 19723
0.13750000 0.13749600 11342.07982319 0 133.98387737 0 4056.84929015 0 -23.49259699 0 790.31432974 0 20946
0.13850000 0.13851100 11413.83986745 0 -24.85193409 0 3730.85682944 0 -25.75475752 0 1603.34343084 0 20955
0.13950000 0.13949800 11332.65230579 0 -110.22475892 0 3588.06875993 0 471.52338322 0 593.88257707 0 20506
0.14050000 0.14048300 11630.45094385 0 -55.26443977 0 3442.74080632 0 83.80652600 0 1090.03285399 0 21447
0.14150000 0.14148400 11529.74287556 0 27.11808745 0 3154.14786173 0 111.72717246 0 177.35711216 0 21771
0.14250000 0.14249400 11365.26042481 0 184.64624679 0 3359.12427253 0 -107.65725774 0 476.95030589 0 22470
0.14350000 0.14350900 11223.40401585 0 218.12946126 0 2985.62821530 0 72.36928370 0 726.11182709 0 22519
0.14450000 0.14449900 11017.75104203 0 187.75843666 0 3072.58319937 0 212.98536412 0 -88.76750748 0 22218
0.14550000 0.14550500 10748.00204105 0 97.26802264 0 3108.05284721 0 -63.76728409 0 642.52856689 0 23559
0.14650000 0.14650700 10487.69164868 0 162.77107905 0 2879.48546050 0 23.56224971 0 -209.00251529 0 23044
0.14750000 0.14750500 10308.35808522 0 326.67900579 0 2936.58294239 0 68.74867337 0 506.64033100 0 23649
0.14850000 0.14849900 10164.72708474 0 -69.82196850 0 2689.48216558 0 121.71479531 0 205.61970022 0 23640
0.14950000 0.14949500 9976.07691585 0 -9.52739363 0 2374.30362190 0 774.04465294 0 390.43786057 0 24457
0.15050000 0.15050000 10175.76282571 0 -12.37877400 0 2255.33944344 0 41.20812223 0 211.94057336 0 24591
0.15150000 0.15149900 10161.29990489 0 40.91331821 0 2104.67662409 0 -173.17018531 0 165.12352193 0 25020
0.15250000 0.15250500 9955.38074235 0 242.26834230 0 2522.54856031 0 -191.81226914 0 308.03692196 0 25297
0.15350000 0.15350100 9786.62818078 0 78.53499100 0 2655.17709342 0 -176.91568252 0 263.15750263 0 25452
0.15450000 0.15450400 9814.71109145 0 -42.12669516 0 2419.73316460 0 322.45547800 0 30.50788997 0 26061
0.15550000 0.15549900 9998.05966820 0 55.13034720 0 2558.17348491 0 363.78904166 0 249.48094767 0 26128
0.15650000 0.15649500 9617.95325759 0 260.04309453 0 2350.00280939 0 -239.03525839 0 295.19775238 0 26331
0.15750000 0.15749700 9451.81821850 0 272.73031472 0 2852.21220720 0 -306.53073742 0 474.98605491 0 27345
0.15850000 0.15849900 9049.26322527 0 110.41042556 0 2894.83567708 0 43.62334128 0 868.06029299 0 26980
0.15950000 0.15949700 9057.58162298 0 32.23789487 0 2920.04596774 0 226.69408354 0 671.67734159 0 27777
0.16050000 0.16050000 9023.11018286 0 60.19503137 0 2795.74692354 0 475.71031007 0 805.59689002 0 28224
0.16150000 0.16150500 8876.68420075 0 62.45874467 0 2409.59581059 0 -55.71108227 0 580.62194200 0 28075
0.16250000 0.16249700 8806.48801527 0 157.57818064 0 2650.55206429 0 -50.78304164 0 836.61009492 0 28590
0.16350000 0.16349900 8550.29245696 0 240.39947561 0 2336.72664664 0 -19.08051885 0 1082.03499187 0 29163
0.16450000 0.16449100 8236.00120904 0 105.46264260 0 2706.72897684 0 -38.53126185 0 936.60943573 0 28996
0.16550000 0.16550500 8326.52755853 0 37.26165253 0 2322.66300891 0 143.21840795 0 830.66188600 0 30777
0.16650000 0.16650700 8258.81580116 0 3.20061998 0 2392.80373841 0 409.25407619 0 624.01514094 0 29211
0.16750000 0.16749900 8160.07087473 0 -9.79407037 0 2084.41300727 0 96.56317708 0 1001.16131109 0 30922
0.16850000 0.16850800 8194.37594689 0 96.89003465 0 2208.75641625 0 -112.35493421 0 624.55528223 0 30867
0.16950000 0.16949900 8249.54356051 0 72.58733664 0 2210.10954228 0 -262.09940244 0 664.84849162 0 30852
0.17050000 0.17049200 8082.89832637 0 -28.05274262 0 2150.97128015 0 143.27719130 0 446.89205304 0 31257
0.17150000 0.17149500 8159.54958847 0 -78.29453385 0 2122.79963991 0 156.75743207 0 436.72697103 0 32608
0.17250000 0.17250900 8320.80450090 0 -5.72766047 0 2022.10266281 0 207.48745779 0 335.67063916 0 32361
0.17350000 0.17350400 8408.42495680 0 91.26724145 0 2026.22858808 0 -123.71342900 0 238.58495579 0 32508
0.17450000 0.17449800 8087.20171078 0 115.81538765 0 2071.80231634 0 -182.42800740 0 253.95070004 0 32791
0.17550000 0.17549800 8063.35563734 0 151.62220788 0 2174.47352649 0 -61.45920600 0 478.65280462 0 33633
0.17650000 0.17650100 7976.48938284 0 -2.06640090 0 2288.89031420 0 252.47778909 0 571.32973720 0 33984
0.17750000 0.17750300 7966.47403200 0 3.90538790 0 2103.95569629 0 285.29885910 0 389.30988584 0 34069
0.17850000 0.17849800 7911.52824232 0 141.83200833 0 1892.55748246 0 88.88152498 0 539.22294027 0 34536
