### header ###
fiducial parameters:
Omega_m = 0.31
Omega_nu = 0
Omega_de = 0.69
Omega_k = 0
H_0 = 100
w_de = -1
zeff = 0
beta = 0
fgrowth = 0
b_1 = 2
gamma = 0.55
Lx = 3500 Ly = 3500 Lz = 3500
nx = 700 ny = 700 nz = 700
xoffset = 1379.75464 yoffset = 22.6059522 zoffset = 368.141391
bins = 400 dk = 0.001
kx_ny = 0.628318531 ky_ny = 0.628318531 kz_ny = 0.628318531
############################
A(data) = 3.34364939 (not used)
A(ran) = 3.34992461 (used)
Ngal = 188222
weighted Ngal = 0
Nran = 9399747
weighted Nran = 0
SN(data) = 6603.59381
SN(ran) = 133.244534
SN(data+ran) = 6736.83834
############################
13 columns: k_central k_mean P_0(k) sigma^{lin}_{P_0(k)} P^img_1(k) sigma^{lin}_{P_1(k)} P_2(k) sigma^{lin}_{P_2(k)} P^img_3(k) sigma^{lin}_{P_3(k)} P_4(k) sigma^{lin}_{P_4(k)} N_modes
### header ###
0.00050000 0 0 0 0 0 0 0 0 0 0 0 0
0.00150000 0.00179520 39034.80218745 0 -12910.70780758 0 -6040.23258441 0 -14775.24892654 0 57118.88789956 0 3
0.00250000 0.00253879 60134.91708569 0 -12552.79488206 0 -23968.74207693 0 18342.51060100 0 1275.76492897 0 6
0.00350000 0.00331552 61317.12776840 0 -5907.13822103 0 28269.68642951 0 -75471.04784191 0 40604.87202744 0 7
0.00450000 0.00420575 71017.26679538 0 -7523.99072975 0 -3684.70635894 0 -3470.73498742 0 -14464.14085215 0 24
0.00550000 0.00557378 78951.68726820 0 -2908.10074863 0 31953.29475995 0 -14279.25059902 0 -15051.41973055 0 45
0.00650000 0.00659388 99947.76673906 0 5969.33765352 0 -6155.51448549 0 -32739.77153555 0 -23042.18348387 0 40
0.00750000 0.00754703 100625.10613669 0 -2709.31322572 0 53864.17615510 0 31037.60553991 0 44211.84018697 0 57
0.00850000 0.00846663 85828.45120003 0 -1761.81445283 0 40992.06571291 0 -10663.73112664 0 -14040.56804069 0 75
0.00950000 0.00948925 114598.68334782 0 -5903.60012921 0 36930.46939047 0 21574.37447974 0 2186.03055371 0 112
0.01050000 0.01054430 103965.33100962 0 10257.63804158 0 57027.27461277 0 -6031.11562052 0 15871.28100897 0 105
0.01150000 0.01145670 94120.56277443 0 9942.27094755 0 45090.48480921 0 -10695.93996258 0 8238.67418750 0 144
0.01250000 0.01249090 88656.92824577 0 10084.32699807 0 71297.43043029 0 11399.42131141 0 17741.36772641 0 169
0.01350000 0.01339930 77469.57062001 0 1173.61500508 0 58940.06243846 0 8040.56322761 0 -2907.03599372 0 180
0.01450000 0.01448870 87189.23015361 0 -5585.17186482 0 61758.55740694 0 25240.12598310 0 27892.91846918 0 267
0.01550000 0.01550050 84202.25990349 0 -1810.22752751 0 18853.37113244 0 17438.91078563 0 -24574.87599015 0 238
0.01650000 0.01653350 97112.63497516 0 -4810.25211644 0 27083.37200393 0 21017.37456900 0 42732.93998590 0 315
0.01750000 0.01747870 87736.35889907 0 1911.46797325 0 2491.69285040 0 14944.05694410 0 -6827.98484766 0 297
0.01850000 0.01844180 95497.20213965 0 4894.73376360 0 12969.82388731 0 -9692.17554757 0 32023.50203663 0 388
0.01950000 0.01947590 79940.57838810 0 3830.72196676 0 9072.88747477 0 6011.62838748 0 17780.18691573 0 399
0.02050000 0.02045430 78496.61545741 0 3862.45388123 0 13501.75769295 0 1226.04309305 0 23058.37663142 0 462
0.02150000 0.02154770 71763.14979015 0 1969.50820688 0 6931.35480322 0 158.82039470 0 18720.05494512 0 571
0.02250000 0.02255340 69564.54181910 0 549.59653678 0 9877.76454610 0 300.43168822 0 4921.19735952 0 510
0.02350000 0.02348930 68396.97151636 0 5158.60443019 0 17582.98543399 0 -8141.81476455 0 12135.32222893 0 555
0.02450000 0.02439640 64691.73535187 0 4731.20515579 0 19900.82377223 0 -5144.45206289 0 953.38930759 0 592
0.02550000 0.02547300 59728.09198163 0 1062.00207195 0 28227.65079307 0 2365.53048512 0 10035.59227868 0 837
0.02650000 0.02652900 59247.28859392 0 832.16363407 0 21158.89824206 0 2523.84623036 0 6096.94187441 0 723
0.02750000 0.02749970 59299.86086746 0 -24.02197982 0 31015.31223404 0 4149.63824381 0 6556.51671115 0 826
0.02850000 0.02848090 57863.55086266 0 2033.10513018 0 28761.13736628 0 -3282.59501358 0 2387.89033816 0 831
0.02950000 0.02946900 56245.34522792 0 4148.95058960 0 36666.27707916 0 -2215.03403373 0 14627.62509516 0 996
0.03050000 0.03053250 54137.46324791 0 -1145.45445602 0 31232.81060619 0 1451.53821820 0 3204.37989270 0 1041
0.03150000 0.03150510 53522.45637713 0 797.98832891 0 34718.99563096 0 3114.31937349 0 1488.56063362 0 1036
0.03250000 0.03246190 57275.71742441 0 614.43900150 0 31544.36232847 0 -2940.62013808 0 -3990.13574050 0 1059
0.03350000 0.03345080 53185.50581384 0 1366.84583831 0 34912.09336983 0 1106.09401629 0 -10891.11175528 0 1302
0.03450000 0.03451200 50479.03193454 0 2157.08252967 0 34324.25993157 0 -1962.33220246 0 -958.03430087 0 1339
0.03550000 0.03553350 47393.12820763 0 1337.53180477 0 30621.13109450 0 1069.79031044 0 -13959.71321494 0 1365
0.03650000 0.03647120 49617.68957954 0 1400.64071541 0 32626.19767880 0 2555.47832405 0 -12361.47173470 0 1308
0.03750000 0.03744890 44950.40299176 0 1734.99593861 0 27896.24582826 0 2694.11828590 0 -14122.42107417 0 1579
0.03850000 0.03847530 43750.44639393 0 1472.52276283 0 32570.07622224 0 2314.33352000 0 -2909.48714825 0 1662
0.03950000 0.03950240 43019.42560307 0 -739.81943740 0 24327.32047426 0 4970.19826763 0 -9227.86476972 0 1683
0.04050000 0.04050350 43254.33715443 0 -760.22280330 0 25638.63268945 0 5582.49888636 0 -2251.23570057 0 1822
0.04150000 0.04152450 43166.27305067 0 431.39543266 0 22009.70395996 0 1479.01111305 0 1107.03344068 0 1887
0.04250000 0.04250150 43619.45935797 0 811.95103675 0 22964.10145736 0 -635.28934264 0 1390.38135823 0 1920
0.04350000 0.04349210 42526.64372266 0 785.37320150 0 24704.08843459 0 1177.18637049 0 2870.55704696 0 2005
0.04450000 0.04448520 41272.56208373 0 928.05479552 0 25862.67486780 0 637.61627576 0 -799.45236691 0 2151
0.04550000 0.04548030 41719.20458483 0 1111.59303174 0 26491.54573477 0 -1114.01091268 0 6622.25423547 0 2274
0.04650000 0.04648670 40302.41508666 0 313.95296641 0 26553.21278980 0 4653.89951307 0 3025.95580740 0 2311
0.04750000 0.04749250 39762.05197135 0 -79.36594347 0 24226.16875809 0 3209.55948168 0 2798.05389251 0 2568
0.04850000 0.04851840 39760.72102771 0 199.30326356 0 21189.73176958 0 1991.31350008 0 5231.81742125 0 2493
0.04950000 0.04949480 39088.15084477 0 932.37814409 0 20551.65520915 0 1799.02541859 0 2353.00852376 0 2644
0.05050000 0.05050630 37014.54066333 0 1338.94038679 0 18898.06865614 0 1723.99347124 0 6832.75406235 0 2829
0.05150000 0.05149060 35858.83794133 0 582.11814447 0 17338.42454128 0 640.64306341 0 1380.42146337 0 2784
0.05250000 0.05249300 35256.91868295 0 -71.06529168 0 17112.94050732 0 3622.54020005 0 5616.37140184 0 3055
0.05350000 0.05348950 34613.62925995 0 489.43677541 0 14636.05440484 0 584.86210659 0 3826.92877741 0 3009
0.05450000 0.05448610 34212.90431421 0 635.77070059 0 13725.46713539 0 1656.01552514 0 7664.99311655 0 3336
0.05550000 0.05550870 32829.72114280 0 929.38684828 0 17064.69380060 0 652.95540114 0 7143.37412408 0 3349
0.05650000 0.05647670 32749.64270083 0 452.60956506 0 12034.94689655 0 1290.08366423 0 7507.78649101 0 3324
0.05750000 0.05747970 31549.46427907 0 -175.77772571 0 14889.04460723 0 2864.15742632 0 5929.05442620 0 3639
0.05850000 0.05849280 32259.85544360 0 510.97144340 0 11438.01867679 0 -1081.89857015 0 7674.32081319 0 3846
0.05950000 0.05951020 31213.84465941 0 375.55125603 0 13908.58279701 0 461.01114675 0 6283.93945495 0 3787
0.06050000 0.06049470 31450.75262623 0 -240.40945769 0 13365.55779443 0 711.79531007 0 7884.48790416 0 3930
0.06150000 0.06148310 31189.66585007 0 -524.17440425 0 10320.51403708 0 1291.39242547 0 3793.77718973 0 4083
0.06250000 0.06249100 33283.90565783 0 -245.60013786 0 12419.81143065 0 -382.93133848 0 4540.51420666 0 4303
0.06350000 0.06350600 32416.13040860 0 378.96401733 0 11428.59115939 0 -1007.87924908 0 2061.69823592 0 4470
0.06450000 0.06451750 32576.62002844 0 765.19498689 0 13988.10667913 0 -1583.23509077 0 1687.24833575 0 4479
0.06550000 0.06550280 31543.14229681 0 701.83208785 0 13337.82980205 0 -2357.47827613 0 -626.65817317 0 4636
0.06650000 0.06648880 30613.92181648 0 1092.70139598 0 16767.44972238 0 -1576.70237577 0 -1830.04749646 0 4653
0.06750000 0.06749660 29897.76322954 0 999.03845599 0 18806.67719328 0 -635.25052345 0 -1859.26170922 0 5220
0.06850000 0.06852730 28788.97627062 0 510.68639964 0 19266.07457088 0 305.52143849 0 -976.73738629 0 5029
0.06950000 0.06949320 28239.40746184 0 209.60143993 0 17996.02160834 0 2284.09891712 0 -2929.50675874 0 5040
0.07050000 0.07048030 28287.87599250 0 350.88554313 0 18717.28214588 0 2190.93286276 0 1469.25085973 0 5475
0.07150000 0.07148790 27176.75988223 0 169.79180672 0 14900.80127600 0 2801.02633329 0 696.03693744 0 5509
0.07250000 0.07249820 27406.90221891 0 30.83219657 0 14059.09033960 0 2755.63006418 0 3052.99614556 0 5916
0.07350000 0.07351270 26414.24009204 0 191.45956908 0 11333.42868957 0 2198.76324780 0 1129.80477713 0 5721
0.07450000 0.07449140 25785.70196098 0 777.32542900 0 10849.36448996 0 222.13116512 0 2903.96373217 0 6028
0.07550000 0.07549160 24572.32501485 0 709.69796472 0 8894.03083278 0 3.00389542 0 4125.75889678 0 6183
0.07650000 0.07648840 23983.16063296 0 297.86074876 0 8696.89589822 0 1851.02094989 0 2078.57903767 0 6330
0.07750000 0.07749960 23389.89250820 0 -21.32559893 0 7982.42317321 0 1323.29070789 0 2261.49505774 0 6583
0.07850000 0.07848650 23392.77621940 0 9.01326120 0 5720.79502111 0 559.70727191 0 1186.56952311 0 6549
0.07950000 0.07947320 23110.94890495 0 217.85439958 0 6173.97023721 0 1566.63156894 0 4554.67766517 0 6828
0.08050000 0.08048110 23030.98137495 0 -27.03856357 0 4381.37771285 0 659.53359005 0 3366.44446251 0 7147
0.08150000 0.08149960 23000.70240729 0 -272.44416184 0 4070.44709760 0 1219.43273967 0 3373.73137891 0 7386
0.08250000 0.08250610 22799.28627071 0 504.74484544 0 4683.79028884 0 -617.97598420 0 2833.06880127 0 7227
0.08350000 0.08350160 21524.68591742 0 1150.21257952 0 4940.41840383 0 -2162.40630421 0 2076.58262222 0 7798
0.08450000 0.08449610 21708.68887479 0 395.30800515 0 6282.20922823 0 -638.52353567 0 3018.49143185 0 7371
0.08550000 0.08548940 20177.77096002 0 256.44511024 0 6933.92796091 0 -353.09269133 0 -205.56202600 0 8256
0.08650000 0.08650700 20386.28546265 0 459.64027481 0 6866.46020987 0 -43.23060199 0 1098.82706405 0 8037
0.08750000 0.08749060 20090.37232807 0 -61.23505291 0 7197.89844828 0 147.95878553 0 -586.14092160 0 8155
0.08850000 0.08849210 20085.04855354 0 66.65509904 0 7586.21234463 0 -109.11231187 0 803.95317463 0 8718
0.08950000 0.08949900 19915.79688811 0 322.14936096 0 6634.23272817 0 101.19907558 0 -1524.30756138 0 8571
0.09050000 0.09049190 19696.08027656 0 391.02014841 0 8738.62098114 0 -753.91191224 0 532.16561165 0 8932
0.09150000 0.09150830 19063.43840264 0 385.07304861 0 7637.69768086 0 -471.85944649 0 -968.71956001 0 9285
0.09250000 0.09250820 19409.70557136 0 -148.80504386 0 9212.98038342 0 516.58358906 0 -250.13421917 0 9204
0.09350000 0.09350330 18728.81699071 0 86.74292039 0 8191.52550928 0 377.13507895 0 -1504.68723398 0 9349
0.09450000 0.09448040 19512.41005510 0 367.99593266 0 8871.41588220 0 -369.02408662 0 -1234.22839640 0 9564
0.09550000 0.09549270 18825.31040416 0 -56.66703254 0 8434.04562175 0 391.75771301 0 -230.91317486 0 10155
0.09650000 0.09649430 18749.55752900 0 117.51566815 0 8755.06922622 0 41.39733805 0 -1466.98825555 0 9913
0.09750000 0.09749140 18593.06074006 0 376.48735305 0 8467.39685097 0 190.18075407 0 -308.10125090 0 10476
0.09850000 0.09850240 18297.14760548 0 230.70022388 0 7559.22746246 0 817.03191407 0 -1039.61116355 0 10575
0.09950000 0.09950330 17733.38206460 0 88.25675786 0 7940.66481670 0 119.48657384 0 -514.92101864 0 10882
0.10050000 0.10051200 17703.10309694 0 302.02660234 0 6908.37384314 0 596.01208689 0 -1301.25249956 0 10875
0.10150000 0.10150300 17045.17329397 0 283.76605568 0 7489.81875195 0 311.06592785 0 -16.03642893 0 11118
0.10250000 0.10250800 16665.18888652 0 227.70005511 0 6218.22411304 0 135.72630441 0 -294.19399905 0 11575
0.10350000 0.10349800 16511.02124894 0 235.42174642 0 6358.96031111 0 615.91413069 0 -905.53522924 0 11364
0.10450000 0.10450100 16094.65771550 0 281.60992699 0 5818.87447572 0 583.69087620 0 -558.90094190 0 12093
0.10550000 0.10551000 15862.07531550 0 90.57869994 0 5779.34544980 0 625.09875088 0 -297.52135814 0 12067
0.10650000 0.10649700 15464.89955278 0 96.73741978 0 5176.20615975 0 170.99187423 0 1130.42588416 0 12054
0.10750000 0.10749900 15413.99095879 0 210.52422751 0 4781.39282198 0 483.90892285 0 -133.23189422 0 12807
0.10850000 0.10850100 15100.77555697 0 304.70179904 0 5355.51754081 0 -387.38445405 0 1197.80490562 0 12736
0.10950000 0.10950300 14774.47254276 0 228.76702825 0 5308.02503548 0 -229.88613003 0 273.21056355 0 12933
0.11050000 0.11050200 14825.60296069 0 164.63440014 0 5986.38482323 0 -41.62315482 0 190.37041354 0 13428
0.11150000 0.11150900 14590.91323326 0 -89.96690952 0 4858.11063128 0 511.96188729 0 -254.49416870 0 13453
0.11250000 0.11250000 14489.09604528 0 180.71219924 0 5685.34755566 0 -192.68070986 0 1.89819181 0 13668
0.11350000 0.11349100 14680.41919264 0 15.68483799 0 4867.94852297 0 725.42971848 0 245.72990487 0 13791
0.11450000 0.11448600 14393.71175153 0 -55.63155839 0 5629.49228783 0 323.55239737 0 -160.25115911 0 14205
0.11550000 0.11549300 14419.99788829 0 -51.82184315 0 4282.16695615 0 28.94502941 0 -18.13477248 0 14776
0.11650000 0.11649800 14656.68403117 0 53.27756275 0 4576.36095520 0 359.21614116 0 19.76750758 0 14553
0.11750000 0.11747300 14187.63731223 0 132.12832012 0 4273.90401442 0 -91.67728300 0 44.85612782 0 14568
0.11850000 0.11849100 14215.25439263 0 51.87607910 0 3607.46726339 0 521.45151540 0 59.35498412 0 16015
0.11950000 0.11950300 14164.01306273 0 239.40570437 0 3828.22644745 0 -17.49126124 0 -313.38066065 0 15270
0.12050000 0.12050700 13856.12143545 0 143.69532942 0 4044.23859922 0 256.16450296 0 793.77145583 0 15999
0.12150000 0.12150000 13609.12047941 0 167.33288836 0 3693.63477248 0 443.57689427 0 12.86678667 0 15670
0.12250000 0.12250700 13637.62485557 0 84.30152612 0 3573.09564405 0 -27.15657390 0 1169.74417734 0 16887
0.12350000 0.12352200 13368.77424154 0 153.68406139 0 3729.72552735 0 -469.06002838 0 180.59906903 0 16407
0.12450000 0.12449800 13350.47376658 0 100.33540407 0 3982.60481777 0 330.12504069 0 1125.44593673 0 16306
0.12550000 0.12549900 13189.31867492 0 -62.97992001 0 3809.70414855 0 -70.34347658 0 33.34967646 0 17523
0.12650000 0.12650100 13204.40270277 0 90.02990752 0 4137.59320393 0 482.75987485 0 1531.22846828 0 17154
0.12750000 0.12750600 13262.07692690 0 143.70420238 0 3817.25725367 0 77.49020025 0 929.21493472 0 18007
0.12850000 0.12850300 13046.35314626 0 140.79719966 0 3813.84116501 0 204.34975817 0 1112.03667962 0 17496
0.12950000 0.12949900 12855.14091087 0 59.04997620 0 4009.82261508 0 49.35072447 0 971.78405773 0 18405
0.13050000 0.13049000 12816.76536943 0 186.92659689 0 4224.42618484 0 -343.04628513 0 1177.99602787 0 18100
0.13150000 0.13148800 12539.04179784 0 136.36072088 0 4167.56161808 0 203.59112030 0 1245.14213420 0 19059
0.13250000 0.13249300 12569.98623733 0 124.09274794 0 4439.08521057 0 78.72132311 0 1149.52492530 0 18957
0.13350000 0.13349100 12315.99782721 0 80.39609385 0 4014.58073858 0 -191.93759967 0 1137.22478789 0 19468
0.13450000 0.13450700 12435.00637047 0 35.16297624 0 4456.57602816 0 485.51381905 0 950.04974819 0 19953
0.13550000 0.13551000 12126.44927137 0 176.65060291 0 4140.19963521 0 -180.15985763 0 1097.07132758 0 19956
0.13650000 0.13649900 12001.89512964 0 190.56783684 0 4373.78024294 0 400.40884663 0 1689.28911599 0 19723
0.13750000 0.13749600 11573.22036759 0 183.67687618 0 3829.62393827 0 197.94902841 0 1116.97226226 0 20946
0.13850000 0.13851100 11688.79063979 0 109.83035596 0 4064.09184175 0 341.13970837 0 1823.10440717 0 20955
0.13950000 0.13949800 11324.11208414 0 116.25681729 0 3696.93994918 0 34.95778910 0 1619.23711606 0 20506
0.14050000 0.14048300 11218.41297722 0 147.82790940 0 3596.34279286 0 36.86314582 0 2236.56204700 0 21447
0.14150000 0.14148400 11073.38448592 0 140.85709212 0 3617.56025262 0 281.90495283 0 1317.46782949 0 21771
0.14250000 0.14249400 10904.22155007 0 153.88813942 0 3495.21325908 0 -17.91483405 0 1750.85635025 0 22470
0.14350000 0.14350900 10729.89011644 0 -27.82548399 0 3422.72119583 0 73.08333496 0 1132.95467706 0 22519
0.14450000 0.14449900 10748.30150337 0 128.17319929 0 3445.75761189 0 -186.41529271 0 1110.59482402 0 22218
0.14550000 0.14550500 10669.96437933 0 20.70948294 0 3404.86436874 0 -189.24132969 0 682.96263448 0 23559
0.14650000 0.14650700 10683.72855474 0 -36.46131176 0 3249.50997309 0 -79.64599620 0 -135.00315837 0 23044
0.14750000 0.14750500 10756.83063382 0 -2.19135433 0 3190.66008208 0 174.40463553 0 -11.76709449 0 23649
0.14850000 0.14849900 10627.68473656 0 116.74150260 0 3182.88515302 0 -89.39726564 0 -569.13700756 0 23640
0.14950000 0.14949500 10459.24272851 0 201.88196685 0 2842.57395706 0 97.20757562 0 -519.40740780 0 24457
0.15050000 0.15050000 10314.90189142 0 244.23592064 0 3218.99809028 0 -87.58496406 0 -287.45498779 0 24591
0.15150000 0.15149900 9766.88585021 0 325.91260408 0 3397.81036748 0 -1.15234209 0 -308.38296731 0 25020
0.15250000 0.15250500 9508.23913738 0 244.01742406 0 3508.04577395 0 33.21647118 0 156.11636088 0 25297
0.15350000 0.15350100 9331.33454605 0 74.24646879 0 3372.91063033 0 349.55681774 0 166.90033168 0 25452
0.15450000 0.15450400 9237.85793817 0 -51.67532844 0 3257.96146516 0 394.17226658 0 484.40026288 0 26061
0.15550000 0.15549900 9238.32376845 0 -15.99650062 0 2807.61450428 0 406.72750153 0 850.56060245 0 26128
0.15650000 0.15649500 9258.60956766 0 50.73102393 0 2831.67131046 0 53.52123635 0 1079.94651949 0 26331
0.15750000 0.15749700 9159.78700286 0 118.05359120 0 2844.22654540 0 -57.13441558 0 582.93334744 0 27345
0.15850000 0.15849900 9086.61837659 0 125.75531836 0 2905.83814445 0 -12.84260786 0 1133.34286896 0 26980
0.15950000 0.15949700 8943.63066553 0 132.06066382 0 3051.84266108 0 -116.65166390 0 945.02543597 0 27777
0.16050000 0.16050000 8818.93233824 0 60.90486798 0 2796.15729783 0 -0.21948924 0 694.53297114 0 28224
0.16150000 0.16150500 8834.22709883 0 -25.14829087 0 2866.05402100 0 364.28592729 0 651.30392191 0 28075
0.16250000 0.16249700 8944.20740777 0 -46.91066114 0 2671.62533849 0 -92.95066332 0 284.39159919 0 28590
0.16350000 0.16349900 8875.68599303 0 112.91060317 0 2650.49660831 0 -292.22642071 0 176.94895611 0 29163
0.16450000 0.16449100 8896.08270422 0 151.25952574 0 3037.67920257 0 -346.80620090 0 -266.23641890 0 28996
0.16550000 0.16550500 8691.03974623 0 6.30850646 0 2878.03251370 0 -120.08993496 0 -695.06091211 0 30777
0.16650000 0.16650700 8707.18852899 0 51.17400634 0 3082.09944635 0 235.30307062 0 -670.92314019 0 29211
0.16750000 0.16749900 8729.83675316 0 46.54265523 0 2961.09448765 0 20.30631793 0 -570.54780781 0 30922
0.16850000 0.16850800 8485.09840130 0 20.34214250 0 2790.27896345 0 465.60955701 0 -532.20997644 0 30867
0.16950000 0.16949900 8703.24006288 0 50.45318945 0 2454.40424626 0 236.98338695 0 -138.88396819 0 30852
0.17050000 0.17049200 8477.13492189 0 145.62741593 0 2595.46208905 0 -177.98043743 0 -250.93167624 0 31257
0.17150000 0.17149500 8311.13297717 0 193.85970410 0 2514.85126963 0 -9.16368001 0 -104.89909888 0 32608
0.17250000 0.17250900 8153.17215023 0 46.16766186 0 2755.74097615 0 15.46556502 0 33.91821121 0 32361
0.17350000 0.17350400 8082.04430420 0 6.71669578 0 2369.42349525 0 160.66929723 0 -339.06343631 0 32508
0.17450000 0.17449800 8144.59865499 0 -43.39730268 0 2305.92639272 0 457.51852883 0 44.52627562 0 32791
0.17550000 0.17549800 8047.47304331 0 23.14766077 0 1970.53968820 0 158.38229242 0 -307.69974958 0 33633
0.17650000 0.17650100 8075.88868989 0 221.72411819 0 1862.16760282 0 -112.55568487 0 43.50522003 0 33984
0.17750000 0.17750300 7707.21730334 0 255.66650821 0 2289.12322934 0 -355.48506251 0 -264.68254221 0 34069
0.17850000 0.17849800 7421.64116431 0 153.77279097 0 2206.57145045 0 -207.53404082 0 -27.16921787 0 34536
