### header ###
fiducial parameters:
Omega_m = 0.31
Omega_nu = 0
Omega_de = 0.69
Omega_k = 0
H_0 = 100
w_de = -1
zeff = 0
beta = 0
fgrowth = 0
b_1 = 2
gamma = 0.55
Lx = 3500 Ly = 3500 Lz = 3500
nx = 700 ny = 700 nz = 700
xoffset = 1379.75464 yoffset = 22.6059522 zoffset = 368.141391
bins = 400 dk = 0.001
kx_ny = 0.628318531 ky_ny = 0.628318531 kz_ny = 0.628318531
############################
A(data) = 3.32243974 (not used)
A(ran) = 3.32054909 (used)
Ngal = 186501
weighted Ngal = 0
Nran = 9399747
weighted Nran = 0
SN(data) = 6616.84284
SN(ran) = 132.076111
SN(data+ran) = 6748.91895
############################
13 columns: k_central k_mean P_0(k) sigma^{lin}_{P_0(k)} P^img_1(k) sigma^{lin}_{P_1(k)} P_2(k) sigma^{lin}_{P_2(k)} P^img_3(k) sigma^{lin}_{P_3(k)} P_4(k) sigma^{lin}_{P_4(k)} N_modes
### header ###
0.00050000 0 0 0 0 0 0 0 0 0 0 0 0
0.00150000 0.00179520 19447.85928886 0 -18459.41181684 0 -20418.44993380 0 17407.18996236 0 34278.56420015 0 3
0.00250000 0.00253879 29136.01982313 0 -12193.32918897 0 -6382.08545675 0 -31888.30034583 0 -25514.74401954 0 6
0.00350000 0.00331552 44443.75711516 0 -12375.66846680 0 -54274.77226613 0 41036.65232464 0 49110.37823113 0 7
0.00450000 0.00420575 66610.40151194 0 -22607.51947547 0 -34431.62271803 0 -24254.00766243 0 -15104.76838788 0 24
0.00550000 0.00557378 82988.55022144 0 3005.48145783 0 -29210.66357859 0 -42494.03560363 0 2350.97883472 0 45
0.00650000 0.00659388 60426.83738937 0 14878.28614619 0 -3082.34345268 0 -31906.37899686 0 -25008.54179082 0 40
0.00750000 0.00754703 64145.38299020 0 6597.55413986 0 14479.33579197 0 -5501.77715497 0 25509.97480485 0 57
0.00850000 0.00846663 57378.31099618 0 -7823.49741214 0 2347.28546614 0 23127.36387643 0 -23360.50083629 0 75
0.00950000 0.00948925 68833.29920430 0 -2053.87894207 0 18255.22288102 0 9577.80312464 0 15019.92073122 0 112
0.01050000 0.01054430 69640.07287032 0 -2003.72454947 0 20794.10877444 0 -7415.07517572 0 20873.96539246 0 105
0.01150000 0.01145670 68511.76540477 0 2819.48208501 0 5994.62558256 0 -4566.40106034 0 -141.62571207 0 144
0.01250000 0.01249090 72365.29087246 0 1966.32503336 0 44639.18400539 0 -360.63470525 0 19686.32002325 0 169
0.01350000 0.01339930 70812.07965184 0 -2693.39735810 0 23946.00512318 0 -5093.24400658 0 -24514.98352663 0 180
0.01450000 0.01448870 76001.42887997 0 1670.87772905 0 57392.28590433 0 -248.72341892 0 31792.13966829 0 267
0.01550000 0.01550050 69726.25147060 0 -2546.68300487 0 7973.31730052 0 -2712.98441191 0 -37338.18179028 0 238
0.01650000 0.01653350 80950.76460614 0 54.49859262 0 62157.50776117 0 9914.88678229 0 23492.26425603 0 315
0.01750000 0.01747870 83777.02341249 0 289.62775327 0 20234.22515249 0 706.08001628 0 -22837.32907624 0 297
0.01850000 0.01844180 77292.99876459 0 2296.13286581 0 55904.40183373 0 12802.01407749 0 37394.19233487 0 388
0.01950000 0.01947590 78609.63475431 0 6029.96213604 0 40356.87286368 0 3650.78947867 0 10525.42390070 0 399
0.02050000 0.02045430 72455.46230365 0 2497.04989853 0 38297.68123827 0 4275.61205875 0 19816.75249936 0 462
0.02150000 0.02154770 70665.01038030 0 952.19700392 0 41935.03927744 0 13230.91066347 0 25869.21867400 0 571
0.02250000 0.02255340 69163.26231351 0 -1599.96061577 0 30828.20374152 0 11786.06043703 0 21336.02465733 0 510
0.02350000 0.02348930 67550.71318921 0 3332.67176780 0 32447.51849596 0 6932.60810847 0 22169.63901995 0 555
0.02450000 0.02439640 65796.19674397 0 3711.74669710 0 25300.90574238 0 -263.07210041 0 20232.11782507 0 592
0.02550000 0.02547300 62275.62900867 0 420.03582875 0 33038.90111724 0 6112.18117901 0 30881.55239884 0 837
0.02650000 0.02652900 57434.43245274 0 1384.10374076 0 25951.07170748 0 5069.98576658 0 22589.55173641 0 723
0.02750000 0.02749970 60841.20450735 0 2649.74240692 0 26310.31557663 0 3383.46944983 0 21784.10901403 0 826
0.02850000 0.02848090 55921.48227703 0 126.63263204 0 25657.82046017 0 5481.70208849 0 17830.98459775 0 831
0.02950000 0.02946900 56720.15936927 0 629.66056019 0 25327.08096717 0 -191.80783266 0 18918.69828246 0 996
0.03050000 0.03053250 54623.59041015 0 1083.88056705 0 22812.48479507 0 997.36035789 0 17370.14536455 0 1041
0.03150000 0.03150510 53795.29982206 0 -369.15274451 0 18747.00655370 0 7106.46262063 0 18070.33262789 0 1036
0.03250000 0.03246190 55149.31314549 0 268.66650016 0 19820.41259435 0 1982.57363689 0 9835.34071778 0 1059
0.03350000 0.03345080 54836.98503943 0 89.02759605 0 13695.07725576 0 3545.32328689 0 10896.77935692 0 1302
0.03450000 0.03451200 54252.14622435 0 974.33392391 0 14071.17974427 0 215.73709008 0 9575.46288208 0 1339
0.03550000 0.03553350 49736.36538688 0 3048.41548122 0 15716.55881154 0 -6744.23521950 0 3721.79532154 0 1365
0.03650000 0.03647120 49639.53923753 0 3246.11606682 0 19640.73520379 0 -627.57985164 0 5833.78104442 0 1308
0.03750000 0.03744890 45283.24981217 0 1231.01194928 0 23963.41830239 0 1394.46291871 0 4053.97667014 0 1579
0.03850000 0.03847530 43651.84565306 0 392.10375835 0 20907.57171922 0 2121.02504839 0 7636.96566187 0 1662
0.03950000 0.03950240 44491.78199795 0 76.80509701 0 20163.35240399 0 3952.29257651 0 6054.89514678 0 1683
0.04050000 0.04050350 42675.93123358 0 882.53319589 0 22345.32357961 0 183.67798530 0 5192.66549602 0 1822
0.04150000 0.04152450 44228.58789437 0 183.13451665 0 22261.03048281 0 779.87529517 0 9668.36274772 0 1887
0.04250000 0.04250150 42837.64088509 0 -465.78368880 0 20832.59522785 0 2465.49544321 0 5959.61067379 0 1920
0.04350000 0.04349210 43055.91564103 0 1174.36920647 0 20109.56009879 0 -424.33921316 0 9268.91328963 0 2005
0.04450000 0.04448520 42733.49454575 0 -264.61488591 0 18968.16502085 0 4323.85876548 0 3777.28457987 0 2151
0.04550000 0.04548030 43197.88296197 0 -1010.38475047 0 17749.68612412 0 3616.83932482 0 5882.64885817 0 2274
0.04650000 0.04648670 44757.85981274 0 -847.73012898 0 13676.44404488 0 2542.09124934 0 7733.38143694 0 2311
0.04750000 0.04749250 44400.16871116 0 -448.03444632 0 12486.13678840 0 750.86737868 0 2987.43608040 0 2568
0.04850000 0.04851840 44647.50240310 0 1452.64733790 0 11314.57365476 0 -1908.38462050 0 5068.34426943 0 2493
0.04950000 0.04949480 42153.97950520 0 2043.40885215 0 14082.82550107 0 -2478.00631337 0 -929.21715296 0 2644
0.05050000 0.05050630 40624.72526998 0 1376.76136838 0 15720.32981850 0 -2047.45713904 0 3883.03914277 0 2829
0.05150000 0.05149060 39205.82844439 0 604.69760322 0 18097.39514845 0 929.52216088 0 -449.93769572 0 2784
0.05250000 0.05249300 38940.30518945 0 600.48183926 0 15937.93910263 0 1425.29644623 0 -430.76212531 0 3055
0.05350000 0.05348950 37761.08912992 0 1015.41793564 0 18130.89056323 0 -293.80026156 0 -274.53707070 0 3009
0.05450000 0.05448610 37458.18854126 0 173.29440672 0 15298.30977462 0 495.21528902 0 237.55902007 0 3336
0.05550000 0.05550870 36229.83847925 0 811.10034194 0 18607.59020806 0 335.76269609 0 -996.90783706 0 3349
0.05650000 0.05647670 36393.32272226 0 236.50535636 0 16978.84793622 0 806.47753106 0 -389.62487583 0 3324
0.05750000 0.05747970 36289.62003080 0 -83.11986999 0 15303.52263719 0 995.46043586 0 -2387.44669029 0 3639
0.05850000 0.05849280 35691.36086741 0 382.84704538 0 15400.45969852 0 898.56441196 0 -1736.28251746 0 3846
0.05950000 0.05951020 35102.41830946 0 1271.71664208 0 14239.43320198 0 -452.78480597 0 -956.21867193 0 3787
0.06050000 0.06049470 32897.71018009 0 1150.80041295 0 14914.33253627 0 701.11781477 0 673.88559890 0 3930
0.06150000 0.06148310 31851.25574803 0 694.63279191 0 15187.39780514 0 1898.76855275 0 548.65822151 0 4083
0.06250000 0.06249100 31934.32881317 0 35.75990446 0 13476.69158785 0 2214.22437635 0 2237.95953782 0 4303
0.06350000 0.06350600 30852.60437481 0 242.59775085 0 12107.37241262 0 2352.72015264 0 3590.88592396 0 4470
0.06450000 0.06451750 30895.19457109 0 748.58591946 0 11674.70481967 0 148.17839123 0 3034.18547553 0 4479
0.06550000 0.06550280 28309.06017867 0 544.17626883 0 11978.49270408 0 -436.48407382 0 3163.42010238 0 4636
0.06650000 0.06648880 29517.77882209 0 411.56659076 0 11390.10470598 0 436.15355615 0 2516.69240832 0 4653
0.06750000 0.06749660 28544.30446595 0 -164.91500742 0 11376.79526964 0 351.37022844 0 2815.17870059 0 5220
0.06850000 0.06852730 28760.13915856 0 -134.93550207 0 8719.04501853 0 2123.14346701 0 -1073.19087143 0 5029
0.06950000 0.06949320 28273.56834844 0 372.14736768 0 11276.30902529 0 -1156.21291706 0 -1209.43957122 0 5040
0.07050000 0.07048030 27965.56580919 0 1150.54531542 0 8502.47830692 0 -1181.87794680 0 -2313.43513305 0 5475
0.07150000 0.07148790 26532.47225151 0 727.76552455 0 11493.91830941 0 432.71639422 0 -429.60198611 0 5509
0.07250000 0.07249820 25610.01740132 0 141.10109846 0 8557.51282617 0 1402.28221256 0 -726.97804957 0 5916
0.07350000 0.07351270 25872.10238521 0 103.17929788 0 10150.48598786 0 2284.85311852 0 8.14165949 0 5721
0.07450000 0.07449140 24650.29612939 0 934.57974669 0 8663.44484823 0 1789.85299872 0 3658.17621584 0 6028
0.07550000 0.07549160 23888.21998708 0 677.00887996 0 7841.80897830 0 626.39531181 0 4670.12593420 0 6183
0.07650000 0.07648840 23064.58770171 0 305.90408479 0 9811.84956264 0 470.08596409 0 6984.52600139 0 6330
0.07750000 0.07749960 22747.49038096 0 579.51171319 0 8982.33894288 0 467.73241210 0 8290.34807408 0 6583
0.07850000 0.07848650 22932.82428196 0 -167.35728899 0 9632.72673193 0 383.80865215 0 9318.33566323 0 6549
0.07950000 0.07947320 22491.06190751 0 -159.13760293 0 8753.71610019 0 889.49403109 0 7790.82274593 0 6828
0.08050000 0.08048110 23037.08153328 0 52.48509673 0 9510.15791445 0 356.66627498 0 7192.91850085 0 7147
0.08150000 0.08149960 23125.36746098 0 54.27809963 0 8140.22872339 0 643.00216100 0 8429.22095107 0 7386
0.08250000 0.08250610 22547.84883589 0 -35.19436433 0 8460.66449442 0 -194.87011214 0 5459.36441784 0 7227
0.08350000 0.08350160 22740.72475082 0 326.10004531 0 7763.05038877 0 -97.14125026 0 4962.96680722 0 7798
0.08450000 0.08449610 22558.60729693 0 67.16695777 0 7488.27707558 0 -414.44808372 0 2908.16729581 0 7371
0.08550000 0.08548940 22086.89869072 0 315.37929434 0 7840.28948432 0 -747.09969907 0 2010.11307891 0 8256
0.08650000 0.08650700 21795.64385886 0 354.08978993 0 7134.60098729 0 -23.56579889 0 956.88414375 0 8037
0.08750000 0.08749060 21733.75497989 0 -122.38581273 0 7058.59301461 0 1134.41871506 0 433.53936103 0 8155
0.08850000 0.08849210 21234.09655737 0 85.97751689 0 6157.76599847 0 872.52117240 0 431.87346325 0 8718
0.08950000 0.08949900 21172.09676643 0 139.30543367 0 5564.20950259 0 578.19407899 0 289.43365732 0 8571
0.09050000 0.09049190 21091.68558856 0 112.13311027 0 4970.81937466 0 632.43446854 0 748.45837070 0 8932
0.09150000 0.09150830 20413.90254305 0 42.88755127 0 4855.27128486 0 489.02307376 0 878.37954263 0 9285
0.09250000 0.09250820 21126.73377091 0 29.35174360 0 3848.32369632 0 618.34088458 0 920.39299667 0 9204
0.09350000 0.09350330 20379.85256842 0 304.79829245 0 3878.97976469 0 -11.99934415 0 270.41336367 0 9349
0.09450000 0.09448040 19978.57306283 0 790.40195020 0 4966.90418214 0 -1709.25327049 0 37.45896493 0 9564
0.09550000 0.09549270 19077.08057488 0 497.66644355 0 4568.41965819 0 -192.35795603 0 613.61603468 0 10155
0.09650000 0.09649430 18719.05673739 0 -40.09412241 0 5201.46081520 0 782.32977706 0 -1024.60033760 0 9913
0.09750000 0.09749140 18668.14814340 0 129.61838226 0 4725.42664218 0 633.09883124 0 14.79377123 0 10476
0.09850000 0.09850240 18508.43490735 0 53.89711701 0 3789.92854439 0 248.15776788 0 -766.70671704 0 10575
0.09950000 0.09950330 18149.63468607 0 408.28914206 0 4717.03060609 0 180.68558036 0 317.89145045 0 10882
0.10050000 0.10051200 17600.17678926 0 255.95487933 0 3311.83140874 0 -265.77058863 0 -281.35261122 0 10875
0.10150000 0.10150300 17302.82179907 0 516.09446727 0 4675.41643514 0 28.30440188 0 551.72604659 0 11118
0.10250000 0.10250800 16902.54050121 0 399.31525461 0 4920.23242538 0 280.48638874 0 1081.38504773 0 11575
0.10350000 0.10349800 16214.55355452 0 126.89438428 0 4221.71993278 0 369.71839555 0 381.74568952 0 11364
0.10450000 0.10450100 16131.81322528 0 373.53487642 0 4933.10930504 0 -194.36213532 0 1512.39561586 0 12093
0.10550000 0.10551000 15805.28838713 0 -50.62011196 0 4394.25459251 0 497.65646147 0 1435.36725305 0 12067
0.10650000 0.10649700 16397.55830416 0 -259.07816039 0 4659.96639780 0 1000.69769905 0 2614.43912703 0 12054
0.10750000 0.10749900 16070.25708222 0 -113.05478873 0 3849.58809277 0 91.90842354 0 1287.08904105 0 12807
0.10850000 0.10850100 16268.34585971 0 254.03166578 0 3864.29501993 0 -309.85144178 0 1611.65073735 0 12736
0.10950000 0.10950300 15968.55080620 0 411.81392445 0 4426.27487810 0 -283.32795340 0 1498.30979574 0 12933
0.11050000 0.11050200 15833.57093934 0 287.21430881 0 5104.98958415 0 -943.75660304 0 304.49883014 0 13428
0.11150000 0.11150900 15407.89080047 0 240.81095902 0 5893.74005512 0 -284.22523123 0 1366.02508973 0 13453
0.11250000 0.11250000 15113.97408134 0 62.56777114 0 5284.33423880 0 -256.66138858 0 -363.25444597 0 13668
0.11350000 0.11349100 15339.79085121 0 -18.66371166 0 5561.03742026 0 182.01208752 0 1146.02010707 0 13791
0.11450000 0.11448600 15280.34203557 0 78.83900071 0 5436.83819684 0 684.87364771 0 -530.97774446 0 14205
0.11550000 0.11549300 15028.90460075 0 192.04851164 0 5394.65837484 0 -53.52179091 0 392.69159179 0 14776
0.11650000 0.11649800 14347.79419616 0 442.04298173 0 5001.79708774 0 121.95769252 0 -126.04812596 0 14553
0.11750000 0.11747300 14332.04469649 0 272.56061940 0 5280.81832937 0 -220.60834378 0 68.35404858 0 14568
0.11850000 0.11849100 13854.01410802 0 260.00649358 0 5230.29792727 0 -27.10688534 0 7.33125900 0 16015
0.11950000 0.11950300 13483.56812995 0 224.21409191 0 5223.18847002 0 251.47181753 0 -957.44868568 0 15270
0.12050000 0.12050700 13179.11477373 0 78.69381694 0 4654.82008241 0 338.34472674 0 -234.33924560 0 15999
0.12150000 0.12150000 12959.39816218 0 -22.77499655 0 4182.33509242 0 663.71608042 0 -797.75874113 0 15670
0.12250000 0.12250700 13096.48535646 0 62.62744178 0 4395.86281606 0 167.53142078 0 -268.22839788 0 16887
0.12350000 0.12352200 12784.93363419 0 221.74962794 0 3860.04709150 0 102.33603418 0 -470.90893091 0 16407
0.12450000 0.12449800 12748.99815607 0 12.89163095 0 3464.33536678 0 401.07320932 0 -249.91572259 0 16306
0.12550000 0.12549900 12627.21681358 0 7.19428272 0 3531.09328121 0 16.60574007 0 -476.86046719 0 17523
0.12650000 0.12650100 12824.75103123 0 94.68965209 0 3349.10892168 0 247.47455015 0 480.91984527 0 17154
0.12750000 0.12750600 12666.59056275 0 -35.87647294 0 3227.20557602 0 433.85546014 0 79.80881497 0 18007
0.12850000 0.12850300 12491.01691506 0 45.37730316 0 2798.53081398 0 94.37998587 0 166.44226524 0 17496
0.12950000 0.12949900 12755.09831439 0 107.90259501 0 3440.33401658 0 -88.62720384 0 -59.14558232 0 18405
0.13050000 0.13049000 12234.36661768 0 89.05854049 0 3233.99338856 0 -146.85188407 0 181.25899525 0 18100
0.13150000 0.13148800 12535.93626270 0 89.86353956 0 3151.50815685 0 196.58924767 0 891.57363052 0 19059
0.13250000 0.13249300 12263.64737762 0 100.84571004 0 2839.37969234 0 121.29222071 0 111.91128633 0 18957
0.13350000 0.13349100 12191.99824533 0 74.05514564 0 3212.45428408 0 452.09493352 0 566.08138280 0 19468
0.13450000 0.13450700 12050.91822015 0 239.99131957 0 2777.56845174 0 -132.86144824 0 137.57187959 0 19953
0.13550000 0.13551000 11738.81193803 0 188.31521474 0 3145.51891050 0 -162.03684182 0 392.85574150 0 19956
0.13650000 0.13649900 11323.11387641 0 219.26519983 0 3152.59509415 0 -189.99109460 0 421.40448245 0 19723
0.13750000 0.13749600 11321.11746096 0 84.46867045 0 3192.87832147 0 149.65906602 0 -9.23887833 0 20946
0.13850000 0.13851100 11225.51134327 0 63.65792488 0 3123.25887823 0 299.92703875 0 90.41532661 0 20955
0.13950000 0.13949800 11061.25071646 0 138.94386065 0 2702.59196037 0 84.95668312 0 -16.23185582 0 20506
0.14050000 0.14048300 10940.76704401 0 46.66465839 0 2798.58626996 0 344.13322243 0 672.14871746 0 21447
0.14150000 0.14148400 10969.30469376 0 -30.44101006 0 2697.88929287 0 409.97056752 0 606.42893906 0 21771
0.14250000 0.14249400 10820.84902261 0 65.83923059 0 2211.52921549 0 236.87912970 0 708.26720032 0 22470
0.14350000 0.14350900 10815.13705618 0 167.50591103 0 2390.23058072 0 -334.44395278 0 1008.99058701 0 22519
0.14450000 0.14449900 10665.48353576 0 163.65837481 0 2373.24995819 0 6.60491869 0 708.63875542 0 22218
0.14550000 0.14550500 10354.97438600 0 100.26131488 0 2367.50471817 0 184.90356256 0 987.79752788 0 23559
0.14650000 0.14650700 10285.34385156 0 60.52943096 0 2667.86542273 0 -189.42544356 0 654.14326833 0 23044
0.14750000 0.14750500 10320.68040503 0 232.62454655 0 2759.09051763 0 8.88541297 0 903.80056604 0 23649
0.14850000 0.14849900 10065.67160480 0 96.55984972 0 2746.46873550 0 123.93303470 0 831.09222444 0 23640
0.14950000 0.14949500 9839.83265254 0 -19.65127184 0 2580.93262105 0 169.78404288 0 778.75508428 0 24457
0.15050000 0.15050000 9846.04372283 0 104.92250131 0 2413.26699678 0 83.26871386 0 752.43123745 0 24591
0.15150000 0.15149900 9728.27739363 0 211.68214847 0 2624.83157857 0 -126.05145332 0 441.29543506 0 25020
0.15250000 0.15250500 9647.22292634 0 148.25270225 0 2286.97153713 0 -212.86003359 0 469.01788183 0 25297
0.15350000 0.15350100 9342.32592223 0 37.22017145 0 2968.01539454 0 98.00691819 0 387.86803024 0 25452
0.15450000 0.15450400 9392.35831166 0 -2.89503532 0 2316.09702032 0 234.53666891 0 397.86119869 0 26061
0.15550000 0.15549900 9359.86110461 0 -3.71649373 0 2045.63818274 0 419.29937327 0 -151.60113461 0 26128
0.15650000 0.15649500 9515.64805694 0 34.65633037 0 1852.96190935 0 -38.66723992 0 408.59525909 0 26331
0.15750000 0.15749700 9327.20862079 0 -10.97307570 0 2037.18669066 0 64.22080313 0 -214.76550123 0 27345
0.15850000 0.15849900 9290.38584692 0 220.51961420 0 2094.33962854 0 -371.31663703 0 274.08787722 0 26980
0.15950000 0.15949700 9165.82061400 0 101.89637913 0 1959.42630886 0 145.36566368 0 87.05802129 0 27777
0.16050000 0.16050000 9014.44795805 0 -68.32022043 0 2034.16988509 0 375.50467300 0 416.28811330 0 28224
0.16150000 0.16150500 9127.63362290 0 -27.73575621 0 1670.72245230 0 367.12083723 0 218.48437956 0 28075
0.16250000 0.16249700 9071.91144944 0 93.41871183 0 1777.41976694 0 12.75931297 0 554.20825647 0 28590
0.16350000 0.16349900 9072.76547160 0 149.49491631 0 1895.15282254 0 -118.90317688 0 1164.85295949 0 29163
0.16450000 0.16449100 8939.77092899 0 21.01948190 0 1441.07921948 0 -17.00391404 0 618.93759098 0 28996
0.16550000 0.16550500 8842.82277647 0 107.27350232 0 1729.20633380 0 -71.67364383 0 541.89702786 0 30777
0.16650000 0.16650700 8746.46245738 0 96.12452024 0 1960.24705743 0 -39.56551596 0 210.42218850 0 29211
0.16750000 0.16749900 8548.20731193 0 184.46767852 0 1914.17422531 0 47.94713350 0 423.72919733 0 30922
0.16850000 0.16850800 8381.58426018 0 160.02711693 0 1871.61730262 0 -65.49385072 0 449.84674790 0 30867
0.16950000 0.16949900 8265.09341863 0 87.21340896 0 1508.26969059 0 203.27723943 0 283.47990280 0 30852
0.17050000 0.17049200 8001.56657914 0 32.29712187 0 1941.46966100 0 322.47544215 0 667.50483329 0 31257
0.17150000 0.17149500 8086.70260692 0 119.86922014 0 1429.06745319 0 12.19277463 0 643.35375194 0 32608
0.17250000 0.17250900 7933.36680911 0 -30.08686814 0 1329.19122467 0 262.64619845 0 670.09351866 0 32361
0.17350000 0.17350400 7986.21636257 0 22.40865431 0 1212.24564405 0 -53.70579386 0 697.97789691 0 32508
0.17450000 0.17449800 7945.04583950 0 25.35658355 0 1266.34850276 0 31.58185057 0 584.15448823 0 32791
0.17550000 0.17549800 7987.22566149 0 -24.86357985 0 1097.98191485 0 65.25494633 0 397.54953605 0 33633
0.17650000 0.17650100 8100.23386720 0 -14.07816720 0 1025.07504083 0 217.85772694 0 772.60168822 0 33984
0.17750000 0.17750300 8071.72949104 0 2.05153870 0 716.31830018 0 225.37866759 0 570.18068919 0 34069
0.17850000 0.17849800 7953.70806431 0 83.87895151 0 868.08469362 0 32.12165913 0 813.44723922 0 34536
0.17950000 0.17950400 7909.15472617 0 173.83454801 0 948.12098904 0 -168.95774871 0 709.45063103 0 35343
