### header ###
fiducial parameters:
Omega_m = 0.31
Omega_nu = 0
Omega_de = 0.69
Omega_k = 0
H_0 = 100
w_de = -1
zeff = 0
beta = 0
fgrowth = 0
b_1 = 2
gamma = 0.55
Lx = 3500 Ly = 3500 Lz = 3500
nx = 700 ny = 700 nz = 700
xoffset = 1379.75464 yoffset = 22.6059522 zoffset = 368.141391
bins = 400 dk = 0.001
kx_ny = 0.628318531 ky_ny = 0.628318531 kz_ny = 0.628318531
############################
A(data) = 3.32930243 (not used)
A(ran) = 3.32246573 (used)
Ngal = 186776
weighted Ngal = 0
Nran = 9399747
weighted Nran = 0
SN(data) = 6687.94968
SN(ran) = 132.152347
SN(data+ran) = 6820.10202
############################
13 columns: k_central k_mean P_0(k) sigma^{lin}_{P_0(k)} P^img_1(k) sigma^{lin}_{P_1(k)} P_2(k) sigma^{lin}_{P_2(k)} P^img_3(k) sigma^{lin}_{P_3(k)} P_4(k) sigma^{lin}_{P_4(k)} N_modes
### header ###
0.00050000 0 0 0 0 0 0 0 0 0 0 0 0
0.00150000 0.00179520 25929.00022555 0 -22380.70449788 0 -33349.78736770 0 27518.81239611 0 -91518.45705841 0 3
0.00250000 0.00253879 47593.43522452 0 -23636.67164030 0 -7918.04986612 0 -28091.78363046 0 18656.39147464 0 6
0.00350000 0.00331552 58236.76963997 0 -12830.18571773 0 -23623.47311593 0 -16731.84698018 0 -9489.87211523 0 7
0.00450000 0.00420575 62908.38179456 0 4672.73236548 0 -1988.90671035 0 -42704.65743368 0 17608.16245106 0 24
0.00550000 0.00557378 48730.39382368 0 10822.44615497 0 22378.92990637 0 -27380.72699411 0 9616.91068508 0 45
0.00650000 0.00659388 53677.17857456 0 3170.23009730 0 19896.83094132 0 36515.54771263 0 12877.43421673 0 40
0.00750000 0.00754703 47621.16321689 0 -6229.38185717 0 16159.65212962 0 16062.71506829 0 -6015.43266803 0 57
0.00850000 0.00846663 65692.05040463 0 -10426.05786724 0 22875.48279374 0 28411.87557438 0 27937.39416894 0 75
0.00950000 0.00948925 72840.65957367 0 -76.52182784 0 28410.32280681 0 5553.53977113 0 18944.98441923 0 112
0.01050000 0.01054430 74427.36620908 0 6758.01048611 0 31773.28463348 0 -7935.80687244 0 18075.32366652 0 105
0.01150000 0.01145670 66144.90397602 0 9221.08804839 0 51175.78092682 0 1305.33406003 0 42366.37592676 0 144
0.01250000 0.01249090 60981.84088466 0 5937.69446862 0 59436.94806174 0 12094.95027204 0 41668.62872675 0 169
0.01350000 0.01339930 63466.26900106 0 1628.62026868 0 71228.77592118 0 23549.16209637 0 53358.30666230 0 180
0.01450000 0.01448870 58967.34678295 0 -2169.49357906 0 56881.53628487 0 26222.58420877 0 53666.75284943 0 267
0.01550000 0.01550050 72106.53324766 0 -4092.57403552 0 58751.40117837 0 22534.42848758 0 36131.12682641 0 238
0.01650000 0.01653350 75472.26787357 0 -5222.56736299 0 31452.52721774 0 17782.51606709 0 50561.10679195 0 315
0.01750000 0.01747870 73147.88572913 0 630.57447482 0 50928.22541094 0 -354.97486745 0 33537.45042007 0 297
0.01850000 0.01844180 77339.80361571 0 1348.42336018 0 21660.66399200 0 4443.24440943 0 33848.00393462 0 388
0.01950000 0.01947590 75955.95497248 0 2114.17068868 0 38858.00850810 0 -2510.47024684 0 23102.96324315 0 399
0.02050000 0.02045430 69914.80181872 0 2138.48259239 0 29450.23343268 0 -6283.51798947 0 -1347.87989153 0 462
0.02150000 0.02154770 69912.13993146 0 3542.08465738 0 30379.23208906 0 -5579.92572867 0 -7268.09463376 0 571
0.02250000 0.02255340 63431.88629052 0 3964.01597169 0 34512.58845575 0 -1905.65618605 0 -21901.34296578 0 510
0.02350000 0.02348930 61236.27294265 0 1663.66845104 0 36137.55972064 0 -1608.80029973 0 -10755.68824054 0 555
0.02450000 0.02439640 65229.21475598 0 -4326.33210240 0 23781.96632032 0 17516.88190018 0 -24608.14958099 0 592
0.02550000 0.02547300 66073.36575571 0 -2366.30686890 0 15913.76029328 0 7122.20102910 0 -21707.35793115 0 837
0.02650000 0.02652900 64442.18342053 0 1398.89939749 0 6280.09080961 0 -1583.37927633 0 -18213.85271640 0 723
0.02750000 0.02749970 63934.53933621 0 2256.42638074 0 12086.07731448 0 -433.71016546 0 -11754.33961376 0 826
0.02850000 0.02848090 62282.72737471 0 1877.65091376 0 11768.86908176 0 -4892.75953054 0 -17196.23539640 0 831
0.02950000 0.02946900 60072.58455884 0 3055.45839128 0 17477.84088692 0 -2303.13141109 0 -9220.68876530 0 996
0.03050000 0.03053250 56442.99035754 0 2475.08932857 0 20615.65141554 0 -774.80329081 0 -8686.75854421 0 1041
0.03150000 0.03150510 55739.91938299 0 36.52552979 0 24997.78332978 0 6915.42784440 0 1122.34040158 0 1036
0.03250000 0.03246190 56270.52224499 0 -1732.34514254 0 17972.95191869 0 5518.65795672 0 2436.19250087 0 1059
0.03350000 0.03345080 59711.12245030 0 -665.26219327 0 22882.69207176 0 5826.89341111 0 12499.44622474 0 1302
0.03450000 0.03451200 60900.09876315 0 -1126.82124515 0 18043.93557915 0 -191.23219954 0 7669.59596329 0 1339
0.03550000 0.03553350 60640.34293062 0 2224.02899445 0 24749.45143011 0 -4058.90116158 0 10892.32069574 0 1365
0.03650000 0.03647120 57843.91944407 0 2544.28730633 0 19704.62049821 0 -7412.38001486 0 1750.14651364 0 1308
0.03750000 0.03744890 56556.45330232 0 2264.14585381 0 32548.78112410 0 -2281.25957070 0 2450.44468895 0 1579
0.03850000 0.03847530 54691.91218335 0 1776.82084230 0 28199.81188873 0 7195.48056734 0 499.44768978 0 1662
0.03950000 0.03950240 51742.54109088 0 469.32954446 0 29149.99473129 0 992.77303884 0 3582.94462694 0 1683
0.04050000 0.04050350 50194.65364478 0 1088.53776065 0 21740.18787412 0 4399.76691739 0 448.42818381 0 1822
0.04150000 0.04152450 47397.89742232 0 1208.59664025 0 21854.20537875 0 6242.74674949 0 -804.30698381 0 1887
0.04250000 0.04250150 45529.14164851 0 1927.81639756 0 18601.49004974 0 -726.57433000 0 3510.97384994 0 1920
0.04350000 0.04349210 43364.25091619 0 2222.79787159 0 17251.13682130 0 1041.32253524 0 3800.49845508 0 2005
0.04450000 0.04448520 40666.20634657 0 1428.81235566 0 17907.95750457 0 -709.78336694 0 -1084.64142316 0 2151
0.04550000 0.04548030 38512.07407528 0 81.82164539 0 15066.28193447 0 3089.40854514 0 2071.52503641 0 2274
0.04650000 0.04648670 38300.12130160 0 480.25326434 0 15879.71031865 0 383.07552404 0 -4846.90852236 0 2311
0.04750000 0.04749250 38910.35895769 0 65.16022751 0 13643.28136601 0 793.78920175 0 -1122.42913116 0 2568
0.04850000 0.04851840 36609.15741488 0 48.30881743 0 12413.15671248 0 3258.85985211 0 -1601.48010975 0 2493
0.04950000 0.04949480 38410.47871124 0 -254.79474013 0 10237.20805680 0 424.76289689 0 927.33386772 0 2644
0.05050000 0.05050630 37525.06845886 0 -71.20637170 0 11347.18177379 0 892.68053198 0 -1721.33158397 0 2829
0.05150000 0.05149060 39433.30889380 0 432.18512588 0 8877.23876060 0 1771.98508043 0 -4991.68191612 0 2784
0.05250000 0.05249300 36893.97935251 0 210.69170459 0 8685.15032065 0 -1945.22957676 0 225.27219210 0 3055
0.05350000 0.05348950 36591.85514764 0 1455.29813397 0 9585.83315123 0 -439.20252619 0 -4412.66597944 0 3009
0.05450000 0.05448610 35553.60820131 0 143.09307743 0 9110.37572045 0 549.21389048 0 -1935.90188013 0 3336
0.05550000 0.05550870 35033.54197641 0 -31.70396465 0 9332.32166258 0 1082.59287908 0 -3429.66428512 0 3349
0.05650000 0.05647670 36068.46156365 0 563.45166000 0 7573.32437378 0 796.97015703 0 -2840.33353527 0 3324
0.05750000 0.05747970 34029.45591669 0 694.40653149 0 10669.65382581 0 -1654.48493996 0 -4395.44135058 0 3639
0.05850000 0.05849280 33570.61309894 0 1188.57702976 0 11334.75963321 0 -790.34871245 0 -1350.67487316 0 3846
0.05950000 0.05951020 32337.16108633 0 409.23965764 0 12478.26203857 0 104.86094516 0 -456.23860470 0 3787
0.06050000 0.06049470 32178.66788194 0 757.41673047 0 15235.97724777 0 -912.54930219 0 -1754.35007729 0 3930
0.06150000 0.06148310 31719.38141631 0 930.76437494 0 14700.38334714 0 -1211.95727293 0 -163.53858988 0 4083
0.06250000 0.06249100 31028.17802250 0 -58.39870112 0 18763.53243716 0 1384.76921258 0 1274.20107020 0 4303
0.06350000 0.06350600 30913.16231015 0 230.49392762 0 15586.56998331 0 68.04926249 0 1024.36853158 0 4470
0.06450000 0.06451750 31444.87429184 0 -37.75643083 0 17794.93820767 0 2597.91324358 0 3275.82938345 0 4479
0.06550000 0.06550280 31737.46006734 0 -646.47370564 0 15372.28805827 0 421.07285566 0 2524.07914549 0 4636
0.06650000 0.06648880 32292.68538657 0 -4.18479734 0 14349.45787570 0 2067.48784072 0 2731.93926750 0 4653
0.06750000 0.06749660 32446.52028824 0 246.77580474 0 14159.90931986 0 -164.38373909 0 1475.35101805 0 5220
0.06850000 0.06852730 31157.61229089 0 982.23529261 0 14676.75909764 0 95.50041859 0 3106.68862998 0 5029
0.06950000 0.06949320 30663.05581896 0 1055.55697740 0 13708.60851603 0 -898.32373298 0 1561.26342961 0 5040
0.07050000 0.07048030 29563.14181761 0 353.00174351 0 15571.48595546 0 1258.67339447 0 4002.80188742 0 5475
0.07150000 0.07148790 28498.83055846 0 258.23522943 0 13072.63928302 0 2271.11112550 0 1383.01680346 0 5509
0.07250000 0.07249820 28352.98131859 0 190.29499340 0 14400.69920560 0 933.90983839 0 3695.12099288 0 5916
0.07350000 0.07351270 27590.57244037 0 909.50587775 0 12645.62820052 0 -279.08557057 0 2943.80331160 0 5721
0.07450000 0.07449140 26861.65897693 0 727.13998105 0 15479.09628488 0 -82.77792839 0 3295.10588374 0 6028
0.07550000 0.07549160 26157.92253057 0 365.49154039 0 12007.44072812 0 -166.99682509 0 2886.76128570 0 6183
0.07650000 0.07648840 26033.36838884 0 53.78210130 0 14966.68298587 0 953.77306301 0 2533.27374776 0 6330
0.07750000 0.07749960 25542.02836403 0 82.89704785 0 11992.02396436 0 1644.93541939 0 2541.19286238 0 6583
0.07850000 0.07848650 25191.99018835 0 172.76313838 0 13362.89590716 0 1065.11204357 0 3483.72277904 0 6549
0.07950000 0.07947320 25340.83405139 0 151.78857583 0 9906.45747261 0 1300.75339569 0 4126.08054150 0 6828
0.08050000 0.08048110 25235.57859235 0 -71.71346123 0 10620.91910642 0 2076.69353419 0 3800.85337338 0 7147
0.08150000 0.08149960 25076.75265205 0 449.82678375 0 8379.08874087 0 456.10772858 0 5163.36255368 0 7386
0.08250000 0.08250610 23679.59457249 0 677.22515830 0 9291.75006415 0 393.27720699 0 4469.29763106 0 7227
0.08350000 0.08350160 22718.87509283 0 802.33275076 0 9622.71138108 0 -622.41357210 0 5568.69034616 0 7798
0.08450000 0.08449610 21865.96204751 0 650.98116808 0 8752.89535161 0 679.53545462 0 4179.96157627 0 7371
0.08550000 0.08548940 21213.68875499 0 390.57095493 0 10340.34509722 0 364.81608650 0 4324.55751088 0 8256
0.08650000 0.08650700 20541.89495583 0 315.77968655 0 7714.74822606 0 325.34806216 0 4598.95372338 0 8037
0.08750000 0.08749060 20327.28029489 0 303.07915693 0 10364.44626819 0 308.72457617 0 4245.78783016 0 8155
0.08850000 0.08849210 19727.69018786 0 7.05054081 0 7089.37108614 0 1150.31240029 0 5146.03810405 0 8718
0.08950000 0.08949900 20050.99857891 0 -246.95991861 0 7884.07752987 0 1533.87926435 0 4713.21523434 0 8571
0.09050000 0.09049190 20241.98899035 0 -230.99524972 0 5825.79538261 0 886.90978220 0 4013.69344282 0 8932
0.09150000 0.09150830 20403.25499398 0 261.95632600 0 5727.07263858 0 324.28219813 0 4019.95996910 0 9285
0.09250000 0.09250820 19501.98432997 0 604.59889156 0 6129.46126386 0 -1200.94371436 0 3313.65036504 0 9204
0.09350000 0.09350330 18865.01688923 0 567.98574132 0 6362.37639977 0 -724.29841639 0 3058.86338874 0 9349
0.09450000 0.09448040 18666.48446386 0 278.14947355 0 6954.29139851 0 -565.87286830 0 1603.04396852 0 9564
0.09550000 0.09549270 18004.78365393 0 66.54429798 0 5881.38446172 0 522.83126030 0 1511.65250566 0 10155
0.09650000 0.09649430 18177.47359041 0 16.48440238 0 6728.18625752 0 782.66916769 0 1310.66892577 0 9913
0.09750000 0.09749140 18134.32883428 0 58.41023596 0 5427.86541851 0 150.95119047 0 1742.91505323 0 10476
0.09850000 0.09850240 17813.79324248 0 153.07737292 0 5569.61091550 0 679.53656374 0 749.21589945 0 10575
0.09950000 0.09950330 17954.76235569 0 369.75499650 0 5744.51909138 0 -801.87912080 0 898.44795439 0 10882
0.10050000 0.10051200 17291.50877819 0 286.03420546 0 5892.76402979 0 -681.99659123 0 300.41394230 0 10875
0.10150000 0.10150300 17228.39986755 0 -18.57032379 0 7240.55519174 0 199.77685767 0 1106.81272586 0 11118
0.10250000 0.10250800 17052.16074804 0 59.93915746 0 5902.15827360 0 437.48117243 0 1321.10574209 0 11575
0.10350000 0.10349800 17478.06271086 0 -100.06511160 0 5842.21035410 0 1175.48941736 0 147.07038065 0 11364
0.10450000 0.10450100 17279.86302139 0 109.48586338 0 6112.63591809 0 251.11579010 0 1839.40846668 0 12093
0.10550000 0.10551000 17098.96559917 0 381.44179073 0 6146.19788005 0 57.63351944 0 2026.83860391 0 12067
0.10650000 0.10649700 16491.83347822 0 339.94185910 0 5842.50981642 0 -65.91065790 0 2368.28110196 0 12054
0.10750000 0.10749900 16410.20226868 0 136.60694545 0 5971.47825453 0 14.20139040 0 1562.00653981 0 12807
0.10850000 0.10850100 16194.36757607 0 122.30928347 0 6160.76062165 0 142.51744431 0 2506.22231841 0 12736
0.10950000 0.10950300 16102.08881746 0 50.30490014 0 5759.25929212 0 717.96867029 0 2130.55238657 0 12933
0.11050000 0.11050200 16024.45043882 0 113.77904389 0 5363.93575930 0 -63.60113796 0 950.72298385 0 13428
0.11150000 0.11150900 15816.60140801 0 102.45726096 0 5183.67053530 0 384.92775393 0 1849.34617915 0 13453
0.11250000 0.11250000 15561.61479017 0 177.19628980 0 4992.56921188 0 276.58450566 0 1047.92623390 0 13668
0.11350000 0.11349100 15504.71694983 0 -91.60397019 0 4112.43836925 0 713.83498119 0 1857.62021207 0 13791
0.11450000 0.11448600 15322.37767200 0 272.75138799 0 3650.43456037 0 598.22478068 0 1272.01610440 0 14205
0.11550000 0.11549300 14723.00938892 0 499.64289484 0 3668.43557302 0 -137.48758649 0 1294.12085992 0 14776
0.11650000 0.11649800 14111.55170116 0 559.85367571 0 4386.31329549 0 -534.94506561 0 1842.00380677 0 14553
0.11750000 0.11747300 13746.42949763 0 159.61341528 0 4200.97939449 0 192.19935192 0 2000.35282560 0 14568
0.11850000 0.11849100 13406.70613510 0 -187.44899226 0 4190.43166619 0 921.48437045 0 2134.73376782 0 16015
0.11950000 0.11950300 14082.38185319 0 -215.64614226 0 3806.05514475 0 296.22590633 0 1497.31158801 0 15270
0.12050000 0.12050700 13967.69887674 0 237.25512128 0 3630.50367946 0 -181.36657986 0 2212.30559928 0 15999
0.12150000 0.12150000 13854.45775590 0 252.70626775 0 4622.97725597 0 -842.65146990 0 1718.29259601 0 15670
0.12250000 0.12250700 13397.61135361 0 266.47487964 0 5022.59308202 0 -523.32370945 0 1681.07053905 0 16887
0.12350000 0.12352200 13459.16749667 0 192.29473621 0 6031.17107650 0 -343.13279647 0 2008.56031134 0 16407
0.12450000 0.12449800 13196.63886490 0 31.54879881 0 5848.16632686 0 -0.72919185 0 962.71034951 0 16306
0.12550000 0.12549900 13466.59859862 0 -19.50264980 0 5945.02574981 0 175.85536409 0 1116.48424960 0 17523
0.12650000 0.12650100 13267.06796552 0 103.31405592 0 6121.37578128 0 179.24594300 0 1473.83152407 0 17154
0.12750000 0.12750600 13148.39215818 0 159.27180642 0 5904.05486828 0 -132.12166541 0 493.68248560 0 18007
0.12850000 0.12850300 13209.28282942 0 53.53421305 0 5662.69933149 0 103.49772615 0 426.21584369 0 17496
0.12950000 0.12949900 12873.21956189 0 34.60331445 0 5524.34774076 0 56.96660577 0 -76.76893971 0 18405
0.13050000 0.13049000 12698.08956208 0 306.85349125 0 5173.91028198 0 79.66973136 0 217.71797785 0 18100
0.13150000 0.13148800 12594.49778258 0 82.17157265 0 5063.58614594 0 487.34830302 0 470.36435314 0 19059
0.13250000 0.13249300 12522.62682636 0 -158.06397507 0 4226.33387071 0 1012.15490550 0 380.89499472 0 18957
0.13350000 0.13349100 12477.04200690 0 -98.27199779 0 3756.07821130 0 577.20474422 0 588.43790849 0 19468
0.13450000 0.13450700 12488.79867567 0 -15.90522007 0 2730.05376402 0 568.11218096 0 443.72662543 0 19953
0.13550000 0.13551000 12535.49261482 0 22.14379653 0 2794.61562145 0 269.02585494 0 1130.23733381 0 19956
0.13650000 0.13649900 12473.71464782 0 163.73490407 0 2525.41008913 0 -100.67490561 0 836.90955724 0 19723
0.13750000 0.13749600 12096.61395158 0 313.25865749 0 2839.33532755 0 -154.37282472 0 645.47327968 0 20946
0.13850000 0.13851100 11960.08131715 0 178.08136732 0 2768.76204137 0 -49.69599343 0 1178.41749335 0 20955
0.13950000 0.13949800 11518.87350255 0 120.45594446 0 3134.49426073 0 -108.56973051 0 564.95008071 0 20506
0.14050000 0.14048300 11460.53380660 0 174.78728183 0 3292.25544613 0 44.19254150 0 1366.22473128 0 21447
0.14150000 0.14148400 11387.99737856 0 114.18719994 0 3251.28456460 0 5.69148099 0 532.28983306 0 21771
0.14250000 0.14249400 11182.03385123 0 95.65580626 0 3315.97951640 0 -78.19804044 0 891.89860259 0 22470
0.14350000 0.14350900 11274.97808165 0 107.58716137 0 3416.26611920 0 -200.13953981 0 433.16780593 0 22519
0.14450000 0.14449900 10943.27365452 0 157.95971782 0 3544.42489994 0 63.04957273 0 542.36063989 0 22218
0.14550000 0.14550500 10774.49891056 0 264.80565450 0 3401.71446881 0 -122.13293343 0 321.23100985 0 23559
0.14650000 0.14650700 10766.85707587 0 81.85602810 0 3489.41256308 0 93.19267324 0 520.67291338 0 23044
0.14750000 0.14750500 10469.94573356 0 -107.61444572 0 3482.59147695 0 574.60940413 0 326.58583974 0 23649
0.14850000 0.14849900 10708.48410633 0 22.38270091 0 2981.11409814 0 375.88510105 0 505.32824240 0 23640
0.14950000 0.14949500 10342.31933028 0 183.76338752 0 2690.85747400 0 -176.71049538 0 352.23423268 0 24457
0.15050000 0.15050000 10559.47387533 0 16.61073111 0 2928.70819256 0 -36.46841013 0 436.63047762 0 24591
0.15150000 0.15149900 10250.83913785 0 55.19134878 0 2612.79762988 0 -43.12002276 0 -32.00997078 0 25020
0.15250000 0.15250500 10325.47180211 0 92.20744221 0 2595.36226828 0 -128.40500531 0 -528.29367480 0 25297
0.15350000 0.15350100 10051.40832552 0 86.16495812 0 2760.49909964 0 -68.83440832 0 -504.64391555 0 25452
0.15450000 0.15450400 10220.98163567 0 11.94499729 0 2688.22886033 0 75.32497678 0 -850.31881435 0 26061
0.15550000 0.15549900 10027.68425525 0 59.30041543 0 2496.68388903 0 168.84240026 0 -1074.37319302 0 26128
0.15650000 0.15649500 9918.77979242 0 232.29735624 0 2284.34292346 0 -100.10282167 0 -1106.05519711 0 26331
0.15750000 0.15749700 9607.40552929 0 238.48624414 0 2907.85674229 0 -378.48487762 0 -918.48974727 0 27345
0.15850000 0.15849900 9281.84562527 0 236.45322774 0 3004.71616524 0 -75.67911870 0 -1072.30912127 0 26980
0.15950000 0.15949700 9443.28908805 0 -0.20814184 0 2949.40436606 0 198.12205109 0 -870.31513333 0 27777
0.16050000 0.16050000 9112.43868308 0 56.50953754 0 3225.57517007 0 -174.77286327 0 -976.87602625 0 28224
0.16150000 0.16150500 9115.71058618 0 140.86929244 0 3239.87172294 0 23.09564305 0 -681.33222853 0 28075
0.16250000 0.16249700 9075.73791238 0 158.22368830 0 3130.54579462 0 56.48602420 0 -793.86129453 0 28590
0.16350000 0.16349900 8978.21301762 0 14.97233950 0 3466.99725404 0 178.94758980 0 16.74537824 0 29163
0.16450000 0.16449100 8863.98478025 0 -3.22190398 0 3207.04177997 0 314.27239289 0 -377.62420074 0 28996
0.16550000 0.16550500 9027.12519616 0 37.87699214 0 3386.12024590 0 98.94201700 0 281.05093067 0 30777
0.16650000 0.16650700 8876.02982013 0 134.55618314 0 3212.55410486 0 -167.82533750 0 -280.37880413 0 29211
0.16750000 0.16749900 8783.58469357 0 87.57365104 0 3594.94530204 0 -55.85970431 0 308.92976332 0 30922
0.16850000 0.16850800 8714.32016863 0 -11.06517700 0 3390.10198560 0 211.35384905 0 66.39035216 0 30867
0.16950000 0.16949900 8789.71812548 0 10.19896561 0 3043.31353062 0 342.08911483 0 182.04092463 0 30852
0.17050000 0.17049200 8698.19356826 0 92.82932563 0 3117.97946848 0 86.11937330 0 208.68197970 0 31257
0.17150000 0.17149500 8419.79343367 0 260.73296698 0 3247.19191293 0 -87.13887612 0 318.69334399 0 32608
0.17250000 0.17250900 8295.41675109 0 207.64051631 0 3259.28131760 0 -61.41805766 0 575.96474840 0 32361
0.17350000 0.17350400 7972.15272484 0 136.36293912 0 3513.84646995 0 -94.86034561 0 191.33202031 0 32508
0.17450000 0.17449800 7782.19379471 0 196.44173475 0 3657.91002711 0 -68.63654137 0 686.13915329 0 32791
0.17550000 0.17549800 7722.97789420 0 106.47759803 0 3632.02317344 0 -56.01564654 0 523.74295669 0 33633
0.17650000 0.17650100 7565.26107359 0 -103.38470685 0 3415.92229210 0 515.41457690 0 514.01930433 0 33984
0.17750000 0.17750300 7776.90329376 0 -141.01680536 0 3051.07736849 0 508.37832156 0 971.25278940 0 34069
0.17850000 0.17849800 7887.06106185 0 -58.42565272 0 2673.57738916 0 537.85539569 0 1108.12259622 0 34536
