### header ###
fiducial parameters:
Omega_m = 0.31
Omega_nu = 0
Omega_de = 0.69
Omega_k = 0
H_0 = 100
w_de = -1
zeff = 0
beta = 0
fgrowth = 0
b_1 = 2
gamma = 0.55
Lx = 3500 Ly = 3500 Lz = 3500
nx = 700 ny = 700 nz = 700
xoffset = 1379.75464 yoffset = 22.6059522 zoffset = 368.141391
bins = 400 dk = 0.001
kx_ny = 0.628318531 ky_ny = 0.628318531 kz_ny = 0.628318531
############################
A(data) = 3.3352563 (not used)
A(ran) = 3.33981333 (used)
Ngal = 187203
weighted Ngal = 0
Nran = 9399747
weighted Nran = 0
SN(data) = 6626.586
SN(ran) = 132.842354
SN(data+ran) = 6759.42835
############################
13 columns: k_central k_mean P_0(k) sigma^{lin}_{P_0(k)} P^img_1(k) sigma^{lin}_{P_1(k)} P_2(k) sigma^{lin}_{P_2(k)} P^img_3(k) sigma^{lin}_{P_3(k)} P_4(k) sigma^{lin}_{P_4(k)} N_modes
### header ###
0.00050000 0 0 0 0 0 0 0 0 0 0 0 0
0.00150000 0.00179520 36966.29395661 0 -16017.79572065 0 -38605.35104162 0 39162.79460024 0 -22878.47741692 0 3
0.00250000 0.00253879 63282.59877960 0 -10632.72013997 0 -8630.96982356 0 -34569.15356019 0 9239.38852335 0 6
0.00350000 0.00331552 61104.06587503 0 -1766.97185941 0 -26966.91443597 0 -15807.61753848 0 59090.34815711 0 7
0.00450000 0.00420575 54241.60958725 0 2908.76622044 0 -7928.79723597 0 -18503.33295675 0 5418.13843878 0 24
0.00550000 0.00557378 48101.74478066 0 1836.11438119 0 -12198.98569941 0 -6446.08166314 0 -5376.86809494 0 45
0.00650000 0.00659388 49294.27027653 0 -2850.30452133 0 3346.66885835 0 2291.77402541 0 -6912.46649481 0 40
0.00750000 0.00754703 51286.69289631 0 -2503.83771106 0 -20542.11677977 0 5881.32900573 0 15246.29206094 0 57
0.00850000 0.00846663 45169.23230754 0 -204.64700225 0 -941.31653971 0 -4991.70409852 0 7033.68218626 0 75
0.00950000 0.00948925 53198.03886639 0 -6231.20081347 0 -18530.72821321 0 7349.74802569 0 14563.07432892 0 112
0.01050000 0.01054430 60779.20471641 0 -2932.49029072 0 -7074.80834454 0 -818.37616714 0 23152.09724563 0 105
0.01150000 0.01145670 64729.33450952 0 -2722.85557720 0 -17516.54916427 0 -113.42523471 0 9014.03758376 0 144
0.01250000 0.01249090 69392.62826640 0 -3883.95971212 0 3627.22068516 0 -6819.20061968 0 21818.04807670 0 169
0.01350000 0.01339930 74311.35228900 0 3513.26972771 0 -2429.59323869 0 -10230.16514674 0 13014.52141101 0 180
0.01450000 0.01448870 75299.35611315 0 495.02562955 0 18196.21771325 0 -1485.02254179 0 19711.49704032 0 267
0.01550000 0.01550050 69527.27539735 0 1249.46770101 0 9209.76393630 0 -628.64904303 0 2120.01574947 0 238
0.01650000 0.01653350 75418.36465640 0 4907.38881932 0 41521.22671931 0 447.82038622 0 26634.17852752 0 315
0.01750000 0.01747870 68720.61264331 0 4082.86923819 0 46255.94778453 0 -4805.03925388 0 11270.65251484 0 297
0.01850000 0.01844180 67475.07122602 0 -2280.27245418 0 47295.41476252 0 11270.31977894 0 21814.49889367 0 388
0.01950000 0.01947590 70983.10590878 0 -762.03510488 0 43065.34315844 0 8369.84977381 0 17851.05966423 0 399
0.02050000 0.02045430 72239.40578710 0 2737.08558288 0 36068.90521153 0 -3905.50990779 0 6006.62625766 0 462
0.02150000 0.02154770 69501.65473240 0 3112.50041719 0 45091.48301694 0 3653.11863003 0 18973.71061932 0 571
0.02250000 0.02255340 67112.38908582 0 -1016.88530100 0 45891.26922887 0 4194.85705377 0 6246.35138850 0 510
0.02350000 0.02348930 68847.27411246 0 -660.74031228 0 40775.67646045 0 14133.06862324 0 9709.41126763 0 555
0.02450000 0.02439640 68376.12006610 0 1077.75268073 0 24229.71794112 0 7779.14371554 0 7795.71396379 0 592
0.02550000 0.02547300 67188.80743279 0 -810.47923491 0 25453.40970041 0 7547.87007678 0 22155.66411180 0 837
0.02650000 0.02652900 67627.02062421 0 1707.66722933 0 23235.50304668 0 5847.73377018 0 9573.06718354 0 723
0.02750000 0.02749970 64730.44362922 0 2515.41692068 0 21802.74222491 0 7528.97067718 0 18193.11217811 0 826
0.02850000 0.02848090 60524.10718660 0 3250.95182869 0 21703.14327631 0 -950.61650835 0 12522.95956227 0 831
0.02950000 0.02946900 56754.98572769 0 558.01586438 0 14378.07316383 0 -345.46194783 0 13744.76581808 0 996
0.03050000 0.03053250 58312.52251513 0 652.78681494 0 24006.45214655 0 -786.21391423 0 7685.11254782 0 1041
0.03150000 0.03150510 55535.50862323 0 1255.27948821 0 17018.55442129 0 -6576.56959524 0 1235.39297208 0 1036
0.03250000 0.03246190 55007.56764850 0 1837.11258891 0 24710.63224079 0 440.95937179 0 -1367.26730379 0 1059
0.03350000 0.03345080 55483.26908561 0 -907.54828149 0 22216.66569502 0 -1392.85469515 0 -4529.48955690 0 1302
0.03450000 0.03451200 54470.75371620 0 971.60548946 0 25401.61381067 0 2164.02561896 0 -5839.17136613 0 1339
0.03550000 0.03553350 55777.40762867 0 1944.84138487 0 27680.85478353 0 1654.97295263 0 -5200.59570184 0 1365
0.03650000 0.03647120 50601.36783688 0 374.28907781 0 23985.04613644 0 -710.65735326 0 -4716.94187652 0 1308
0.03750000 0.03744890 54115.39176598 0 810.52581794 0 26597.91031350 0 4966.46053426 0 -672.58238326 0 1579
0.03850000 0.03847530 52129.18021649 0 -82.97124795 0 24940.77457747 0 2806.30574304 0 2132.47116364 0 1662
0.03950000 0.03950240 49665.60355035 0 2481.98805307 0 24673.47673102 0 -279.92184682 0 4055.70689686 0 1683
0.04050000 0.04050350 48475.85085372 0 2502.22948750 0 24940.88548944 0 -237.19522881 0 1490.64577864 0 1822
0.04150000 0.04152450 44050.13053547 0 2567.88937344 0 26107.90123233 0 -3332.18375514 0 400.43213814 0 1887
0.04250000 0.04250150 42779.52301308 0 1458.55894587 0 28875.82034273 0 1317.68965343 0 1726.72190569 0 1920
0.04350000 0.04349210 41450.90853065 0 -691.50507437 0 22613.73054576 0 5220.47112677 0 2826.17007677 0 2005
0.04450000 0.04448520 42707.65205686 0 -751.29660800 0 24756.54979616 0 4186.72720641 0 -396.13762668 0 2151
0.04550000 0.04548030 43188.01179668 0 -670.21552183 0 18255.77744087 0 4932.73220434 0 2208.59004830 0 2274
0.04650000 0.04648670 42595.63096768 0 775.05506098 0 16338.44222443 0 2767.15381781 0 7448.62604649 0 2311
0.04750000 0.04749250 42340.86617378 0 469.40274636 0 15398.90693094 0 1870.02017026 0 7301.61223094 0 2568
0.04850000 0.04851840 41769.66953095 0 79.33322444 0 15608.75237720 0 3503.73129834 0 10500.50198115 0 2493
0.04950000 0.04949480 40025.57881084 0 675.24427052 0 15239.97007867 0 641.33626321 0 7550.48759926 0 2644
0.05050000 0.05050630 39082.38342236 0 1989.74964131 0 15002.72937595 0 -851.82388978 0 11056.70332571 0 2829
0.05150000 0.05149060 38445.74871753 0 454.67918241 0 15143.92031310 0 2150.47217629 0 12900.17117048 0 2784
0.05250000 0.05249300 37022.74814908 0 70.77004402 0 14210.04153006 0 1552.32392487 0 8929.97740209 0 3055
0.05350000 0.05348950 37076.42954230 0 1359.28164199 0 15530.44852675 0 205.03630326 0 9229.83900278 0 3009
0.05450000 0.05448610 33742.85938755 0 2164.23635170 0 14752.84470871 0 -2535.74708468 0 8965.22522599 0 3336
0.05550000 0.05550870 32746.31534175 0 498.58479465 0 15935.60995127 0 1339.37294347 0 7409.25229732 0 3349
0.05650000 0.05647670 32082.17446849 0 -562.68636742 0 15619.62175021 0 1819.46649457 0 5674.10108195 0 3324
0.05750000 0.05747970 32777.48160517 0 -400.76154669 0 13412.02990964 0 2120.63685650 0 3605.68158069 0 3639
0.05850000 0.05849280 33073.83838763 0 243.73459854 0 12589.72856790 0 -7.89574547 0 2600.10930057 0 3846
0.05950000 0.05951020 32219.92713459 0 736.00073829 0 8937.27540968 0 -1646.46600457 0 -84.62361448 0 3787
0.06050000 0.06049470 31600.48378503 0 764.53173332 0 15348.33107286 0 -2606.89711310 0 -1642.19589374 0 3930
0.06150000 0.06148310 30980.26405168 0 1225.59944517 0 12279.17505335 0 -823.95725745 0 -4348.00430123 0 4083
0.06250000 0.06249100 29236.94971536 0 454.62816291 0 14511.94391099 0 362.51355401 0 -3672.69459265 0 4303
0.06350000 0.06350600 29466.09384431 0 -406.65208139 0 13104.24919432 0 2651.45045125 0 -2458.92945462 0 4470
0.06450000 0.06451750 29665.51356544 0 -257.83372810 0 13512.73797793 0 2543.51092255 0 -594.86525712 0 4479
0.06550000 0.06550280 30170.71758643 0 -130.80735857 0 10320.76913461 0 1986.43337343 0 1410.63388386 0 4636
0.06650000 0.06648880 30326.43799159 0 -311.20567693 0 10509.19747956 0 2230.91662776 0 3854.01348036 0 4653
0.06750000 0.06749660 30535.06340618 0 -305.48483754 0 8902.23831852 0 117.65874459 0 4414.93967482 0 5220
0.06850000 0.06852730 30507.00267790 0 1291.22605752 0 11313.68635900 0 -945.11527467 0 3905.74282292 0 5029
0.06950000 0.06949320 29388.56637764 0 656.81846503 0 11142.54919009 0 -1110.18444973 0 3202.79385154 0 5040
0.07050000 0.07048030 28883.69509256 0 572.34347260 0 13205.95547034 0 -1362.30953876 0 4419.50924796 0 5475
0.07150000 0.07148790 28235.08189503 0 425.25090955 0 13960.26777479 0 449.26889654 0 3077.64078518 0 5509
0.07250000 0.07249820 27668.21081901 0 -119.59194021 0 12995.99911211 0 1815.25183973 0 3570.40048319 0 5916
0.07350000 0.07351270 28574.69434558 0 -286.94922921 0 11893.31231152 0 2176.05956765 0 4352.34095924 0 5721
0.07450000 0.07449140 28401.33893728 0 -341.29165777 0 10497.49626678 0 1445.03877679 0 3831.30980020 0 6028
0.07550000 0.07549160 28646.23256590 0 524.33966309 0 10735.22498217 0 405.63723687 0 4612.55153084 0 6183
0.07650000 0.07648840 27257.72561995 0 413.33563667 0 8370.88125513 0 324.24005158 0 3501.80143007 0 6330
0.07750000 0.07749960 27331.03843178 0 164.66323725 0 10607.83149402 0 622.12409186 0 4228.49665412 0 6583
0.07850000 0.07848650 26538.01784998 0 162.82320768 0 7352.80919605 0 489.40017446 0 1876.56397646 0 6549
0.07950000 0.07947320 26666.34299867 0 610.92641942 0 9030.38600806 0 306.17027352 0 3045.54286121 0 6828
0.08050000 0.08048110 25437.21655287 0 541.46668941 0 7255.31757488 0 221.11964796 0 1276.06439129 0 7147
0.08150000 0.08149960 24922.14136660 0 298.73806244 0 7258.93330508 0 617.00661359 0 1879.72496759 0 7386
0.08250000 0.08250610 24227.83243764 0 511.58367748 0 5945.65794803 0 267.58178109 0 1105.24332149 0 7227
0.08350000 0.08350160 23426.27163419 0 797.60235526 0 6540.62302593 0 -163.00066683 0 775.33566826 0 7798
0.08450000 0.08449610 22120.28319354 0 509.58504379 0 6670.64512775 0 405.91673503 0 1517.37556329 0 7371
0.08550000 0.08548940 22105.53190159 0 34.17696884 0 6035.85156162 0 1388.20748363 0 1517.35338090 0 8256
0.08650000 0.08650700 21803.29678475 0 -77.42664769 0 3916.52346636 0 1901.18643368 0 2484.88285548 0 8037
0.08750000 0.08749060 21686.61739286 0 61.49070500 0 3290.64722257 0 899.87650056 0 2935.54036988 0 8155
0.08850000 0.08849210 20963.69317577 0 490.74886401 0 2589.06246841 0 362.00557719 0 3409.01247640 0 8718
0.08950000 0.08949900 20634.50645035 0 512.45877292 0 3553.78587016 0 -112.59894054 0 2905.87141804 0 8571
0.09050000 0.09049190 19834.60932645 0 289.72535580 0 1997.80185030 0 -120.23301140 0 2731.79508194 0 8932
0.09150000 0.09150830 19699.40763565 0 117.70754585 0 3170.85120433 0 -137.36780156 0 1623.14121739 0 9285
0.09250000 0.09250820 19529.04685052 0 103.25105793 0 2437.05761424 0 -243.81445515 0 1002.99468594 0 9204
0.09350000 0.09350330 19192.76175905 0 161.69745119 0 2486.13616073 0 -434.00075482 0 532.87323002 0 9349
0.09450000 0.09448040 19066.21120187 0 540.23113007 0 2873.52948774 0 -801.47761947 0 -284.94948640 0 9564
0.09550000 0.09549270 18140.87264048 0 594.94622286 0 3576.62264468 0 -785.40314773 0 -1402.67040445 0 10155
0.09650000 0.09649430 17945.44575025 0 401.88730318 0 4142.88370487 0 -764.00711970 0 -1464.06017956 0 9913
0.09750000 0.09749140 16979.73523197 0 225.44188741 0 4650.43905962 0 361.67727776 0 -401.99377867 0 10476
0.09850000 0.09850240 17189.80250217 0 154.03565234 0 4186.28355853 0 580.33246176 0 -1624.91580890 0 10575
0.09950000 0.09950330 17099.63107098 0 -123.07124870 0 3352.36973359 0 388.61668603 0 -760.59214016 0 10882
0.10050000 0.10051200 16977.07334471 0 115.13882464 0 4037.66151942 0 575.05748849 0 -686.81904366 0 10875
0.10150000 0.10150300 16481.74048900 0 381.98415026 0 3281.68553543 0 -559.72612695 0 -1183.38634959 0 11118
0.10250000 0.10250800 16343.43326305 0 185.23851671 0 3962.03064743 0 -69.65426960 0 -34.96699479 0 11575
0.10350000 0.10349800 16020.34669595 0 234.24718867 0 4154.31872893 0 -215.32782491 0 -1614.74518130 0 11364
0.10450000 0.10450100 15777.67130672 0 354.88613787 0 5080.22294136 0 -669.07091030 0 -925.47498311 0 12093
0.10550000 0.10551000 15370.95711463 0 521.96060134 0 5547.88326068 0 -980.26438692 0 -1758.93074162 0 12067
0.10650000 0.10649700 14960.25009164 0 410.13360811 0 6900.48800211 0 -810.64449375 0 -648.32593553 0 12054
0.10750000 0.10749900 14683.41381581 0 55.25301584 0 7364.04457856 0 -306.87456452 0 -1830.66860349 0 12807
0.10850000 0.10850100 15043.10133284 0 44.22071314 0 8162.66621482 0 255.16629523 0 -319.12368243 0 12736
0.10950000 0.10950300 14926.20011701 0 -48.00214583 0 7755.13127415 0 307.14075325 0 -1383.40499535 0 12933
0.11050000 0.11050200 15443.04989480 0 -204.86549883 0 8005.59268364 0 671.34460568 0 361.67838688 0 13428
0.11150000 0.11150900 15758.81627191 0 -283.69839938 0 6719.96768058 0 1057.07536226 0 531.49459424 0 13453
0.11250000 0.11250000 15816.15776013 0 -125.49245699 0 7526.65261702 0 415.72578961 0 558.39296508 0 13668
0.11350000 0.11349100 16107.96715184 0 30.93789568 0 5999.78298914 0 712.49294636 0 1605.79458536 0 13791
0.11450000 0.11448600 15859.52434020 0 136.94079048 0 6507.33834389 0 -75.58939091 0 312.47450986 0 14205
0.11550000 0.11549300 15504.71694983 0 341.32936784 0 6216.29424477 0 -288.46428671 0 1283.50658444 0 14776
0.11650000 0.11649800 15154.34603823 0 255.84840384 0 6428.60193675 0 226.33472876 0 205.90030751 0 14553
0.11750000 0.11747300 14999.40201687 0 134.07149783 0 5570.98622393 0 344.10216708 0 -166.74061844 0 14568
0.11850000 0.11849100 14463.14264442 0 224.57899229 0 5656.76554112 0 323.79196723 0 174.97139570 0 16015
0.11950000 0.11950300 14303.20758443 0 277.72689894 0 4855.81475351 0 10.47211961 0 -644.83886321 0 15270
0.12050000 0.12050700 13927.43783182 0 41.79473564 0 4355.16921446 0 1060.80755004 0 608.01941670 0 15999
0.12150000 0.12150000 13577.62148008 0 114.72734123 0 4299.83523289 0 652.02152235 0 -69.06588160 0 15670
0.12250000 0.12250700 13631.19196134 0 10.74301100 0 3187.54345574 0 638.49913503 0 1050.52379223 0 16887
0.12350000 0.12352200 13398.60956133 0 36.96707034 0 3113.09934182 0 615.37066204 0 739.42791814 0 16407
0.12450000 0.12449800 13472.14419710 0 70.51561196 0 2605.52180468 0 180.81423825 0 1696.96422428 0 16306
0.12550000 0.12549900 13500.98130916 0 -54.20356678 0 2538.84152863 0 -167.28630533 0 480.80560594 0 17523
0.12650000 0.12650100 13306.10897878 0 341.48575372 0 3027.75258130 0 -853.48091460 0 758.26853440 0 17154
0.12750000 0.12750600 12735.13415989 0 400.40551927 0 3318.31975895 0 -825.15954319 0 -302.67654648 0 18007
0.12850000 0.12850300 12653.83568626 0 100.17946184 0 4404.59158806 0 -203.79741656 0 -100.11158372 0 17496
0.12950000 0.12949900 12451.86498983 0 99.68745635 0 4134.84258709 0 -31.44154693 0 -913.04396957 0 18405
0.13050000 0.13049000 12558.56230447 0 62.23636617 0 4073.85209507 0 586.10432065 0 -559.20262245 0 18100
0.13150000 0.13148800 12220.83535740 0 165.94537962 0 4005.81869299 0 28.33845185 0 -564.61845392 0 19059
0.13250000 0.13249300 12214.06972726 0 293.46087093 0 4419.07669128 0 -110.64977359 0 -129.23795420 0 18957
0.13350000 0.13349100 11652.74424971 0 252.46780701 0 3968.94046313 0 -169.63874820 0 -281.85060597 0 19468
0.13450000 0.13450700 11616.69785963 0 143.45465045 0 4559.81288935 0 55.68767985 0 393.33155385 0 19953
0.13550000 0.13551000 11295.49679601 0 -13.02616717 0 4214.33319561 0 608.29891486 0 298.58167656 0 19956
0.13650000 0.13649900 11598.28647270 0 -115.69671185 0 3794.96394780 0 727.01465052 0 437.45566267 0 19723
0.13750000 0.13749600 11568.56206487 0 -137.55635191 0 3281.74099142 0 501.64485589 0 429.74173520 0 20946
0.13850000 0.13851100 11659.84261576 0 106.54558707 0 3099.71226710 0 48.47962186 0 502.46005887 0 20955
0.13950000 0.13949800 11492.58736578 0 162.41505163 0 2876.95666760 0 -323.07547590 0 263.22404981 0 20506
0.14050000 0.14048300 11315.57186249 0 19.14285137 0 2620.58365014 0 324.28663461 0 331.01455468 0 21447
0.14150000 0.14148400 11386.22278705 0 -121.28223863 0 2856.99251309 0 311.51068485 0 -84.50394046 0 21771
0.14250000 0.14249400 11520.75900603 0 95.57506234 0 2030.96452917 0 153.83379255 0 -16.61195114 0 22470
0.14350000 0.14350900 11179.15014002 0 162.50821769 0 1944.69719931 0 190.01438612 0 -84.71345317 0 22519
0.14450000 0.14449900 10965.45604842 0 270.75275430 0 2174.30715853 0 -238.58162843 0 85.24649610 0 22218
0.14550000 0.14550500 10811.44368760 0 220.07152985 0 2025.01964761 0 83.97599949 0 673.15912550 0 23559
0.14650000 0.14650700 10389.32382295 0 136.86980682 0 2587.18805613 0 479.70757745 0 839.84539707 0 23044
0.14750000 0.14750500 10310.16595033 0 16.33566943 0 2093.04195849 0 474.36162052 0 1743.46961308 0 23649
0.14850000 0.14849900 10329.69754815 0 -35.41940472 0 1879.86915315 0 376.58162822 0 1397.53518026 0 23640
0.14950000 0.14949500 10440.96443594 0 -28.87371302 0 1674.94819833 0 99.54837274 0 2210.24263664 0 24457
0.15050000 0.15050000 10192.79890422 0 129.18693469 0 1873.69135645 0 -334.92863808 0 1204.50398858 0 24591
0.15150000 0.15149900 10273.02153175 0 218.45997893 0 2167.48607241 0 -628.75551852 0 1605.73912938 0 25020
0.15250000 0.15250500 9867.48300653 0 222.14336544 0 2422.77215257 0 -318.98726071 0 504.80917438 0 25297
0.15350000 0.15350100 9774.72732645 0 89.94883087 0 2535.62508151 0 -0.21145589 0 921.89141738 0 25452
0.15450000 0.15450400 9695.14798835 0 16.47719310 0 2353.47435403 0 309.75827573 0 409.27404035 0 26061
0.15550000 0.15549900 9803.66425929 0 16.63014070 0 2198.04232000 0 248.50935882 0 499.15599130 0 26128
0.15650000 0.15649500 9607.47207647 0 118.71019006 0 2131.70587105 0 22.51313339 0 518.50569349 0 26331
0.15750000 0.15749700 9228.40823837 0 279.43050679 0 2278.27603873 0 -317.07846571 0 368.67804128 0 27345
0.15850000 0.15849900 9252.83105405 0 190.78078783 0 2291.24164796 0 -66.75824717 0 685.18198299 0 26980
0.15950000 0.15949700 8944.76196762 0 -60.96453862 0 2186.51856637 0 433.13120498 0 333.15959217 0 27777
0.16050000 0.16050000 9072.03345260 0 -46.67342044 0 2075.08531063 0 465.28347582 0 895.89586997 0 28224
0.16150000 0.16150500 9142.34055006 0 -25.00621264 0 1616.03176014 0 414.23402362 0 948.06996954 0 28075
0.16250000 0.16249700 9171.41057726 0 -20.64493218 0 1508.86861523 0 113.24444820 0 1070.39810804 0 28590
0.16350000 0.16349900 9027.29156411 0 106.34350546 0 1431.97334679 0 77.97510738 0 1013.25737048 0 29163
0.16450000 0.16449100 8966.62271681 0 239.47890627 0 1589.98962971 0 -519.03696183 0 1209.63921276 0 28996
0.16550000 0.16550500 8718.17990517 0 128.69670379 0 1879.33677569 0 -110.10275575 0 975.16465456 0 30777
0.16650000 0.16650700 8669.26772662 0 123.65575478 0 2007.59537720 0 -29.05793780 0 644.48394491 0 29211
0.16750000 0.16749900 8651.27780517 0 19.29557715 0 1714.58813623 0 2.15233550 0 723.42997567 0 30922
0.16850000 0.16850800 8472.97572303 0 58.76482153 0 1996.93673694 0 -139.53945793 0 384.01494842 0 30867
0.16950000 0.16949900 8562.88096550 0 69.34526886 0 2068.57477803 0 57.13042274 0 740.16104626 0 30852
0.17050000 0.17049200 8330.84203414 0 65.14736172 0 2161.09754297 0 -38.92999038 0 29.22053474 0 31257
0.17150000 0.17149500 8396.66828803 0 134.11253526 0 2117.56459495 0 -198.90508959 0 79.77809235 0 32608
0.17250000 0.17250900 8195.21887786 0 91.70645285 0 2229.06439787 0 82.98699745 0 257.34349719 0 32361
0.17350000 0.17350400 8180.19030600 0 -1.85404885 0 2276.76763594 0 -22.58999538 0 192.67183691 0 32508
0.17450000 0.17449800 8134.20620345 0 57.05067704 0 2056.26354941 0 228.01060862 0 141.98950333 0 32791
0.17550000 0.17549800 8105.99019841 0 121.93551013 0 2044.49578945 0 14.80330965 0 -128.90521829 0 33633
0.17650000 0.17650100 7812.88313666 0 179.69402736 0 2202.85589948 0 -76.06875245 0 361.62625826 0 33984
0.17750000 0.17750300 7781.31759015 0 108.65746188 0 2124.87369373 0 -51.86432243 0 134.93661119 0 34069
0.17850000 0.17849800 7574.98805332 0 39.19506998 0 2223.27479306 0 234.33148176 0 376.66259396 0 34536
