### header ###
fiducial parameters:
Omega_m = 0.31
Omega_nu = 0
Omega_de = 0.69
Omega_k = 0
H_0 = 100
w_de = -1
zeff = 0
beta = 0
fgrowth = 0
b_1 = 2
gamma = 0.55
Lx = 3500 Ly = 3500 Lz = 3500
nx = 700 ny = 700 nz = 700
xoffset = 1379.75464 yoffset = 22.6059522 zoffset = 368.141391
bins = 400 dk = 0.001
kx_ny = 0.628318531 ky_ny = 0.628318531 kz_ny = 0.628318531
############################
A(data) = 3.37149091 (not used)
A(ran) = 3.36940399 (used)
Ngal = 189437
weighted Ngal = 0
Nran = 9399747
weighted Nran = 0
SN(data) = 6628.1225
SN(ran) = 134.019334
SN(data+ran) = 6762.14184
############################
13 columns: k_central k_mean P_0(k) sigma^{lin}_{P_0(k)} P^img_1(k) sigma^{lin}_{P_1(k)} P_2(k) sigma^{lin}_{P_2(k)} P^img_3(k) sigma^{lin}_{P_3(k)} P_4(k) sigma^{lin}_{P_4(k)} N_modes
### header ###
0.00050000 0 0 0 0 0 0 0 0 0 0 0 0
0.00150000 0.00179520 21129.28474621 0 -18207.64164611 0 -19701.07131519 0 8398.83107144 0 -27188.51655099 0 3
0.00250000 0.00253879 36104.50795373 0 -16775.98994403 0 -21050.86998379 0 -21604.43162347 0 34863.84666310 0 6
0.00350000 0.00331552 52001.18780371 0 -23821.00733358 0 -60355.07734511 0 16468.76378857 0 -19137.41668628 0 7
0.00450000 0.00420575 61192.68453864 0 -24316.22927731 0 -69618.00138839 0 -4305.90211762 0 232.14873420 0 24
0.00550000 0.00557378 100181.23643482 0 -18434.34571173 0 -107679.21830773 0 -24987.13578071 0 -10495.74385766 0 45
0.00650000 0.00659388 94646.17459781 0 -6347.79147579 0 -63299.67922290 0 -49373.46142274 0 -14345.46504480 0 40
0.00750000 0.00754703 89755.73312743 0 17819.56066489 0 -87283.17259176 0 -55295.60603324 0 -22484.73992525 0 57
0.00850000 0.00846663 76332.83384478 0 9859.20897361 0 -30880.44327915 0 -42565.68473592 0 -9650.22864071 0 75
0.00950000 0.00948925 58986.20181776 0 6111.31606565 0 -12178.91063293 0 -29467.86843582 0 -26205.94741335 0 112
0.01050000 0.01054430 59235.08827728 0 1732.03458903 0 -19648.49904165 0 1370.00682944 0 -10042.61300634 0 105
0.01150000 0.01145670 65450.70595903 0 -7284.82015876 0 1146.88522043 0 7063.95006273 0 -7753.24577067 0 144
0.01250000 0.01249090 69616.44862082 0 -5668.27820356 0 -8469.43763121 0 14212.37068142 0 9856.13671205 0 169
0.01350000 0.01339930 81359.58612566 0 -4298.26028292 0 8646.43095211 0 8397.72195174 0 31556.56264511 0 180
0.01450000 0.01448870 79937.02920508 0 759.89894035 0 -3906.66339227 0 -2062.08642781 0 27147.59003426 0 267
0.01550000 0.01550050 86256.46049027 0 9396.83915523 0 20609.99490510 0 261.22541612 0 43015.98733202 0 238
0.01650000 0.01653350 69170.47159153 0 3199.83250196 0 15824.80889375 0 2591.52471413 0 30575.21353913 0 315
0.01750000 0.01747870 72675.62256308 0 -1656.25953148 0 41545.29461668 0 17790.27990495 0 75139.97561300 0 297
0.01850000 0.01844180 74380.67226993 0 963.56215343 0 24555.35548352 0 8305.23246039 0 53162.99068404 0 388
0.01950000 0.01947590 70238.77568158 0 2879.88474359 0 19471.92718624 0 7674.15444523 0 30746.46162002 0 399
0.02050000 0.02045430 66574.24420989 0 6943.21129275 0 33807.63197772 0 -8952.65889985 0 41718.65002498 0 462
0.02150000 0.02154770 58729.21878447 0 7730.95246480 0 42958.97857970 0 -6449.59757257 0 39646.59261112 0 571
0.02250000 0.02255340 47057.28676404 0 2225.32666449 0 42472.85141746 0 9300.55647452 0 24356.15758633 0 510
0.02350000 0.02348930 49288.05920624 0 -1716.42927492 0 39295.33440377 0 7714.64840529 0 20744.97477196 0 555
0.02450000 0.02439640 55825.09977555 0 -2260.11974932 0 25560.77248687 0 9922.06278671 0 7719.93890623 0 592
0.02550000 0.02547300 53122.06416730 0 847.77227553 0 28432.61611268 0 -2397.91678021 0 10526.04500773 0 837
0.02650000 0.02652900 51119.99220617 0 1025.31239244 0 16781.09189463 0 -28.97231376 0 -11413.50713154 0 723
0.02750000 0.02749970 54330.00642693 0 -2040.41422897 0 28451.91479537 0 -1547.77653412 0 2235.73020723 0 826
0.02850000 0.02848090 53212.90107030 0 -1312.73188840 0 13288.91762351 0 4115.31098926 0 -18713.73296286 0 831
0.02950000 0.02946900 59022.35911981 0 -1153.73958014 0 26489.88205523 0 -797.58017286 0 -8667.93678299 0 996
0.03050000 0.03053250 57181.10951444 0 231.92691026 0 15228.87888173 0 -2825.58224333 0 -14106.33883860 0 1041
0.03150000 0.03150510 58386.27897483 0 2572.05966349 0 30320.78148114 0 911.96257787 0 -14297.32925005 0 1036
0.03250000 0.03246190 55308.02817382 0 3200.06541709 0 27217.79731094 0 -5109.09332702 0 -1978.12606691 0 1059
0.03350000 0.03345080 54181.38438782 0 1145.92028630 0 32134.85765399 0 3903.11420925 0 -7428.66189198 0 1302
0.03450000 0.03451200 51508.07318739 0 519.40851692 0 33680.97050858 0 2408.50887329 0 5385.35286060 0 1339
0.03550000 0.03553350 55268.09986481 0 609.74853431 0 35463.43677012 0 4557.60574116 0 4820.22310250 0 1365
0.03650000 0.03647120 51369.54413751 0 -579.42520185 0 32635.95793211 0 4214.10028048 0 7237.18346787 0 1308
0.03750000 0.03744890 52898.57654879 0 1641.37514517 0 31531.82927592 0 -552.14418472 0 6937.68787667 0 1579
0.03850000 0.03847530 51019.83869773 0 228.38105460 0 32629.30321395 0 1495.42608453 0 4891.61713726 0 1662
0.03950000 0.03950240 50438.32724174 0 1097.56932232 0 27967.34040070 0 2800.91542132 0 4561.12165059 0 1683
0.04050000 0.04050350 51052.44681676 0 83.13573040 0 29802.04619987 0 1379.88908592 0 -199.91217027 0 1822
0.04150000 0.04152450 48428.49144275 0 1919.03216957 0 26626.96924951 0 -1148.63762955 0 -2424.94602717 0 1887
0.04250000 0.04250150 46897.35170405 0 1932.78525379 0 26946.95028146 0 2614.84950132 0 -5613.97570330 0 1920
0.04350000 0.04349210 42710.53576806 0 673.53955355 0 24398.85869458 0 3244.07528658 0 282.80333979 0 2005
0.04450000 0.04448520 43282.06514680 0 787.60475033 0 21711.23985008 0 4743.20583089 0 -3604.81646732 0 2151
0.04550000 0.04548030 42484.05352638 0 -80.28063449 0 19821.07806617 0 4308.46418411 0 5702.51672853 0 2274
0.04650000 0.04648670 41451.68491444 0 -484.03092602 0 15468.22691187 0 4365.37311565 0 415.08471843 0 2311
0.04750000 0.04749250 41962.87818178 0 -630.96377583 0 13527.48926987 0 2455.04753569 0 3288.66189831 0 2568
0.04850000 0.04851840 42456.21462204 0 193.76653804 0 12829.52024592 0 -2173.51968355 0 -55.88965054 0 2493
0.04950000 0.04949480 42961.86229091 0 1276.70768071 0 13989.54853473 0 -3328.25747142 0 -694.64277399 0 2644
0.05050000 0.05050630 40539.10122954 0 548.53067275 0 13694.18996000 0 -1591.90840678 0 -2164.61345240 0 2829
0.05150000 0.05149060 41208.23314143 0 454.78565790 0 19886.40521619 0 -986.34347196 0 -6241.53780902 0 2784
0.05250000 0.05249300 41199.24927190 0 383.50475336 0 15974.31822862 0 625.30393803 0 -3943.33088938 0 3055
0.05350000 0.05348950 38597.14355588 0 1149.93529959 0 18219.17649094 0 -919.19182004 0 -9178.26493697 0 3009
0.05450000 0.05448610 38065.32066221 0 1523.63099837 0 18584.85325432 0 -1522.98770895 0 -4075.94833129 0 3336
0.05550000 0.05550870 36889.32104979 0 1078.91614729 0 18525.18261474 0 436.10031841 0 -9051.79201817 0 3349
0.05650000 0.05647670 34868.39405385 0 1124.39227302 0 20268.16421515 0 -306.40984337 0 -7873.77380791 0 3324
0.05750000 0.05747970 34071.71337706 0 272.41754296 0 17578.32713127 0 2164.97946190 0 -5231.35159098 0 3639
0.05850000 0.05849280 33546.21246566 0 -423.76912564 0 16333.34027383 0 2207.91348529 0 -8756.57762900 0 3846
0.05950000 0.05951020 34917.86079224 0 -18.44721150 0 14325.83362620 0 585.39781141 0 -6144.51201812 0 3787
0.06050000 0.06049470 34454.80331965 0 752.15950312 0 17020.21810083 0 234.91155136 0 -8164.10807042 0 3930
0.06150000 0.06148310 32460.82793230 0 1055.92187778 0 15241.52284625 0 -528.86043496 0 -3597.05262946 0 4083
0.06250000 0.06249100 32322.52070636 0 499.17484633 0 17408.63181796 0 33.72844083 0 -3333.76979630 0 4303
0.06350000 0.06350600 32112.23161222 0 167.32623364 0 17713.41791010 0 1223.53648254 0 -3301.78278430 0 4470
0.06450000 0.06451750 32813.97164313 0 -203.66764956 0 18611.13939109 0 2116.33347208 0 759.48191135 0 4479
0.06550000 0.06550280 32172.67863559 0 -102.36620223 0 15693.82185780 0 1253.26089036 0 -1113.31216727 0 4636
0.06650000 0.06648880 32893.60643722 0 -242.15853945 0 16046.41100878 0 1045.33865765 0 2429.24941158 0 4653
0.06750000 0.06749660 32734.89140889 0 -181.88564787 0 14790.77660227 0 1870.48600053 0 -1624.47216102 0 5220
0.06850000 0.06852730 33033.35551877 0 585.02071071 0 14034.24605843 0 210.00515950 0 547.89958364 0 5029
0.06950000 0.06949320 32466.26261881 0 348.11828949 0 11807.91009502 0 1570.64658223 0 1331.45382885 0 5040
0.07050000 0.07048030 30424.92782049 0 947.83816352 0 12388.97790313 0 305.81979169 0 -806.84464967 0 5475
0.07150000 0.07148790 30742.24696517 0 484.84058339 0 10442.07355563 0 651.32499519 0 -988.71366075 0 5509
0.07250000 0.07249820 28526.55855083 0 524.14113066 0 10939.33627961 0 680.92739984 0 -989.77065182 0 5916
0.07350000 0.07351270 28589.55654949 0 809.27916740 0 9647.64439182 0 514.77350572 0 -1145.93137749 0 5721
0.07450000 0.07449140 26518.60825532 0 595.53738366 0 8736.48038013 0 741.51971789 0 -1795.03258769 0 6028
0.07550000 0.07549160 26526.48300516 0 587.54617625 0 9783.94411112 0 538.57743261 0 -918.99661498 0 6183
0.07650000 0.07648840 25142.74527390 0 501.15129763 0 8337.62984668 0 -697.64516100 0 -2242.38492540 0 6330
0.07750000 0.07749960 24497.12669954 0 974.01671568 0 9974.76815461 0 -559.03958186 0 -2712.71822319 0 6583
0.07850000 0.07848650 23770.43147549 0 514.53504498 0 8826.94018244 0 181.78360886 0 -1035.76473645 0 6549
0.07950000 0.07947320 23081.33540910 0 -152.75461909 0 10069.27624381 0 945.74636377 0 -1570.29166393 0 6828
0.08050000 0.08048110 23620.81122866 0 47.64046190 0 8964.52648058 0 133.58015781 0 -2050.28539426 0 7147
0.08150000 0.08149960 23041.85074796 0 96.32571455 0 9242.86006800 0 567.67629692 0 -2305.91530152 0 7386
0.08250000 0.08250610 23881.89800482 0 -76.93774773 0 8620.43318646 0 -313.48380878 0 -1987.77540826 0 7227
0.08350000 0.08350160 23348.63325555 0 -104.16730171 0 9285.36153470 0 -693.86084460 0 -2729.06664749 0 7798
0.08450000 0.08449610 23541.95281836 0 255.53785033 0 8324.80842300 0 1259.87124374 0 -1380.38818978 0 7371
0.08550000 0.08548940 23747.58360978 0 38.99675938 0 9452.58351109 0 -452.80255189 0 -2050.17448229 0 8256
0.08650000 0.08650700 23379.46678307 0 418.84574331 0 8531.81452284 0 14.41212314 0 -3185.89086739 0 8037
0.08750000 0.08749060 22741.05748673 0 791.77504038 0 10760.80128233 0 -142.97440162 0 -1659.59798176 0 8155
0.08850000 0.08849210 22107.97196492 0 383.02561365 0 10042.46882078 0 183.74231424 0 28.14679597 0 8718
0.08950000 0.08949900 21347.55950215 0 -54.97296311 0 10089.24039831 0 1413.48432148 0 -424.83498967 0 8571
0.09050000 0.09049190 21800.08033764 0 437.73294260 0 9488.07534133 0 833.32820975 0 1213.98696197 0 8932
0.09150000 0.09150830 20410.24244806 0 495.56798908 0 9275.13545112 0 505.42140845 0 502.30921859 0 9285
0.09250000 0.09250820 20237.10886370 0 459.49276189 0 9148.64034992 0 -405.04829431 0 1553.32213260 0 9204
0.09350000 0.09350330 19824.95998510 0 9.28882199 0 8677.41975638 0 1034.58796045 0 552.54014045 0 9349
0.09450000 0.09448040 19657.81564709 0 42.91184099 0 7892.86175785 0 115.72887632 0 -145.80154772 0 9564
0.09550000 0.09549270 19217.38421628 0 470.51852078 0 7497.13894194 0 -49.70974651 0 345.05933738 0 10155
0.09650000 0.09649430 18981.80719310 0 217.85994518 0 7242.79561352 0 460.48653314 0 -1109.79625784 0 9913
0.09750000 0.09749140 18417.93074025 0 304.34355338 0 6725.24709033 0 292.02788829 0 -199.40086609 0 10476
0.09850000 0.09850240 17784.62339451 0 505.45357292 0 6467.53203804 0 803.47625316 0 -443.37947096 0 10575
0.09950000 0.09950330 17466.30604209 0 276.64661636 0 6818.93443095 0 197.89689979 0 -293.77918829 0 10882
0.10050000 0.10051200 16658.75599229 0 401.92279501 0 5957.60316715 0 143.83840586 0 -368.93202969 0 10875
0.10150000 0.10150300 16278.43884894 0 409.72101558 0 6675.72489595 0 -227.25973459 0 407.56599602 0 11118
0.10250000 0.10250800 15861.29893171 0 192.65630923 0 6105.81483197 0 32.21027779 0 594.31291551 0 11575
0.10350000 0.10349800 15896.01437816 0 97.26768991 0 7239.55698401 0 705.51325612 0 501.02596710 0 11364
0.10450000 0.10450100 15594.22290920 0 -35.73084553 0 5514.19929555 0 135.81170663 0 98.16352589 0 12093
0.10550000 0.10551000 15722.76988183 0 107.26307660 0 6519.40556617 0 709.74454775 0 849.14092924 0 12067
0.10650000 0.10649700 15613.85432780 0 -127.28479442 0 5487.45841971 0 377.12731511 0 760.55886657 0 12054
0.10750000 0.10749900 15946.59023625 0 -4.18054941 0 5712.44334980 0 513.40263378 0 2040.35877299 0 12807
0.10850000 0.10850100 15772.01479628 0 -86.53995148 0 5000.76560642 0 365.61021620 0 857.09664481 0 12736
0.10950000 0.10950300 15576.36608211 0 224.05326955 0 5177.94747767 0 -452.14373479 0 659.55577244 0 12933
0.11050000 0.11050200 15336.90714000 0 759.04269995 0 5181.94030857 0 -589.13554478 0 586.54796853 0 13428
0.11150000 0.11150900 14183.64448133 0 462.99425277 0 6521.52398478 0 -690.30722510 0 423.50293691 0 13453
0.11250000 0.11250000 14123.64110584 0 233.80243167 0 6093.29287061 0 34.18905824 0 -269.46395722 0 13668
0.11350000 0.11349100 13708.27578013 0 -2.02826937 0 6334.31567149 0 804.73954049 0 -319.01720694 0 13791
0.11450000 0.11448600 13985.55570383 0 -162.98957563 0 5919.79327675 0 315.56451733 0 -502.25819908 0 14205
0.11550000 0.11549300 13771.27377879 0 -79.00204130 0 4516.96759554 0 694.59619096 0 -723.44328510 0 14776
0.11650000 0.11649800 13946.18195466 0 261.06681201 0 5311.84040723 0 -86.74170036 0 -907.77232366 0 14553
0.11750000 0.11747300 13357.35030868 0 237.51243705 0 4078.26639145 0 -205.10617780 0 -669.41030093 0 14568
0.11850000 0.11849100 13447.07809199 0 124.96118866 0 4875.15780099 0 690.52683080 0 -49.28462094 0 16015
0.11950000 0.11950300 13360.23401989 0 -71.61486049 0 4020.81399126 0 211.40154119 0 -709.96082609 0 15270
0.12050000 0.12050700 13060.77170229 0 11.88954130 0 4425.42085593 0 514.97536550 0 704.07583699 0 15999
0.12150000 0.12150000 13327.84772480 0 92.01878095 0 3621.70836028 0 95.26528521 0 -579.60377012 0 15670
0.12250000 0.12250700 13199.07892823 0 47.04541918 0 4138.33631412 0 -54.99126359 0 469.79315649 0 16887
0.12350000 0.12352200 12977.47681321 0 280.17916259 0 4621.42448840 0 -250.74756237 0 182.96703958 0 16407
0.12450000 0.12449800 12799.79583810 0 401.47914713 0 5024.76695662 0 -764.99423623 0 788.68503291 0 16306
0.12550000 0.12549900 12390.97431858 0 105.02232208 0 5235.89898173 0 206.45486735 0 643.42029912 0 17523
0.12650000 0.12650100 12606.14353938 0 -46.38638026 0 5379.60762058 0 590.64505668 0 1016.27084869 0 17154
0.12750000 0.12750600 12694.65129103 0 -68.49169034 0 5088.75207181 0 581.63456828 0 1226.81947684 0 18007
0.12850000 0.12850300 12642.74448931 0 55.53539771 0 4988.96457287 0 -40.27646169 0 1568.12888052 0 17496
0.12950000 0.12949900 12539.92909360 0 263.71871720 0 5673.31360697 0 -247.92818010 0 2177.80088557 0 18405
0.13050000 0.13049000 12356.48069608 0 17.73626578 0 5015.94945505 0 60.37249052 0 1322.76942164 0 18100
0.13150000 0.13148800 12494.89883399 0 22.00715298 0 5582.90926065 0 346.57661312 0 2500.43271360 0 19059
0.13250000 0.13249300 12327.53267204 0 32.24022403 0 4968.15748740 0 169.24390159 0 791.21271670 0 18957
0.13350000 0.13349100 12498.11528110 0 18.99966402 0 5408.36709427 0 86.42061021 0 1835.57091254 0 19468
0.13450000 0.13450700 12325.09260871 0 -42.96696424 0 4923.91470277 0 137.90017902 0 921.25367355 0 19953
0.13550000 0.13551000 12564.10790295 0 20.12076221 0 4341.10557673 0 78.05097116 0 997.33484814 0 19956
0.13650000 0.13649900 12271.85486336 0 10.04325630 0 4054.84178350 0 247.67751905 0 724.78975641 0 19723
0.13750000 0.13749600 12219.72623770 0 132.30577928 0 4406.56582112 0 16.48162958 0 114.05410558 0 20946
0.13850000 0.13851100 12253.22165249 0 189.87463704 0 3960.92152774 0 35.65531448 0 -68.18202412 0 20955
0.13950000 0.13949800 11782.40034204 0 227.20649684 0 3976.49356826 0 -216.97043118 0 -594.41717276 0 20506
0.14050000 0.14048300 11385.89005114 0 346.49897474 0 3806.27696869 0 -149.52375342 0 -449.34986228 0 21447
0.14150000 0.14148400 11337.86516835 0 -18.98324905 0 3627.03213481 0 274.85427893 0 -843.36907034 0 21771
0.14250000 0.14249400 11280.85641604 0 -208.77736399 0 3240.43737398 0 790.92212734 0 -238.70030424 0 22470
0.14350000 0.14350900 11356.83111513 0 30.62423663 0 2863.91341999 0 613.59496141 0 -303.98419860 0 22519
0.14450000 0.14449900 11384.67001947 0 31.19609874 0 2218.07302169 0 185.83411399 0 3.69180472 0 22218
0.14550000 0.14550500 11325.44302777 0 25.23524586 0 2304.61763148 0 341.12639894 0 556.95332771 0 23559
0.14650000 0.14650700 11348.29089348 0 25.66813527 0 2439.96350784 0 -174.82499190 0 191.55273513 0 23044
0.14750000 0.14750500 11206.76722042 0 175.22538411 0 2546.09517143 0 -246.83458808 0 48.13435290 0 23649
0.14850000 0.14849900 11042.59532320 0 186.25890683 0 2690.95729477 0 -105.61392652 0 539.29725129 0 23640
0.14950000 0.14949500 10864.54833859 0 102.13040339 0 2535.13706885 0 -11.41561446 0 218.35239432 0 24457
0.15050000 0.15050000 10788.97292258 0 138.52350428 0 2978.87367635 0 58.32150638 0 105.14643257 0 24591
0.15150000 0.15149900 10576.88705454 0 117.88389588 0 2648.45582807 0 296.94794325 0 195.55222075 0 25020
0.15250000 0.15250500 10388.76926310 0 143.77629516 0 2681.14158548 0 -0.27377732 0 56.95174356 0 25297
0.15350000 0.15350100 10263.94893264 0 180.99169740 0 2352.27650476 0 -183.62363844 0 -239.69740285 0 25452
0.15450000 0.15450400 9933.32035162 0 242.26168758 0 2647.57962351 0 -31.25909674 0 -212.72804835 0 26061
0.15550000 0.15549900 9603.67888712 0 210.43993442 0 2607.25203141 0 -101.78579990 0 -244.27584895 0 26128
0.15650000 0.15649500 9436.45691073 0 182.96038486 0 2684.05857027 0 89.75462401 0 -371.54067921 0 26331
0.15750000 0.15749700 9184.91965514 0 -19.94241576 0 2396.71893094 0 514.85890793 0 -208.62319636 0 27345
0.15850000 0.15849900 9201.74500091 0 -12.19000183 0 2154.90865507 0 538.25467878 0 345.01164523 0 26980
0.15950000 0.15949700 9451.07510831 0 -129.00947554 0 1793.84582962 0 397.17243536 0 765.24933376 0 27777
0.16050000 0.16050000 9264.13298374 0 171.32239190 0 1730.21563273 0 -51.12442868 0 324.01157293 0 28224
0.16150000 0.16150500 9294.88887288 0 134.12806293 0 1896.48376618 0 -353.17476618 0 528.12065213 0 28075
0.16250000 0.16249700 8882.88417985 0 252.01861354 0 2324.11595571 0 -530.57180665 0 240.34734699 0 28590
0.16350000 0.16349900 8766.55970625 0 245.67223064 0 2624.02192119 0 -441.76015621 0 530.33778240 0 29163
0.16450000 0.16449100 8610.99457786 0 59.54009619 0 3069.73276175 0 -35.34964109 0 150.58850833 0 28996
0.16550000 0.16550500 8566.26378057 0 55.68679255 0 2901.50148644 0 225.31322952 0 274.02022092 0 30777
0.16650000 0.16650700 8529.42991550 0 -7.54314523 0 3030.59192772 0 537.74448372 0 483.65604356 0 29211
0.16750000 0.16749900 8502.78886043 0 -79.21521411 0 2434.62864210 0 458.86721838 0 1102.65019964 0 30922
0.16850000 0.16850800 8732.11044853 0 -2.85336569 0 2348.77168653 0 440.72645665 0 1166.30590629 0 30867
0.16950000 0.16949900 8692.83652014 0 34.70657349 0 2174.86171838 0 2.60215008 0 1512.62853100 0 30852
0.17050000 0.17049200 8563.63516689 0 175.54924706 0 2399.15899426 0 -168.31889577 0 1331.72001757 0 31257
0.17150000 0.17149500 8313.45103733 0 81.10703957 0 1943.48825884 0 -168.46308133 0 1113.04597854 0 32608
0.17250000 0.17250900 8397.85504610 0 105.37690765 0 2696.72471719 0 -73.04373939 0 1281.21070667 0 32361
0.17350000 0.17350400 8207.05318500 0 36.51931872 0 2133.26972982 0 145.60190618 0 814.44211958 0 32508
0.17450000 0.17449800 8162.22256694 0 115.47932439 0 2480.98984535 0 115.43495960 0 958.94156078 0 32791
0.17550000 0.17549800 8007.66673747 0 173.15133028 0 2177.44596727 0 -276.92611452 0 668.55406053 0 33633
0.17650000 0.17650100 7786.67463827 0 128.15545338 0 2518.93283011 0 -11.30614435 0 787.91419472 0 33984
0.17750000 0.17750300 7866.33161475 0 -3.72880496 0 2406.72319058 0 258.36832379 0 860.39627590 0 34069
0.17850000 0.17849800 7780.08646728 0 -100.81665111 0 2201.62477662 0 233.05821235 0 772.46526649 0 34536
