### header ###
fiducial parameters:
Omega_m = 0.31
Omega_nu = 0
Omega_de = 0.69
Omega_k = 0
H_0 = 100
w_de = -1
zeff = 0
beta = 0
fgrowth = 0
b_1 = 2
gamma = 0.55
Lx = 3500 Ly = 3500 Lz = 3500
nx = 700 ny = 700 nz = 700
xoffset = 1379.75464 yoffset = 22.6059522 zoffset = 368.141391
bins = 400 dk = 0.001
kx_ny = 0.628318531 ky_ny = 0.628318531 kz_ny = 0.628318531
############################
A(data) = 3.30144807 (not used)
A(ran) = 3.29612164 (used)
Ngal = 185621
weighted Ngal = 0
Nran = 9399747
weighted Nran = 0
SN(data) = 6702.23059
SN(ran) = 131.1045
SN(data+ran) = 6833.33509
############################
13 columns: k_central k_mean P_0(k) sigma^{lin}_{P_0(k)} P^img_1(k) sigma^{lin}_{P_1(k)} P_2(k) sigma^{lin}_{P_2(k)} P^img_3(k) sigma^{lin}_{P_3(k)} P_4(k) sigma^{lin}_{P_4(k)} N_modes
### header ###
0.00050000 0 0 0 0 0 0 0 0 0 0 0 0
0.00150000 0.00179520 3655.60305815 0 76.58404946 0 13067.64824440 0 -20063.53163146 0 -97715.77426520 0 3
0.00250000 0.00253879 7411.47053671 0 -8641.14045116 0 -12705.40975207 0 27568.05731056 0 25691.31587495 0 6
0.00350000 0.00331552 25284.26894695 0 -23458.32519337 0 -17340.42095673 0 18699.20349486 0 -6232.95322258 0 7
0.00450000 0.00420575 33973.22354816 0 -15453.03197205 0 -24976.26640770 0 3514.11265868 0 -3597.95101641 0 24
0.00550000 0.00557378 74811.23253546 0 -20752.51678588 0 -53823.47146230 0 -5910.87595440 0 -17626.24110208 0 45
0.00650000 0.00659388 70211.15860118 0 -10718.66582513 0 6174.53588826 0 -33697.16365612 0 18170.26431240 0 40
0.00750000 0.00754703 93917.70478225 0 9078.87672112 0 -33506.94962846 0 -28616.61907005 0 -981.61640383 0 57
0.00850000 0.00846663 78735.74166362 0 3961.42063160 0 -6105.34900169 0 -238.34094946 0 23637.55893605 0 75
0.00950000 0.00948925 82315.86912653 0 -411.72297663 0 -4535.53425923 0 -11307.03164084 0 -5657.07609464 0 112
0.01050000 0.01054430 81669.25234445 0 6883.96211866 0 18402.07032861 0 7183.29134189 0 22586.55711324 0 105
0.01150000 0.01145670 69193.65219315 0 3904.71134161 0 10799.19900617 0 9259.09758033 0 22854.07678363 0 144
0.01250000 0.01249090 74760.32394146 0 -3625.21317851 0 16446.69230664 0 10064.68448827 0 32904.36489826 0 169
0.01350000 0.01339930 76280.15065928 0 -3873.16797749 0 13639.51035905 0 25053.90478634 0 5595.58649876 0 180
0.01450000 0.01448870 80758.33233909 0 288.52528829 0 2068.03130937 0 4953.68347538 0 35934.14716861 0 267
0.01550000 0.01550050 74752.00554375 0 3861.34476154 0 18039.83183628 0 -12653.17021444 0 19010.75521713 0 238
0.01650000 0.01653350 79589.98565257 0 -3425.82673097 0 -1902.99429879 0 11166.06252762 0 26610.11063015 0 315
0.01750000 0.01747870 78532.44002355 0 2701.78230300 0 19057.11642038 0 -3879.06849426 0 7500.18902110 0 297
0.01850000 0.01844180 73363.60950977 0 4415.10604277 0 2375.97839264 0 -10112.72046225 0 21593.78407440 0 388
0.01950000 0.01947590 69636.96733517 0 9482.08609497 0 24673.80946692 0 -8025.42374378 0 6114.89852227 0 399
0.02050000 0.02045430 60205.01345040 0 4811.96016077 0 37190.33613496 0 -4889.88691053 0 6986.48914325 0 462
0.02150000 0.02154770 55611.92697020 0 1254.98002589 0 39094.36191506 0 3937.23073106 0 6753.42982177 0 571
0.02250000 0.02255340 57313.98205388 0 -1444.02947787 0 32686.42287823 0 6315.15008317 0 -5748.57846946 0 510
0.02350000 0.02348930 59488.74395149 0 -2326.30092151 0 27017.26847011 0 6822.40597559 0 5787.24238202 0 555
0.02450000 0.02439640 59304.63008215 0 -499.84475463 0 22981.84737247 0 7623.41221919 0 -5276.32639460 0 592
0.02550000 0.02547300 65207.47600996 0 -1598.40784819 0 18978.47983401 0 6689.52234496 0 12375.55755483 0 837
0.02650000 0.02652900 65024.69308425 0 -863.07812732 0 16314.37432705 0 169.59438342 0 -2530.43440134 0 723
0.02750000 0.02749970 62167.48983842 0 2131.80569183 0 8151.29773795 0 2714.83664180 0 7530.87836306 0 826
0.02850000 0.02848090 60603.74198069 0 3188.27547474 0 19457.95227808 0 -7438.28905093 0 -3179.64652351 0 831
0.02950000 0.02946900 57332.94800066 0 4790.32123553 0 24216.07576887 0 -5968.76091128 0 4988.41001302 0 996
0.03050000 0.03053250 51607.56122402 0 1094.14325158 0 30111.60150670 0 4655.84047253 0 1244.60975674 0 1041
0.03150000 0.03150510 51496.09469469 0 -842.24442297 0 21277.13040153 0 3413.84823827 0 -1627.94370567 0 1036
0.03250000 0.03246190 55246.91567864 0 -1485.79892558 0 18401.84850467 0 8247.00367641 0 -567.00638863 0 1059
0.03350000 0.03345080 53899.33524943 0 -508.53581655 0 20676.32026285 0 4062.63889495 0 2797.62133583 0 1302
0.03450000 0.03451200 51810.86286408 0 1355.29990229 0 11611.70682100 0 3187.38817898 0 8911.61037994 0 1339
0.03550000 0.03553350 55112.93401950 0 -621.18910396 0 9115.40003267 0 2084.39082487 0 -99.36991538 0 1365
0.03650000 0.03647120 51281.70185768 0 615.35069788 0 9409.11711025 0 -517.06605613 0 3410.83143270 0 1308
0.03750000 0.03744890 49570.44108054 0 4007.48237253 0 13982.45016869 0 -5218.36379935 0 577.00953915 0 1579
0.03850000 0.03847530 45461.26352319 0 1225.56617158 0 15094.56448668 0 -1297.72549893 0 327.40547919 0 1662
0.03950000 0.03950240 44440.54066805 0 469.82753921 0 13928.87968743 0 -225.45186949 0 -5308.97887842 0 1683
0.04050000 0.04050350 45483.66774103 0 1366.03618093 0 18928.01488790 0 -3410.37669362 0 -6631.62629689 0 1822
0.04150000 0.04152450 43156.51279735 0 659.66002969 0 18026.18966404 0 1164.50913238 0 -1725.18022931 0 1887
0.04250000 0.04250150 43549.36299326 0 528.01639487 0 22775.88384514 0 -287.26532832 0 -4167.07360542 0 1920
0.04350000 0.04349210 42797.93440001 0 22.47686518 0 20303.87786932 0 2758.82432890 0 -2616.33572171 0 2005
0.04450000 0.04448520 43915.92705240 0 1127.83054407 0 24070.78108885 0 1583.90056258 0 -2625.71887433 0 2151
0.04550000 0.04548030 42162.07607897 0 1105.76682598 0 22218.88393440 0 -1914.88406191 0 7770.62567629 0 2274
0.04650000 0.04648670 39466.69339662 0 767.97333173 0 22973.63988673 0 4418.36685467 0 2367.21634705 0 2311
0.04750000 0.04749250 39946.72040054 0 1296.86038556 0 23871.47227969 0 -73.98748934 0 7530.92272784 0 2568
0.04850000 0.04851840 37975.26014299 0 263.85070244 0 20530.24919904 0 6755.22659568 0 5359.90965480 0 2493
0.04950000 0.04949480 38432.77201710 0 -268.69755551 0 19448.41384871 0 3126.71933167 0 9631.55106505 0 2644
0.05050000 0.05050630 37873.33204303 0 70.28158770 0 13635.96117602 0 1758.66455290 0 8744.13330602 0 2829
0.05150000 0.05149060 36260.89383070 0 1348.81155207 0 14414.89593770 0 -198.97496413 0 4748.03050156 0 2784
0.05250000 0.05249300 34583.12846834 0 643.74527119 0 13835.71363306 0 -1787.66803292 0 5912.60618113 0 3055
0.05350000 0.05348950 33272.81446088 0 858.23238337 0 13182.33122084 0 223.25470337 0 -487.28951968 0 3009
0.05450000 0.05448610 34949.80343945 0 -687.56880857 0 11422.49100107 0 2190.51139727 0 1931.05502706 0 3336
0.05550000 0.05550870 34347.32962123 0 -2012.85260456 0 8311.65426342 0 3293.06510350 0 -3747.42707768 0 3349
0.05650000 0.05647670 36437.46568612 0 575.38911528 0 8879.81191829 0 968.91032860 0 689.19921452 0 3324
0.05750000 0.05747970 35748.48053169 0 826.61359911 0 6325.77544984 0 -2633.97072485 0 -3353.10175258 0 3639
0.05850000 0.05849280 35422.17751748 0 427.66435401 0 9920.60983991 0 117.54672350 0 799.22721561 0 3846
0.05950000 0.05951020 33794.76618926 0 575.12847215 0 10336.38553991 0 -71.28168093 0 -388.33940611 0 3787
0.06050000 0.06049470 34337.68027988 0 363.87888036 0 11705.42743522 0 -1718.51441995 0 -2633.14997628 0 3930
0.06150000 0.06148310 33942.05728474 0 214.52704049 0 10965.88860510 0 1043.92009356 0 -644.65474934 0 4083
0.06250000 0.06249100 33125.52336541 0 134.31106768 0 12077.75891677 0 1090.73825412 0 -255.09531157 0 4303
0.06350000 0.06350600 33899.46708846 0 -137.46762234 0 9494.73005950 0 2068.97406112 0 996.38765992 0 4470
0.06450000 0.06451750 33753.61784859 0 -157.75231243 0 9593.65244508 0 1640.53221420 0 23.41939509 0 4479
0.06550000 0.06550280 33420.43829226 0 1262.36676306 0 9761.20715737 0 -1005.88394275 0 1103.91459609 0 4636
0.06650000 0.06648880 31511.08873763 0 1376.98319232 0 8875.19798036 0 -1085.06067040 0 1036.83503695 0 4653
0.06750000 0.06749660 29261.23943668 0 1380.92056724 0 12025.74120308 0 -230.26101248 0 729.62551828 0 5220
0.06850000 0.06852730 28883.58418059 0 762.24916498 0 11930.91146917 0 248.99515325 0 3314.52656960 0 5029
0.06950000 0.06949320 27375.95777942 0 296.93352470 0 10965.65568997 0 2150.20598756 0 1082.33112683 0 5040
0.07050000 0.07048030 27561.18076846 0 154.34842409 0 10445.78910661 0 1736.52652379 0 3613.72269847 0 5475
0.07150000 0.07148790 26485.66740039 0 550.20433437 0 10388.41434480 0 -812.29708209 0 3029.16116332 0 5509
0.07250000 0.07249820 25716.71471597 0 923.78579382 0 11867.58073460 0 -187.04416357 0 4202.92035395 0 5916
0.07350000 0.07351270 25080.74548295 0 572.25141566 0 12608.47269074 0 -779.25862462 0 3365.31316042 0 5721
0.07450000 0.07449140 24740.24573664 0 -154.65454113 0 11253.68298351 0 622.78290896 0 3060.52706829 0 6028
0.07550000 0.07549160 25150.17637585 0 -75.14474483 0 13135.08272184 0 266.41942365 0 2427.26408733 0 6183
0.07650000 0.07648840 25140.19429860 0 63.68343464 0 11764.65442692 0 818.20758095 0 3085.61535578 0 6330
0.07750000 0.07749960 24870.67821276 0 83.22279630 0 12341.84031610 0 218.55536322 0 2179.61984187 0 6583
0.07850000 0.07848650 25378.32229708 0 83.37585482 0 10819.34061982 0 764.04926625 0 3262.25375838 0 6549
0.07950000 0.07947320 25042.14811757 0 159.04554600 0 12010.10261538 0 1353.27021324 0 2651.78318715 0 6828
0.08050000 0.08048110 24779.28674990 0 278.55208400 0 10176.42829752 0 1199.84568586 0 3909.72456263 0 7147
0.08150000 0.08149960 24052.70243782 0 250.40817174 0 9838.75680644 0 1534.38945941 0 5835.91055423 0 7386
0.08250000 0.08250610 24013.88324851 0 -294.66981140 0 8459.69956029 0 2459.24000813 0 6914.91764934 0 7227
0.08350000 0.08350160 23832.54217840 0 203.81072600 0 6846.16331946 0 870.38057139 0 4731.77080684 0 7798
0.08450000 0.08449610 23743.59077888 0 645.39009570 0 6662.36000363 0 -165.92319723 0 6827.40810542 0 7371
0.08550000 0.08548940 22012.80949511 0 808.86657488 0 7085.23406968 0 -865.38287805 0 4869.67874969 0 8256
0.08650000 0.08650700 21239.08759600 0 755.20403668 0 8801.59679741 0 -1010.97369303 0 5932.45942367 0 8037
0.08750000 0.08749060 20672.66016785 0 435.98829732 0 7614.43944086 0 -0.49915710 0 2197.21048023 0 8155
0.08850000 0.08849210 20260.06764138 0 352.28857955 0 8774.32354412 0 409.68885111 0 3492.70664857 0 8718
0.08950000 0.08949900 19567.86603984 0 447.76382112 0 7647.61321094 0 -29.66462627 0 2234.49908437 0 8571
0.09050000 0.09049190 19392.62512806 0 109.62084325 0 8582.72311684 0 455.62526151 0 3858.22813520 0 8932
0.09150000 0.09150830 19138.52580597 0 87.30036395 0 8005.20449174 0 954.04368821 0 3340.92361833 0 9285
0.09250000 0.09250820 19043.69607207 0 214.36954550 0 7289.50064387 0 450.70853391 0 3010.38376688 0 9204
0.09350000 0.09350330 18547.25409667 0 514.51840819 0 8282.77278657 0 -537.53929657 0 3502.46690189 0 9349
0.09450000 0.09448040 18069.55624411 0 715.07941348 0 8384.61215695 0 -1158.70843638 0 1942.20168000 0 9564
0.09550000 0.09549270 17183.03687203 0 189.39106085 0 9481.68681188 0 -427.21405141 0 3001.24462060 0 10155
0.09650000 0.09649430 17612.70984181 0 46.61530257 0 9123.74061277 0 271.04112542 0 1234.30603478 0 9913
0.09750000 0.09749140 17468.41336951 0 -224.18969127 0 8755.44632691 0 699.50404561 0 1048.68930825 0 10476
0.09850000 0.09850240 17574.11247643 0 -170.53491692 0 8201.42994815 0 856.68848876 0 1362.45372432 0 10575
0.09950000 0.09950330 17528.52765697 0 145.57861466 0 7693.86350221 0 27.10078518 0 236.52975700 0 10882
0.10050000 0.10051200 17655.52186203 0 263.43810991 0 7259.26604099 0 174.32477891 0 491.81029156 0 10875
0.10150000 0.10150300 16956.88736626 0 166.56315929 0 6980.51098809 0 407.11680254 0 -108.19706629 0 11118
0.10250000 0.10250800 16850.07913965 0 113.76795270 0 6296.33941314 0 315.18630752 0 684.20484854 0 11575
0.10350000 0.10349800 16900.76590970 0 -37.92102419 0 5898.88637050 0 875.16309552 0 -65.53899189 0 11364
0.10450000 0.10450100 16415.52604322 0 48.28741142 0 5213.65004065 0 729.97045451 0 114.81828905 0 12093
0.10550000 0.10551000 16568.58456110 0 63.05012729 0 5319.88152502 0 -144.26763518 0 301.80588752 0 12067
0.10650000 0.10649700 16450.68513754 0 262.02952790 0 4575.64002740 0 -10.18861752 0 8.80013276 0 12054
0.10750000 0.10749900 15946.14658837 0 461.68549153 0 5434.63104864 0 244.94908460 0 113.71582407 0 12807
0.10850000 0.10850100 15520.68827343 0 189.97556693 0 5213.38385192 0 -368.40187047 0 826.06902134 0 12736
0.10950000 0.10950300 15397.46507534 0 -2.54164760 0 5845.78171951 0 577.86023396 0 386.74449199 0 12933
0.11050000 0.11050200 15498.50587954 0 -70.87374671 0 5147.71287479 0 923.13695880 0 1118.51393864 0 13428
0.11150000 0.11150900 15661.76829862 0 -153.72620794 0 4573.37742322 0 476.14730323 0 1272.67048502 0 13453
0.11250000 0.11250000 15583.90809604 0 283.65292547 0 4038.57099757 0 97.88735508 0 990.45165131 0 13668
0.11350000 0.11349100 14805.41698224 0 664.23736667 0 4956.26772427 0 -833.56445224 0 1471.00326885 0 13791
0.11450000 0.11448600 14445.84037718 0 475.94987992 0 5111.85503506 0 -844.30849473 0 635.22612282 0 14205
0.11550000 0.11549300 13725.57804736 0 296.95903445 0 5638.48724855 0 264.20118426 0 809.25476677 0 14776
0.11650000 0.11649800 13563.86839586 0 13.95405670 0 5671.90502496 0 481.42005826 0 16.30871782 0 14553
0.11750000 0.11747300 13740.21842734 0 -181.27119556 0 4665.12380438 0 590.29235662 0 734.74632391 0 14568
0.11850000 0.11849100 13907.36276535 0 -308.57262678 0 4372.63784966 0 727.36180498 0 416.16721925 0 16015
0.11950000 0.11950300 14160.79661561 0 178.15900570 0 3692.66983835 0 91.45667909 0 656.45578289 0 15270
0.12050000 0.12050700 13808.20746463 0 200.38243702 0 3919.77318706 0 -132.03293583 0 763.49248816 0 15999
0.12150000 0.12150000 13456.06196152 0 263.04326330 0 4289.56478451 0 -136.03020321 0 782.84108124 0 15670
0.12250000 0.12250700 13737.66745204 0 -70.77436958 0 4303.52860147 0 804.49331592 0 1633.00129147 0 16887
0.12350000 0.12352200 13670.12206262 0 -246.21015369 0 3501.80143007 0 941.33428563 0 1548.35327637 0 16407
0.12450000 0.12449800 13341.15716114 0 358.96548011 0 3329.18913196 0 -116.59509880 0 1545.95757782 0 16306
0.12550000 0.12549900 13316.09105604 0 428.29987959 0 3650.49001636 0 -442.65743404 0 1725.26895889 0 17523
0.12650000 0.12650100 12603.92529999 0 265.58980212 0 4019.83796593 0 -241.86684097 0 1919.83073575 0 17154
0.12750000 0.12750600 12493.23515445 0 -12.92357360 0 3703.10665468 0 421.43553780 0 1461.83084897 0 18007
0.12850000 0.12850300 12268.74932822 0 -19.21605327 0 3751.91901245 0 469.68668100 0 1046.94466297 0 17496
0.12950000 0.12949900 12385.20689617 0 175.63575839 0 2712.46312566 0 -173.82456593 0 706.06559772 0 18405
0.13050000 0.13049000 12273.62945487 0 167.62347772 0 3573.60583911 0 128.12550715 0 884.35326131 0 18100
0.13150000 0.13148800 11890.53951228 0 120.57905674 0 3079.82575098 0 -175.08563502 0 1081.96178997 0 19059
0.13250000 0.13249300 11751.78863846 0 182.16625516 0 3042.91424753 0 157.73789388 0 899.59589327 0 18957
0.13350000 0.13349100 11741.25200136 0 113.31654098 0 3350.77260122 0 151.89394221 0 956.07892285 0 19468
0.13450000 0.13450700 11327.10670731 0 297.21745934 0 3953.71224972 0 -140.36242474 0 1182.86506333 0 19953
0.13550000 0.13551000 11034.55420541 0 389.69475037 0 3876.11823587 0 -453.60444543 0 1325.78622721 0 19956
0.13650000 0.13649900 10848.33300865 0 24.07044835 0 4370.65252540 0 127.56651082 0 1669.23623190 0 19723
0.13750000 0.13749600 10789.83803594 0 -127.24153875 0 3742.72441018 0 532.77673660 0 895.79826744 0 20946
0.13850000 0.13851100 11039.38996728 0 -21.47932292 0 3742.68004539 0 438.25201061 0 1672.36394944 0 20955
0.13950000 0.13949800 10959.45571087 0 -10.43333369 0 2846.42260240 0 -128.64235692 0 820.12413978 0 20506
0.14050000 0.14048300 10984.39981281 0 121.51737200 0 3223.24601871 0 -21.63426694 0 635.46014707 0 21447
0.14150000 0.14148400 10722.80284159 0 249.14377529 0 3336.03240048 0 -352.05233705 0 -191.05252215 0 21771
0.14250000 0.14249400 10359.97651582 0 75.00732490 0 2868.86009382 0 28.41975032 0 -345.75586454 0 22470
0.14350000 0.14350900 10415.07758226 0 0.10794907 0 3207.86252855 0 112.18856625 0 -462.77131971 0 22519
0.14450000 0.14449900 10281.73921255 0 46.81893694 0 2151.53693120 0 29.15731492 0 -1299.75518797 0 22218
0.14550000 0.14550500 10345.15867670 0 44.99443504 0 2699.22023650 0 301.68721171 0 -450.52109268 0 23559
0.14650000 0.14650700 10163.14104358 0 -40.56516554 0 1751.35545411 0 440.33604652 0 -1072.23259201 0 23044
0.14750000 0.14750500 10336.59627265 0 -60.94102528 0 1917.00248053 0 756.31204726 0 137.99667243 0 23649
0.14850000 0.14849900 10302.81248675 0 23.05138918 0 1032.88324348 0 325.71961726 0 -181.92003058 0 23640
0.14950000 0.14949500 10183.43793400 0 132.79379194 0 1296.74947360 0 60.92705037 0 386.87425899 0 24457
0.15050000 0.15050000 10022.33829832 0 252.88816338 0 1647.20911477 0 -489.19387820 0 192.08178523 0 24591
0.15150000 0.15149900 9593.97408979 0 205.34131118 0 1383.81536964 0 -486.60297459 0 210.36118692 0 25020
0.15250000 0.15250500 9665.51231010 0 101.14694695 0 2301.51209633 0 -179.58866099 0 14.40735392 0 25297
0.15350000 0.15350100 9527.88164717 0 8.55994180 0 1829.45966302 0 -88.10225749 0 -819.94002591 0 25452
0.15450000 0.15450400 9542.72166869 0 56.93710318 0 2369.16839772 0 -120.79089860 0 -379.91009643 0 26061
0.15550000 0.15549900 9583.37090551 0 76.76028858 0 2014.94884078 0 -35.31071099 0 -968.62750308 0 26128
0.15650000 0.15649500 9444.14311021 0 169.73413250 0 2636.28878502 0 36.32178450 0 -243.09463647 0 26331
0.15750000 0.15749700 9283.03238334 0 33.78511685 0 2223.19715468 0 -56.63497898 0 -878.28970394 0 27345
0.15850000 0.15849900 9256.79061137 0 80.03673907 0 2406.00226278 0 217.62037532 0 -240.87750620 0 26980
0.15950000 0.15949700 9267.56016360 0 28.32248053 0 2579.89004854 0 27.20970074 0 -174.23161286 0 27777
0.16050000 0.16050000 9186.76079383 0 54.11727727 0 2470.53084663 0 202.10711815 0 -184.21369011 0 28224
0.16150000 0.16150500 9133.42322771 0 53.61917161 0 2099.77431504 0 256.20997686 0 519.14454644 0 28075
0.16250000 0.16249700 9085.47598330 0 -5.11371836 0 2312.19291899 0 154.93625753 0 -111.61736961 0 28590
0.16350000 0.16349900 9108.70094971 0 16.93514862 0 2066.60054497 0 168.71152414 0 793.08823810 0 29163
0.16450000 0.16449100 9091.80905676 0 43.19444469 0 2061.53186796 0 230.62480374 0 439.88574392 0 28996
0.16550000 0.16550500 8810.03719829 0 258.42488889 0 2021.43719100 0 -151.53458742 0 746.21462156 0 30777
0.16650000 0.16650700 8793.14530534 0 132.83261113 0 1877.30708665 0 266.79319699 0 626.57720744 0 29211
0.16750000 0.16749900 8390.22430260 0 153.71622586 0 2246.42212109 0 -189.48755426 0 770.62080044 0 30922
0.16850000 0.16850800 8384.05759710 0 250.89285705 0 2401.66560477 0 -173.16131235 0 802.92280243 0 30867
0.16950000 0.16949900 7962.32592434 0 113.75797062 0 2102.95748856 0 -48.72251907 0 666.28923811 0 30852
0.17050000 0.17049200 7913.81302889 0 25.79036026 0 2727.96861899 0 -324.61049756 0 222.33413402 0 31257
0.17150000 0.17149500 8038.41153541 0 19.31554131 0 2387.30250473 0 150.42103125 0 78.79840693 0 32608
0.17250000 0.17250900 7992.23888251 0 -35.08101230 0 2475.13369336 0 22.92561500 0 219.99389147 0 32361
0.17350000 0.17350400 8024.56972161 0 43.43368181 0 2292.15112611 0 56.34372414 0 -27.73009970 0 32508
0.17450000 0.17449800 8151.78575061 0 -15.69271274 0 2162.57267216 0 276.50132168 0 -100.27395884 0 32791
0.17550000 0.17549800 7874.02890544 0 138.85624019 0 2193.17328454 0 -1.86755792 0 -66.78752793 0 33633
0.17650000 0.17650100 7815.75575667 0 111.03397265 0 2149.22996223 0 82.10957286 0 397.61941059 0 33984
0.17750000 0.17750300 7764.92480106 0 17.49647410 0 2177.51251445 0 207.60280624 0 411.68415744 0 34069
0.17850000 0.17849800 7802.83451223 0 -25.97913244 0 1881.98757177 0 437.14510916 0 682.43912998 0 34536
