### header ###
fiducial parameters:
Omega_m = 0.31
Omega_nu = 0
Omega_de = 0.69
Omega_k = 0
H_0 = 100
w_de = -1
zeff = 0
beta = 0
fgrowth = 0
b_1 = 2
gamma = 0.55
Lx = 3500 Ly = 3500 Lz = 3500
nx = 700 ny = 700 nz = 700
xoffset = 1379.75464 yoffset = 22.6059522 zoffset = 368.141391
bins = 400 dk = 0.001
kx_ny = 0.628318531 ky_ny = 0.628318531 kz_ny = 0.628318531
############################
A(data) = 3.32359747 (not used)
A(ran) = 3.32170299 (used)
Ngal = 186339
weighted Ngal = 0
Nran = 9399747
weighted Nran = 0
SN(data) = 6675.60544
SN(ran) = 132.122008
SN(data+ran) = 6807.72745
############################
13 columns: k_central k_mean P_0(k) sigma^{lin}_{P_0(k)} P^img_1(k) sigma^{lin}_{P_1(k)} P_2(k) sigma^{lin}_{P_2(k)} P^img_3(k) sigma^{lin}_{P_3(k)} P_4(k) sigma^{lin}_{P_4(k)} N_modes
### header ###
0.00050000 0 0 0 0 0 0 0 0 0 0 0 0
0.00150000 0.00179520 25447.19863012 0 -40510.59685338 0 -48278.98210789 0 35975.29550929 0 56577.52657652 0 3
0.00250000 0.00253879 41386.35776441 0 -29212.88181798 0 -17150.20692907 0 -55047.93960539 0 -40210.80179987 0 6
0.00350000 0.00331552 60832.10972586 0 -4169.22529762 0 -37109.92495709 0 -23841.41513596 0 25212.39799073 0 7
0.00450000 0.00420575 62545.03418254 0 7971.43179704 0 -21388.48601889 0 -35173.84561781 0 18351.16173462 0 24
0.00550000 0.00557378 51191.41951452 0 -5102.28333209 0 -19567.53330393 0 14633.83616545 0 17892.98438869 0 45
0.00650000 0.00659388 68678.57700688 0 -29063.59430706 0 -40550.41425043 0 38610.56390418 0 -22669.07561853 0 40
0.00750000 0.00754703 85123.71654594 0 -13662.80187264 0 -37382.99022595 0 -11658.17893622 0 -3514.51194177 0 57
0.00850000 0.00846663 89321.84550282 0 7305.54960586 0 -32240.11311303 0 -51519.27529631 0 107.03737074 0 75
0.00950000 0.00948925 79897.65545591 0 19701.07131519 0 6039.41183584 0 -40768.79991834 0 14618.19757776 0 112
0.01050000 0.01054430 54817.79726871 0 8445.91320248 0 33412.67445440 0 -2670.94877548 0 22915.63292669 0 105
0.01150000 0.01145670 67074.12445635 0 -9354.75915401 0 39469.02254798 0 32000.65417092 0 15449.70461297 0 144
0.01250000 0.01249090 79714.31797036 0 -13352.80291793 0 24456.42200674 0 27195.17126916 0 6934.14978485 0 169
0.01350000 0.01339930 92135.90399252 0 -2234.95382345 0 26836.81469577 0 -1450.93929357 0 33589.35722178 0 180
0.01450000 0.01448870 86400.86787453 0 10299.74022519 0 28872.27115970 0 -5884.39017609 0 25534.70817405 0 267
0.01550000 0.01550050 79092.76729338 0 9109.52169829 0 50094.61104831 0 -21963.67549263 0 26188.86697005 0 238
0.01650000 0.01653350 71182.85836581 0 5363.04846354 0 54653.31481797 0 17609.04974682 0 14388.94253684 0 315
0.01750000 0.01747870 73036.86284768 0 -843.21379359 0 68374.01273868 0 6564.22509303 0 13015.74144268 0 297
0.01850000 0.01844180 68270.42095918 0 624.57524639 0 44748.43229533 0 6127.09883891 0 11023.07481657 0 388
0.01950000 0.01947590 74889.20365000 0 -1773.12747372 0 52501.62261001 0 4040.44540986 0 5754.09079434 0 399
0.02050000 0.02045430 70678.87437649 0 -332.44088261 0 38045.57833164 0 9232.54525484 0 5725.19822629 0 462
0.02150000 0.02154770 71662.21989792 0 2933.05594176 0 33823.38147739 0 10044.74251616 0 7497.19439792 0 571
0.02250000 0.02255340 66452.68469134 0 275.65395423 0 35049.73512396 0 5372.26524820 0 2668.46434736 0 510
0.02350000 0.02348930 69494.66727833 0 741.42877007 0 24762.76086645 0 6044.74670157 0 -1749.86923372 0 555
0.02450000 0.02439640 66945.79930765 0 3569.70173779 0 27309.41059773 0 1108.44645917 0 -324.11472106 0 592
0.02550000 0.02547300 59763.02925202 0 3053.69489097 0 26393.72137769 0 -188.96515889 0 14137.06145414 0 837
0.02650000 0.02652900 57599.02581545 0 -1855.46851986 0 23976.61682676 0 8867.34541292 0 7277.83270468 0 723
0.02750000 0.02749970 65248.06979079 0 -4058.51296969 0 14680.08645673 0 9859.43079755 0 -1405.27683573 0 826
0.02850000 0.02848090 63951.39795557 0 -1224.36832231 0 14102.34600770 0 -613.22895191 0 -2021.95847725 0 831
0.02950000 0.02946900 63637.84981785 0 4967.13709728 0 13749.20229686 0 -8784.68272207 0 554.59755748 0 996
0.03050000 0.03053250 59091.23545286 0 3415.84465372 0 20509.28683681 0 -8122.90427376 0 -4535.78935676 0 1041
0.03150000 0.03150510 55053.59611583 0 3580.37146925 0 20889.71489213 0 -2675.36307187 0 -14631.72883803 0 1036
0.03250000 0.03246190 52574.93542184 0 2826.23662395 0 23695.67680806 0 3865.19340688 0 -6459.85692975 0 1059
0.03350000 0.03345080 46263.04615058 0 1646.29963662 0 26569.73867325 0 1723.11726668 0 -18486.80707330 0 1302
0.03450000 0.03451200 45908.34967217 0 1115.81877778 0 22500.26760098 0 2938.09134518 0 -4499.85387865 0 1339
0.03550000 0.03553350 44132.42721683 0 -370.35946673 0 17982.37943609 0 2443.98961233 0 -13369.66153730 0 1365
0.03650000 0.03647120 45697.50601819 0 -734.51340878 0 17858.04711830 0 2600.58622204 0 -5175.69596469 0 1308
0.03750000 0.03744890 46733.20198921 0 -156.56111788 0 15158.44978111 0 375.63222176 0 -15202.81456890 0 1579
0.03850000 0.03847530 45456.49430850 0 -164.85622408 0 13852.46134045 0 -3472.69812928 0 -13337.49706615 0 1662
0.03950000 0.03950240 47147.45819523 0 727.78659783 0 16603.07818361 0 -3452.45669485 0 -16176.28892504 0 1683
0.04050000 0.04050350 46255.06048878 0 567.26259528 0 16179.50537216 0 -2850.89235477 0 -22218.66211047 0 1822
0.04150000 0.04152450 46331.47883575 0 218.76387773 0 18536.82837153 0 -181.60614971 0 -16860.50486478 0 1887
0.04250000 0.04250150 44180.78483552 0 421.64516142 0 20136.17897147 0 2673.04501170 0 -20409.46606427 0 1920
0.04350000 0.04349210 46577.37067209 0 1006.26437080 0 18997.11304489 0 462.90995967 0 -14752.62288477 0 2005
0.04450000 0.04448520 42871.91268366 0 1310.26964268 0 18757.32136686 0 2662.69692495 0 -16497.60090063 0 2151
0.04550000 0.04548030 41732.73584511 0 1687.59216285 0 17585.75823322 0 943.30962781 0 -6893.22326811 0 2274
0.04650000 0.04648670 40081.25661952 0 -566.73576342 0 14336.70299921 0 2531.07769077 0 -9799.09468615 0 2311
0.04750000 0.04749250 40715.22943708 0 95.27526729 0 15629.71473944 0 1019.52944235 0 -8878.76934578 0 2568
0.04850000 0.04851840 39894.03721503 0 -13.64494505 0 10146.06060028 0 2238.91338076 0 -10828.93450518 0 2493
0.04950000 0.04949480 40440.83322458 0 -914.67104817 0 8619.65680267 0 2208.49022753 0 -10448.38444669 0 2644
0.05050000 0.05050630 41464.43979093 0 -890.21828625 0 5976.30292520 0 1984.30386361 0 -9589.70397896 0 2829
0.05150000 0.05149060 41563.48417968 0 95.95637769 0 3371.23585959 0 -611.91686331 0 -9959.31811726 0 2784
0.05250000 0.05249300 41710.33162727 0 171.12718683 0 4146.15560797 0 1788.54423748 0 -6615.36660216 0 3055
0.05350000 0.05348950 41001.16049440 0 349.77198696 0 1086.37719548 0 2410.76038627 0 -6558.84586251 0 3009
0.05450000 0.05448610 40218.34381380 0 1606.94806984 0 3488.70272647 0 -1635.87391148 0 -3175.95315493 0 3336
0.05550000 0.05550870 37111.14498875 0 2402.22016462 0 5390.90955027 0 -2253.39848397 0 -4870.81005178 0 3349
0.05650000 0.05647670 34581.46478880 0 2548.59069075 0 9807.83454934 0 -2699.87461712 0 950.64978195 0 3324
0.05750000 0.05747970 32446.29846430 0 662.80105667 0 10164.67162876 0 -104.56492112 0 -1562.37254931 0 3639
0.05850000 0.05849280 32924.32905277 0 -224.66328538 0 12543.81101253 0 2174.31824973 0 -36.74702099 0 3846
0.05950000 0.05951020 32017.51279028 0 325.37800839 0 9745.56856968 0 1370.07337662 0 797.82750656 0 3787
0.06050000 0.06049470 32189.98090283 0 613.83342214 0 10193.79711194 0 -597.23100943 0 -92.70588060 0 3930
0.06150000 0.06148310 31395.62937739 0 115.52036181 0 11911.61278648 0 450.98692295 0 1017.47091620 0 4083
0.06250000 0.06249100 31128.44244291 0 117.39255586 0 9172.09823147 0 520.18379159 0 189.90014679 0 4303
0.06350000 0.06350600 31522.95631836 0 -44.37011157 0 9629.69883516 0 1012.11830455 0 705.63304104 0 4470
0.06450000 0.06451750 30902.84749699 0 -112.99378715 0 7492.59155119 0 1486.42003261 0 200.21274171 0 4479
0.06550000 0.06550280 31363.90855412 0 197.95790137 0 6708.47720054 0 1119.82269988 0 1170.39855796 0 4636
0.06650000 0.06648880 30951.20511568 0 142.71154025 0 6528.95508674 0 687.38691294 0 177.14527030 0 4653
0.06750000 0.06749660 30340.63472368 0 365.90080556 0 6779.05048672 0 260.24939079 0 -751.52730489 0 5220
0.06850000 0.06852730 29560.47993034 0 1005.02770234 0 7156.69465161 0 -914.90285418 0 1596.20070000 0 5029
0.06950000 0.06949320 28640.46514349 0 890.74511811 0 5755.54374114 0 -1424.35369448 0 -818.78321407 0 5040
0.07050000 0.07048030 27505.17022387 0 578.30166360 0 8580.50487745 0 65.78710196 0 1327.97119300 0 5475
0.07150000 0.07148790 27470.78751333 0 -30.21441690 0 8085.39384568 0 518.59331395 0 -1545.63593311 0 5509
0.07250000 0.07249820 27366.08661414 0 -55.16428626 0 7998.90469188 0 319.81688224 0 -1697.86261123 0 5916
0.07350000 0.07351270 26922.10600030 0 1001.33211552 0 7386.81480589 0 -424.69967706 0 -1932.86289217 0 5721
0.07450000 0.07449140 25960.38831292 0 928.69697583 0 8956.79591631 0 -2525.67627785 0 -3457.08172397 0 6028
0.07550000 0.07549160 25141.74706617 0 505.33267888 0 10198.89906254 0 -408.78824592 0 -1991.60187120 0 6183
0.07650000 0.07648840 24078.65583868 0 335.05285949 0 10792.57756159 0 415.74908113 0 -5490.31994852 0 6330
0.07750000 0.07749960 24595.28379253 0 215.43319128 0 10432.67931182 0 597.06796883 0 -835.45439220 0 6583
0.07850000 0.07848650 24344.95547741 0 -223.63402231 0 8999.14210626 0 2057.50576347 0 -2707.97119089 0 6549
0.07950000 0.07947320 24286.61578146 0 -260.30151942 0 8547.79693765 0 2277.22237502 0 469.40163724 0 6828
0.08050000 0.08048110 24493.46660455 0 48.54361807 0 7391.86130051 0 600.94323305 0 642.63836974 0 7147
0.08150000 0.08149960 24233.48894808 0 399.86315974 0 7348.91618592 0 314.27904761 0 1219.89856994 0 7386
0.08250000 0.08250610 23939.23949304 0 256.54825837 0 7214.21359899 0 62.13621266 0 1835.95910443 0 7227
0.08350000 0.08350160 23165.62850591 0 484.89936674 0 7701.97116718 0 -309.03291145 0 1180.90192147 0 7798
0.08450000 0.08449610 22176.62647403 0 883.44045580 0 7497.42731306 0 -625.38823112 0 1463.00651585 0 7371
0.08550000 0.08548940 21664.98955881 0 555.22531923 0 8487.05045196 0 160.63158716 0 1227.60695182 0 8256
0.08650000 0.08650700 21072.05416996 0 143.24946330 0 7668.88612668 0 1534.13436188 0 1802.18640972 0 8037
0.08750000 0.08749060 20826.82780543 0 45.86431762 0 8420.31471992 0 440.02327477 0 1388.12984525 0 8155
0.08850000 0.08849210 20528.14187162 0 475.51177764 0 6285.11512183 0 314.43654260 0 1478.06836130 0 8718
0.08950000 0.08949900 19519.06477327 0 626.69033764 0 7985.48434357 0 -722.56486230 0 1173.50409311 0 8571
0.09050000 0.09049190 18867.12421665 0 856.70845291 0 8255.68808362 0 -975.15134512 0 1493.14129796 0 8932
0.09150000 0.09150830 18369.57312155 0 128.19870905 0 7723.13317096 0 960.33239688 0 767.59955839 0 9285
0.09250000 0.09250820 17960.97342598 0 -136.77774989 0 7076.08383219 0 890.20386770 0 162.10893460 0 9204
0.09350000 0.09350330 18085.86030362 0 -107.76240228 0 6735.00734364 0 1216.32720452 0 1132.37793482 0 9349
0.09450000 0.09448040 18301.80590820 0 10.59517644 0 6270.58565383 0 605.19670708 0 1370.73884844 0 9564
0.09550000 0.09549270 17868.69466737 0 86.61381886 0 5482.41192510 0 179.86261355 0 765.21827841 0 10155
0.09650000 0.09649430 18018.31491420 0 298.21455795 0 6010.41944701 0 -972.91979630 0 1494.27260005 0 9913
0.09750000 0.09749140 17392.43867042 0 565.13863106 0 6709.48649946 0 -686.81571630 0 58.45637534 0 10476
0.09850000 0.09850240 17186.14240718 0 336.97274568 0 7363.00200605 0 -406.99036290 0 392.78808520 0 10575
0.09950000 0.09950330 16713.65741719 0 194.94996876 0 6964.35111414 0 -262.08720213 0 -701.57033560 0 10882
0.10050000 0.10051200 16663.63611895 0 95.68952349 0 7928.30922330 0 269.97526140 0 -205.16607027 0 10875
0.10150000 0.10150300 16498.82093230 0 -79.45389667 0 6948.66816165 0 1184.75056681 0 200.39463734 0 11118
0.10250000 0.10250800 16252.15271217 0 223.47652731 0 6164.69799656 0 787.08679143 0 256.62256939 0 11575
0.10350000 0.10349800 16110.62903911 0 196.64026717 0 5953.84325138 0 535.14470715 0 -461.98828120 0 11364
0.10450000 0.10450100 15729.86824788 0 30.05559096 0 5869.23960106 0 568.44048039 0 1805.63577197 0 12093
0.10550000 0.10551000 15383.49016718 0 108.70859230 0 4799.43819942 0 393.59108786 0 598.00295674 0 12067
0.10650000 0.10649700 15506.26971740 0 236.78485453 0 4813.45747236 0 305.67893349 0 1058.86548145 0 12054
0.10750000 0.10749900 15294.76059160 0 43.27297037 0 4670.09266061 0 -465.87352749 0 193.42492918 0 12807
0.10850000 0.10850100 15264.14888802 0 133.87962012 0 5022.39344047 0 -288.33119234 0 208.48677463 0 12736
0.10950000 0.10950300 15144.14213704 0 199.76354823 0 4742.20762317 0 -448.40489230 0 -1064.94678474 0 12933
0.11050000 0.11050200 15093.01171911 0 78.74239638 0 5458.17765977 0 -505.81847330 0 -1528.58876340 0 13428
0.11150000 0.11150900 14759.27760294 0 139.49842050 0 5310.22109248 0 -29.28918925 0 -1363.36320247 0 13453
0.11250000 0.11250000 15043.54498072 0 -14.23144754 0 5373.60728304 0 194.06600036 0 -2334.81896077 0 13668
0.11350000 0.11349100 14901.46674781 0 -213.86933251 0 4914.57591494 0 418.67161152 0 -1854.90286882 0 13791
0.11450000 0.11448600 15316.49933762 0 -93.67148021 0 4331.96643045 0 395.90582067 0 -2532.18681046 0 14205
0.11550000 0.11549300 15348.10924892 0 -225.36646727 0 4109.94284994 0 561.91552923 0 -1972.53610365 0 14776
0.11650000 0.11649800 15393.25042050 0 9.06123063 0 3002.06536917 0 792.29743576 0 -1919.66436780 0 14553
0.11750000 0.11747300 15245.95932503 0 196.63250334 0 3250.33072166 0 107.78281009 0 -2045.24999084 0 14568
0.11850000 0.11849100 14912.33612082 0 294.35149405 0 2879.27472776 0 -75.31022549 0 -1178.97205320 0 16015
0.11950000 0.11950300 14561.63247332 0 227.70892807 0 3152.09599029 0 289.05433839 0 -1666.77398618 0 15270
0.12050000 0.12050700 14133.40135915 0 227.99619007 0 2901.57912482 0 68.99944533 0 -448.72764613 0 15999
0.12150000 0.12150000 14193.73747055 0 74.96118552 0 2702.83596671 0 527.43299792 0 -1065.29393920 0 15670
0.12250000 0.12250700 13919.11943411 0 81.48447300 0 2692.87607185 0 13.85312681 0 -12.18245982 0 16887
0.12350000 0.12352200 13856.23234741 0 196.77003418 0 2512.00083202 0 -401.07875492 0 -489.19276908 0 16407
0.12450000 0.12449800 13713.37773072 0 119.36235244 0 3185.94632338 0 348.10054358 0 338.49002142 0 16306
0.12550000 0.12549900 13527.82200578 0 -64.55731004 0 1991.30240889 0 431.09486122 0 -794.16186596 0 17523
0.12650000 0.12650100 13549.67166377 0 36.21586357 0 2538.47551913 0 144.72791986 0 -9.68400134 0 17154
0.12750000 0.12750600 13660.91636916 0 251.62154869 0 1781.54569220 0 110.59121207 0 -473.78931476 0 18007
0.12850000 0.12850300 12911.81692727 0 183.27648397 0 2156.35051067 0 185.54796111 0 -217.84219926 0 17496
0.12950000 0.12949900 12666.14691487 0 427.57451531 0 1743.00378281 0 -379.47088503 0 152.65923480 0 18405
0.13050000 0.13049000 12374.00478725 0 305.36283438 0 2445.16527921 0 -47.78642205 0 139.70138940 0 18100
0.13150000 0.13148800 11792.38241929 0 305.67560613 0 2650.16387240 0 43.79946948 0 171.68174668 0 19059
0.13250000 0.13249300 11659.95352773 0 204.54496324 0 2862.19428446 0 -226.70073826 0 592.56050640 0 18957
0.13350000 0.13349100 11295.60770798 0 128.74328682 0 3004.22815258 0 -181.60282235 0 -20.67132922 0 19468
0.13450000 0.13450700 11536.84124160 0 17.98781412 0 2885.01996778 0 241.67496326 0 584.24765428 0 19953
0.13550000 0.13551000 11398.86675157 0 -171.77047626 0 2998.05035588 0 387.67060693 0 711.30397004 0 19956
0.13650000 0.13649900 11589.74625105 0 -28.31416213 0 2662.43073622 0 201.67567059 0 481.88699765 0 19723
0.13750000 0.13749600 11747.79580756 0 40.70857472 0 2440.67334444 0 389.61267552 0 564.66281871 0 20946
0.13850000 0.13851100 11372.35879086 0 128.39835059 0 2579.90113973 0 -344.77096626 0 698.14426486 0 20955
0.13950000 0.13949800 11353.28193211 0 193.55136882 0 2329.08481195 0 36.45765166 0 662.01358168 0 20506
0.14050000 0.14048300 11153.64038704 0 201.62576020 0 2843.96035668 0 -138.91724178 0 758.76985650 0 21447
0.14150000 0.14148400 10827.91411507 0 136.11671455 0 2859.96495387 0 -38.32540923 0 196.82881752 0 21771
0.14250000 0.14249400 10809.61364010 0 72.26247548 0 2753.36746000 0 59.12062712 0 403.56429216 0 22470
0.14350000 0.14350900 10726.88440206 0 68.67558238 0 2822.41016101 0 39.46780252 0 284.62895080 0 22519
0.14450000 0.14449900 10649.76730968 0 74.85293544 0 2961.89305383 0 -98.53607919 0 325.17171213 0 22218
0.14550000 0.14550500 10648.95765231 0 84.75770705 0 3060.37179153 0 218.37346759 0 876.00713560 0 23559
0.14650000 0.14650700 10554.31646875 0 13.12587703 0 2880.23966189 0 64.84102286 0 214.56475056 0 23044
0.14750000 0.14750500 10639.92941799 0 83.72090196 0 2897.18701083 0 187.43124635 0 755.13083478 0 23649
0.14850000 0.14849900 10375.31564120 0 184.87916193 0 3225.86354119 0 -183.56818245 0 600.57278707 0 23640
0.14950000 0.14949500 10096.18348760 0 242.42029170 0 3086.90193463 0 -455.26923409 0 377.08184120 0 24457
0.15050000 0.15050000 9839.49991663 0 294.02097638 0 3729.24860589 0 -147.68926944 0 225.90660856 0 24591
0.15150000 0.15149900 9472.31475046 0 197.94237370 0 3222.89110041 0 35.36106502 0 44.36301320 0 25020
0.15250000 0.15250500 9329.97032883 0 35.41995928 0 3355.74145746 0 450.50778324 0 92.09830483 0 25297
0.15350000 0.15350100 9515.43732420 0 -200.04637376 0 2655.06618145 0 711.91287675 0 256.50167534 0 25452
0.15450000 0.15450400 9443.79928311 0 -88.83438740 0 1993.87556658 0 893.07648771 0 384.34213873 0 26061
0.15550000 0.15549900 9542.42220637 0 147.13581872 0 1675.40293741 0 -18.16338777 0 64.20760461 0 26128
0.15650000 0.15649500 9140.56595854 0 271.30509591 0 1614.80063728 0 -510.45792099 0 701.08232294 0 26331
0.15750000 0.15749700 8917.15597842 0 141.79429826 0 1609.70977788 0 205.60195431 0 487.75756819 0 27345
0.15850000 0.15849900 9004.16641848 0 -102.04278293 0 2017.77709600 0 243.42404502 0 1014.85672108 0 26980
0.15950000 0.15949700 8985.76612274 0 91.66108985 0 1367.98823159 0 360.83656503 0 437.15730947 0 27777
0.16050000 0.16050000 8772.07203114 0 139.74908155 0 1716.81746681 0 -88.76174006 0 1335.30247419 0 28224
0.16150000 0.16150500 8659.03055184 0 78.79663233 0 1608.68938776 0 -85.21910084 0 1187.40136288 0 28075
0.16250000 0.16249700 8688.08948785 0 93.79370520 0 1859.72753949 0 -50.29358712 0 1026.56458858 0 28590
0.16350000 0.16349900 8674.72459552 0 62.81554848 0 2002.92598329 0 -206.90295171 0 1038.24916456 0 29163
0.16450000 0.16449100 8487.90447413 0 17.25790245 0 2121.16923395 0 23.57378455 0 951.41840189 0 28996
0.16550000 0.16550500 8560.28562541 0 75.11712775 0 2030.76488763 0 -66.04419591 0 763.17084345 0 30777
0.16650000 0.16650700 8425.16157299 0 104.10574556 0 1905.34563254 0 162.78771585 0 512.82478241 0 29211
0.16750000 0.16749900 8298.51119504 0 176.25908366 0 2187.47240931 0 -28.68582814 0 952.38333603 0 30922
0.16850000 0.16850800 8093.10222756 0 28.21644868 0 1896.37285421 0 193.03562817 0 652.60824667 0 30867
0.16950000 0.16949900 8256.60865297 0 18.79824788 0 2184.68851888 0 -104.88712039 0 1109.54116031 0 30852
0.17050000 0.17049200 8146.57288805 0 72.50337627 0 1885.82512591 0 -67.97949886 0 382.35459623 0 31257
0.17150000 0.17149500 8043.04765573 0 110.95411603 0 2276.93400389 0 -122.09522337 0 814.78816493 0 32608
0.17250000 0.17250900 7985.59525554 0 105.67836638 0 2516.86986748 0 -307.72858669 0 607.84306667 0 32361
0.17350000 0.17350400 7941.49665647 0 77.01294604 0 2690.82420041 0 -96.39148535 0 758.10327557 0 32508
0.17450000 0.17449800 7970.55559248 0 0.36425044 0 2491.71503280 0 284.94726816 0 625.85738875 0 32791
0.17550000 0.17549800 7956.96887622 0 -35.51789455 0 2594.47497252 0 232.18422603 0 929.90369805 0 33633
0.17650000 0.17650100 8000.80128655 0 -21.63992345 0 2370.13333185 0 479.07981570 0 1271.26190301 0 33984
0.17750000 0.17750300 8039.05482483 0 84.18229575 0 2176.93577221 0 -47.56859094 0 1013.80305737 0 34069
0.17850000 0.17849800 7899.96012390 0 199.13911385 0 2110.93205917 0 -267.76256760 0 891.94518562 0 34536
