### header ###
fiducial parameters:
Omega_m = 0.31
Omega_nu = 0
Omega_de = 0.69
Omega_k = 0
H_0 = 100
w_de = -1
zeff = 0
beta = 0
fgrowth = 0
b_1 = 2
gamma = 0.55
Lx = 3500 Ly = 3500 Lz = 3500
nx = 700 ny = 700 nz = 700
xoffset = 1379.75464 yoffset = 22.6059522 zoffset = 368.141391
bins = 400 dk = 0.001
kx_ny = 0.628318531 ky_ny = 0.628318531 kz_ny = 0.628318531
############################
A(data) = 3.29503388 (not used)
A(ran) = 3.2908802 (used)
Ngal = 184880
weighted Ngal = 0
Nran = 9399747
weighted Nran = 0
SN(data) = 6690.33863
SN(ran) = 130.89602
SN(data+ran) = 6821.23465
############################
13 columns: k_central k_mean P_0(k) sigma^{lin}_{P_0(k)} P^img_1(k) sigma^{lin}_{P_1(k)} P_2(k) sigma^{lin}_{P_2(k)} P^img_3(k) sigma^{lin}_{P_3(k)} P_4(k) sigma^{lin}_{P_4(k)} N_modes
### header ###
0.00050000 0 0 0 0 0 0 0 0 0 0 0 0
0.00150000 0.00179520 48319.35406478 0 -15847.21311159 0 -44616.89069952 0 64675.65311629 0 -82878.85828362 0 3
0.00250000 0.00253879 73888.66677330 0 -9857.36783491 0 -6911.67901983 0 -21124.95917940 0 39857.10352919 0 6
0.00350000 0.00331552 70826.49820787 0 -6351.58466514 0 -26487.99655175 0 604.31052044 0 67221.63737576 0 7
0.00450000 0.00420575 58559.30164723 0 -125.61446016 0 -17784.29065860 0 -10026.76368590 0 603.92121943 0 24
0.00550000 0.00557378 62993.67309909 0 -3246.71499146 0 -40707.90924709 0 -8049.58037073 0 -16119.50199667 0 45
0.00650000 0.00659388 57355.35221850 0 -5061.20153859 0 -24793.70530593 0 -13983.00472853 0 -8397.62213097 0 40
0.00750000 0.00754703 50779.71428380 0 5953.53269787 0 -31112.47111931 0 -27036.78897674 0 1114.45456055 0 57
0.00850000 0.00846663 59779.99878335 0 1226.03200185 0 -21152.24352389 0 -29478.84872080 0 -47280.33073467 0 75
0.00950000 0.00948925 53751.15685820 0 2619.85163114 0 8407.43784027 0 -32694.40854003 0 -18995.56027731 0 112
0.01050000 0.01054430 49319.66911754 0 6352.52741688 0 4282.64387762 0 -7835.42044886 0 -24127.78984116 0 105
0.01150000 0.01145670 52846.55883510 0 -3521.61030782 0 29947.89543974 0 -5799.40942507 0 -15703.58211111 0 144
0.01250000 0.01249090 63543.46373182 0 -12130.88575015 0 12018.19918916 0 19837.93668553 0 -28353.86861434 0 169
0.01350000 0.01339930 85270.12034566 0 -6047.66368637 0 34883.92172958 0 10608.39714507 0 -15037.11208649 0 180
0.01450000 0.01448870 84151.46222146 0 4396.68356464 0 26302.44082680 0 -27730.76516979 0 -14514.27306235 0 267
0.01550000 0.01550050 85176.84337933 0 10701.60756422 0 53306.39986058 0 -23144.11158383 0 -14897.14118101 0 238
0.01650000 0.01653350 81754.32182504 0 1179.33806270 0 68091.96360028 0 3584.20902339 0 2568.14447097 0 315
0.01750000 0.01747870 70611.99445889 0 555.95290175 0 68847.60684837 0 26798.88280220 0 -4121.18932364 0 297
0.01850000 0.01844180 82036.03822753 0 1061.09703028 0 52077.60615068 0 5225.43998300 0 470.46861039 0 388
0.01950000 0.01947590 75513.52712622 0 5884.03525779 0 74615.14017341 0 12612.02187376 0 13559.09918117 0 399
0.02050000 0.02045430 70711.92614339 0 1091.65105963 0 54908.85599566 0 17259.12248310 0 31065.88809212 0 462
0.02150000 0.02154770 73355.62384797 0 -2277.28892220 0 49514.98509580 0 17252.57867690 0 21095.01294764 0 571
0.02250000 0.02255340 72727.64027676 0 1347.36969647 0 38717.48304276 0 236.68614288 0 18624.11609152 0 510
0.02350000 0.02348930 65914.42890344 0 3998.02158153 0 37877.43578591 0 10035.23736037 0 24625.89549611 0 555
0.02450000 0.02439640 69268.85050846 0 1007.47885687 0 39955.48244612 0 3571.74251802 0 21523.35497378 0 592
0.02550000 0.02547300 63185.66171827 0 2117.77532769 0 38049.23842663 0 2183.56830798 0 19361.23704070 0 837
0.02650000 0.02652900 60583.99965012 0 5475.60193017 0 31278.06268974 0 -628.80210154 0 7877.38953811 0 723
0.02750000 0.02749970 55123.13792070 0 261.69901023 0 37242.13202471 0 4075.71541615 0 18231.37680758 0 826
0.02850000 0.02848090 53487.74093068 0 2255.08434591 0 38533.14734948 0 2777.04716549 0 12628.10410934 0 831
0.02950000 0.02946900 53244.28915767 0 2574.78809794 0 36859.48573000 0 4541.03549292 0 16763.45689148 0 996
0.03050000 0.03053250 50139.97404383 0 117.74081944 0 32011.85627984 0 8625.71259621 0 9880.19351823 0 1041
0.03150000 0.03150510 48676.60151848 0 2357.56700571 0 33817.94679089 0 122.97142792 0 13875.53103010 0 1036
0.03250000 0.03246190 44925.55871059 0 1325.93041277 0 30779.84612283 0 757.10395872 0 12629.43505297 0 1059
0.03350000 0.03345080 44512.96618412 0 1581.74887038 0 31376.33069470 0 2669.45146389 0 9017.14311890 0 1302
0.03450000 0.03451200 44894.94700702 0 -93.79348338 0 28792.85818956 0 883.67004358 0 5917.87449968 0 1339
0.03550000 0.03553350 44133.42542455 0 -207.49633075 0 25489.56700247 0 3223.53438983 0 2811.88461510 0 1365
0.03650000 0.03647120 44259.86506976 0 -750.10874081 0 23815.57264707 0 1776.62120076 0 2200.83730163 0 1308
0.03750000 0.03744890 44483.01995236 0 172.09766657 0 23066.25138125 0 591.72533926 0 -2031.01998516 0 1579
0.03850000 0.03847530 45725.56674647 0 84.13205263 0 20428.65383499 0 4730.34004243 0 -2435.97067694 0 1662
0.03950000 0.03950240 44160.93159298 0 -107.41779880 0 19570.97157499 0 926.59519400 0 -2610.69030246 0 1683
0.04050000 0.04050350 43675.80263847 0 595.23126662 0 15385.26475870 0 -94.10924975 0 -3535.37448323 0 1822
0.04150000 0.04152450 44809.87752642 0 387.23028641 0 17423.16128596 0 30.33165085 0 -2534.20540831 0 1887
0.04250000 0.04250150 43923.80180223 0 317.19825064 0 19373.88100522 0 -684.23035829 0 -8816.51445731 0 1920
0.04350000 0.04349210 41999.47913171 0 1386.36634494 0 17561.02486403 0 -2225.07156696 0 -9090.14537722 0 2005
0.04450000 0.04448520 40873.38990556 0 1536.31932768 0 19197.75279768 0 -1993.95320496 0 -9895.13336052 0 2151
0.04550000 0.04548030 39754.06630954 0 1217.45850661 0 21688.72472028 0 -154.56581155 0 -7281.91426516 0 2274
0.04650000 0.04648670 39179.76413157 0 -52.34490400 0 18045.59925870 0 3017.33794737 0 -10885.31105927 0 2311
0.04750000 0.04749250 38198.52593756 0 78.35542452 0 19593.15396888 0 4272.35124685 0 -5479.67239945 0 2568
0.04850000 0.04851840 38254.09283427 0 1199.25785242 0 15920.08227554 0 1645.04633136 0 -3820.96171345 0 2493
0.04950000 0.04949480 35969.74991081 0 1422.87856529 0 16394.89641689 0 -734.79068870 0 -1589.36852268 0 2644
0.05050000 0.05050630 34880.81619443 0 403.07738861 0 16478.63495385 0 2236.39567905 0 600.64598897 0 2829
0.05150000 0.05149060 34755.37475695 0 -512.04174391 0 15633.37483443 0 1543.61733527 0 -266.54031770 0 2784
0.05250000 0.05249300 35079.68135572 0 -829.33094237 0 12448.64854272 0 4327.91814356 0 265.24597502 0 3055
0.05350000 0.05348950 36599.28624959 0 -699.14801819 0 11236.26980431 0 895.31136389 0 -1850.33329568 0 3009
0.05450000 0.05448610 36611.15383033 0 242.00880829 0 8182.43072778 0 -1136.35967453 0 -1812.85614119 0 3336
0.05550000 0.05550870 35422.84298929 0 900.29352956 0 9998.66968403 0 -1322.09285862 0 -3744.12190099 0 3349
0.05650000 0.05647670 34907.32415514 0 943.46157720 0 10381.77071782 0 -2730.49741190 0 -4659.48947633 0 3324
0.05750000 0.05747970 34412.98950716 0 658.72504179 0 9650.66119739 0 1641.06459166 0 -4282.20022974 0 3639
0.05850000 0.05849280 33039.45567709 0 589.78437980 0 13286.81029609 0 22.96709608 0 -6502.82422673 0 3846
0.05950000 0.05951020 32657.91850207 0 331.34839971 0 9845.03442391 0 1590.45545998 0 -2454.40424626 0 3787
0.06050000 0.06049470 32351.35781842 0 -437.96142125 0 10343.01807569 0 3264.34999460 0 -3143.82195737 0 3930
0.06150000 0.06148310 32741.98977494 0 -861.13051314 0 7239.32406888 0 919.61883112 0 2183.56830798 0 4083
0.06250000 0.06249100 33264.82879908 0 -347.42398057 0 8613.98920103 0 2016.36851399 0 -389.67700446 0 4303
0.06350000 0.06350600 34028.90135684 0 662.26867921 0 6371.64864042 0 -1346.02766164 0 219.73213922 0 4470
0.06450000 0.06451750 32776.15066154 0 1028.43456438 0 7844.45977437 0 -1676.48987471 0 -162.05458773 0 4479
0.06550000 0.06550280 32223.80905352 0 628.58582320 0 11386.44461098 0 -642.07604605 0 2705.44239799 0 4636
0.06650000 0.06648880 31544.02959256 0 456.22973175 0 11379.34624494 0 486.40666040 0 -190.58003716 0 4653
0.06750000 0.06749660 31312.88904816 0 609.66202297 0 11270.31977894 0 -433.55488871 0 -510.77402010 0 5220
0.06850000 0.06852730 29876.02448352 0 642.18584890 0 12005.88796054 0 129.27899163 0 1057.53121046 0 5029
0.06950000 0.06949320 29292.18387616 0 895.19712456 0 12415.15312793 0 1170.38746676 0 2729.31065382 0 5040
0.07050000 0.07048030 28739.39862026 0 651.58231096 0 11918.15659268 0 -44.68155238 0 2879.84037880 0 5475
0.07150000 0.07148790 27444.61228853 0 147.57946659 0 11313.46453506 0 3130.88962173 0 3065.54028931 0 5509
0.07250000 0.07249820 27431.74650007 0 497.10744722 0 11076.19055875 0 1030.81584437 0 5515.68551594 0 5916
0.07350000 0.07351270 26352.68394898 0 445.36479522 0 10266.35572238 0 -383.27405646 0 4824.27138939 0 5721
0.07450000 0.07449140 26003.64398102 0 594.45931931 0 11124.24871513 0 583.98479291 0 5745.27329277 0 6028
0.07550000 0.07549160 25269.73947895 0 411.38136777 0 9787.28256140 0 -549.77399593 0 4109.78757318 0 6183
0.07650000 0.07648840 25111.57901047 0 113.66036809 0 11570.33665639 0 913.14822682 0 3622.18528174 0 6330
0.07750000 0.07749960 25015.30742096 0 121.80352489 0 10671.36187014 0 -308.92754508 0 3619.61212405 0 6583
0.07850000 0.07848650 24155.96148141 0 619.57755304 0 11525.08457284 0 -387.24581409 0 1783.78611399 0 6549
0.07950000 0.07947320 24639.98131623 0 345.18244966 0 11211.20369920 0 -685.90623815 0 3765.39481674 0 6828
0.08050000 0.08048110 24033.73649104 0 -336.25847260 0 11451.66084904 0 1216.80412599 0 1170.07691325 0 7147
0.08150000 0.08149960 24294.93417917 0 -48.41972940 0 9975.31162326 0 1738.81131036 0 2646.98069888 0 7386
0.08250000 0.08250610 24339.52079090 0 35.17240376 0 8419.87107205 0 1478.77819791 0 2556.96454444 0 7227
0.08350000 0.08350160 23893.87649753 0 112.32387885 0 8168.83292032 0 1381.87441017 0 4576.95987984 0 7798
0.08450000 0.08449610 23367.04464248 0 481.66073723 0 7023.98848013 0 1938.41958184 0 5338.19309118 0 7371
0.08550000 0.08548940 22654.43523856 0 606.38124691 0 6517.95261937 0 832.95776377 0 4511.34435869 0 8256
0.08650000 0.08650700 21626.83584131 0 723.62074425 0 6122.61799534 0 580.22598627 0 7522.01649669 0 8037
0.08750000 0.08749060 19972.80564042 0 755.16854485 0 5562.10217517 0 -133.48588263 0 6344.79685261 0 8155
0.08850000 0.08849210 20212.70823041 0 248.72009156 0 6367.66690072 0 360.05130829 0 7169.18333938 0 8718
0.08950000 0.08949900 19279.60583116 0 381.41960833 0 5752.26074685 0 -190.83402557 0 5274.76253583 0 8571
0.09050000 0.09049190 19340.94015028 0 121.14138043 0 5461.28319491 0 64.97444996 0 5536.86970211 0 8932
0.09150000 0.09150830 18975.26338690 0 -224.01777772 0 6187.24639996 0 282.58262497 0 4475.30905980 0 9285
0.09250000 0.09250820 19254.42881408 0 266.56471833 0 5139.01737638 0 -311.25780556 0 3353.34575892 0 9204
0.09350000 0.09350330 18917.81098671 0 302.04656649 0 5762.98593430 0 -223.46321787 0 3396.08014076 0 9349
0.09450000 0.09448040 18347.50163963 0 407.80556587 0 5801.60548207 0 -600.63822513 0 1991.65732719 0 9564
0.09550000 0.09549270 17863.25998087 0 648.75294661 0 7082.40581445 0 -738.84119383 0 2010.24617327 0 10155
0.09650000 0.09649430 17389.00039936 0 387.40552732 0 6751.45558872 0 -161.90263833 0 680.14325222 0 9913
0.09750000 0.09749140 16678.16558695 0 -21.78543996 0 7294.21440257 0 438.06235115 0 1415.32546017 0 10476
0.09850000 0.09850240 17148.21051362 0 -245.61788378 0 5945.25866494 0 1335.47993334 0 647.06930292 0 10575
0.09950000 0.09950330 16943.79975386 0 -38.51994883 0 4897.59529241 0 520.79380742 0 -213.52106893 0 10882
0.10050000 0.10051200 16921.06280012 0 407.75010989 0 4946.09709667 0 -158.07062979 0 1038.45102435 0 10875
0.10150000 0.10150300 16437.93026105 0 540.37864299 0 4945.64235759 0 -490.48267528 0 -248.99182589 0 11118
0.10250000 0.10250800 15872.05739275 0 70.84923516 0 4856.20294540 0 386.87093163 0 1360.29094091 0 11575
0.10350000 0.10349800 15570.04409985 0 101.28591965 0 3873.02379193 0 608.65383317 0 -661.41132969 0 11364
0.10450000 0.10450100 15516.69544253 0 206.24746197 0 5123.19023834 0 79.14922149 0 1336.31177311 0 12093
0.10550000 0.10551000 15119.74150376 0 160.71255290 0 4132.69089488 0 415.45849177 0 568.15654575 0 12067
0.10650000 0.10649700 15398.68510700 0 -148.68082245 0 4499.74296668 0 427.59558859 0 1174.32484168 0 12054
0.10750000 0.10749900 15296.75700705 0 164.50574226 0 3788.86378948 0 -80.32987940 0 789.07877040 0 12807
0.10850000 0.10850100 15088.90797624 0 287.91749070 0 4216.07451353 0 -741.54079116 0 687.83388818 0 12736
0.10950000 0.10950300 14725.56036422 0 224.67326746 0 5070.36286727 0 -731.97574291 0 121.82127080 0 12933
0.11050000 0.11050200 14759.05577900 0 -165.66588146 0 4065.52260616 0 1263.67552430 0 -2.81601054 0 13428
0.11150000 0.11150900 14849.11629822 0 -113.16015510 0 4005.16431237 0 329.50726102 0 -18.06656162 0 13453
0.11250000 0.11250000 15014.37513275 0 -80.98248543 0 3459.03377464 0 228.17475834 0 -895.46442241 0 13668
0.11350000 0.11349100 15095.78451835 0 51.29456765 0 3161.47914291 0 -5.60999396 0 -319.05602613 0 13791
0.11450000 0.11448600 14797.09858453 0 387.10273765 0 3312.50797175 0 -436.38203481 0 -860.75119420 0 14205
0.11550000 0.11549300 14582.70574752 0 173.02378151 0 3127.32934751 0 -182.00876016 0 -922.23413536 0 14776
0.11650000 0.11649800 14214.92165672 0 151.15415937 0 3841.61352217 0 125.51685762 0 -597.20439056 0 14553
0.11750000 0.11747300 14187.41548829 0 60.85185206 0 2967.79357060 0 750.62448146 0 -385.68195532 0 14568
0.11850000 0.11849100 14149.92724260 0 -372.58879732 0 3008.95300248 0 928.25110971 0 385.69637387 0 16015
0.11950000 0.11950300 14585.47854676 0 -141.19093715 0 1977.09458560 0 918.14481105 0 163.79923301 0 15270
0.12050000 0.12050700 14465.80453169 0 100.01619942 0 2491.74830639 0 -98.28319990 0 687.69968470 0 15999
0.12150000 0.12150000 14474.56657728 0 408.65626068 0 2381.75690625 0 -822.65293268 0 1182.69869538 0 15670
0.12250000 0.12250700 13966.58975705 0 317.89477781 0 3516.58599560 0 -552.50353950 0 640.81386784 0 16887
0.12350000 0.12352200 13731.01273387 0 230.78784434 0 3717.24793079 0 -194.96549643 0 528.64526574 0 16407
0.12450000 0.12449800 13532.36939653 0 133.62895907 0 3470.41334270 0 82.71382127 0 595.20353863 0 16306
0.12550000 0.12549900 13444.74894064 0 82.76106977 0 4094.22662386 0 164.27171800 0 709.95417137 0 17523
0.12650000 0.12650100 12967.93838383 0 365.67010866 0 3424.11868664 0 -34.89423654 0 375.68435039 0 17154
0.12750000 0.12750600 13083.17592012 0 321.70127660 0 3844.37523021 0 -339.19653067 0 351.78836656 0 18007
0.12850000 0.12850300 12202.20214653 0 104.22619596 0 3913.82830550 0 -82.70927388 0 215.41433625 0 17496
0.12950000 0.12949900 12320.54521796 0 -18.12700864 0 3382.11632380 0 512.56303017 0 -521.34725815 0 18405
0.13050000 0.13049000 12351.15692154 0 -28.14879238 0 2974.59247433 0 26.89138338 0 -703.37487334 0 18100
0.13150000 0.13148800 12288.15892287 0 106.04603956 0 3203.09331386 0 211.00003986 0 -1180.44718240 0 19059
0.13250000 0.13249300 12075.31885344 0 259.67819415 0 2593.74295352 0 -375.73093342 0 -1431.81807003 0 18957
0.13350000 0.13349100 11601.94656769 0 285.30773206 0 2832.50315023 0 -59.19305264 0 -1342.54502579 0 19468
0.13450000 0.13450700 11350.39822090 0 83.80663691 0 3099.77881429 0 42.36094124 0 -1246.01833875 0 19953
0.13550000 0.13551000 11448.22257799 0 93.91371195 0 2898.60668404 0 266.53033562 0 -771.99167238 0 19956
0.13650000 0.13649900 11286.51292648 0 9.86282470 0 2621.24912196 0 535.76248682 0 -1262.02293595 0 19723
0.13750000 0.13749600 11359.16026649 0 -10.24864308 0 2715.65739038 0 -141.10442581 0 -816.12687240 0 20946
0.13850000 0.13851100 11235.82615643 0 83.81240433 0 2865.54382594 0 164.32495575 0 -383.81530687 0 20955
0.13950000 0.13949800 11340.97070350 0 -56.60847102 0 2623.67809409 0 62.07720750 0 -60.44547060 0 20506
0.14050000 0.14048300 11308.69532038 0 -39.71236341 0 2424.31382894 0 335.85808039 0 91.09543881 0 21447
0.14150000 0.14148400 11396.75942415 0 63.46682356 0 2810.62021865 0 185.12982298 0 409.62784953 0 21771
0.14250000 0.14249400 11356.49837922 0 184.94016351 0 2693.37517571 0 -58.04378281 0 498.78332708 0 22470
0.14350000 0.14350900 10948.54197307 0 284.58125866 0 2924.28280497 0 -128.15434426 0 669.76854659 0 22519
0.14450000 0.14449900 10724.74380105 0 263.22959541 0 3490.74350671 0 -344.17869634 0 1056.79586410 0 22218
0.14550000 0.14550500 10552.76370117 0 139.66367933 0 3573.87202784 0 -40.69193792 0 1277.70588844 0 23559
0.14650000 0.14650700 10383.72276849 0 109.21379632 0 3651.78768640 0 288.74045751 0 774.82769144 0 23044
0.14750000 0.14750500 10302.64611879 0 134.47854476 0 3348.70963859 0 -47.63702363 0 1441.89996806 0 23649
0.14850000 0.14849900 10128.56978269 0 80.69688711 0 3561.03951297 0 236.74492622 0 940.25733041 0 23640
0.14950000 0.14949500 10060.86911652 0 -26.53779603 0 3178.67049818 0 410.93661077 0 1631.25997355 0 24457
0.15050000 0.15050000 10097.47006645 0 51.11555573 0 3540.93117290 0 25.71227824 0 980.70248920 0 24591
0.15150000 0.15149900 10034.25024384 0 87.23492589 0 3049.13640902 0 37.37944104 0 1615.84320980 0 25020
0.15250000 0.15250500 9965.73992030 0 26.02859917 0 3425.23889753 0 91.79817705 0 1405.14374137 0 25297
0.15350000 0.15350100 9862.82470381 0 86.82155697 0 2824.48421483 0 1.64661019 0 1088.12294988 0 25452
0.15450000 0.15450400 9997.48292596 0 75.52772386 0 3458.77867711 0 -24.26665163 0 1072.23813761 0 26061
0.15550000 0.15549900 9817.50607308 0 53.24062906 0 3229.56800097 0 -13.95527674 0 969.64456584 0 26128
0.15650000 0.15649500 9749.02902312 0 68.35737594 0 3273.73314722 0 -18.26842141 0 940.29171312 0 26331
0.15750000 0.15749700 9674.93982751 0 61.91538693 0 3205.21173248 0 -236.64621457 0 18.21130174 0 27345
0.15850000 0.15849900 9586.04388397 0 153.47443777 0 3064.30916645 0 -16.92705205 0 541.40457871 0 26980
0.15950000 0.15949700 9510.34646480 0 68.30158722 0 3129.55867809 0 112.08652724 0 -418.85794363 0 27777
0.16050000 0.16050000 9355.84609131 0 22.80394457 0 3079.94775414 0 197.78820606 0 34.87737792 0 28224
0.16150000 0.16150500 9343.54595389 0 92.37336652 0 2671.82498004 0 73.56569112 0 -671.87032841 0 28075
0.16250000 0.16249700 9042.47541273 0 210.08501611 0 2459.70583840 0 111.54971331 0 -322.72943056 0 28590
0.16350000 0.16349900 8860.09177012 0 143.72305741 0 2474.77877506 0 -42.40940977 0 -386.74005551 0 29163
0.16450000 0.16449100 8608.33269059 0 164.29500951 0 2471.27395682 0 153.69515259 0 -539.40261766 0 28996
0.16550000 0.16550500 8477.54529618 0 109.24740264 0 2199.24016927 0 252.58204634 0 -258.81418991 0 30777
0.16650000 0.16650700 8246.48239015 0 62.78138759 0 2193.08455497 0 192.25148054 0 -285.81459976 0 29211
0.16750000 0.16749900 8107.87570189 0 88.89272709 0 2059.35799336 0 132.05068175 0 109.95768290 0 30922
0.16850000 0.16850800 8274.33238569 0 -63.22958286 0 1743.02596520 0 355.15343572 0 224.82078038 0 30867
0.16950000 0.16949900 8189.87292093 0 20.64282485 0 1545.30319721 0 119.57641254 0 -45.75307291 0 30852
0.17050000 0.17049200 8360.72171872 0 48.98793142 0 1434.46886610 0 -37.08596797 0 35.76789013 0 31257
0.17150000 0.17149500 8102.36337701 0 46.27602285 0 1737.60236989 0 -127.12064470 0 -35.66973303 0 32608
0.17250000 0.17250900 8072.69442517 0 60.75192037 0 1617.20742702 0 -26.81585233 0 147.14136431 0 32361
0.17350000 0.17350400 8119.97619776 0 12.90616042 0 1534.64455694 0 10.92222256 0 -496.39650149 0 32508
0.17450000 0.17449800 8122.02806920 0 19.39118327 0 1561.69598629 0 -103.30363020 0 -256.55491309 0 32791
0.17550000 0.17549800 8185.24789180 0 82.92022845 0 1530.42990210 0 40.71833497 0 -564.44321301 0 33633
0.17650000 0.17650100 8035.66091856 0 1.19529830 0 1542.98513704 0 21.23509477 0 -23.53452172 0 33984
0.17750000 0.17750300 8148.93531300 0 -102.78788954 0 1101.07414056 0 457.26675866 0 -606.23040663 0 34069
0.17850000 0.17849800 8190.33875120 0 -6.20335082 0 1055.51039437 0 251.39196091 0 -230.02255175 0 34536
