### header ###
fiducial parameters:
Omega_m = 0.31
Omega_nu = 0
Omega_de = 0.69
Omega_k = 0
H_0 = 100
w_de = -1
zeff = 0
beta = 0
fgrowth = 0
b_1 = 2
gamma = 0.55
Lx = 3500 Ly = 3500 Lz = 3500
nx = 700 ny = 700 nz = 700
xoffset = 1379.75464 yoffset = 22.6059522 zoffset = 368.141391
bins = 400 dk = 0.001
kx_ny = 0.628318531 ky_ny = 0.628318531 kz_ny = 0.628318531
############################
A(data) = 3.2666497 (not used)
A(ran) = 3.26703948 (used)
Ngal = 183428
weighted Ngal = 0
Nran = 9399747
weighted Nran = 0
SN(data) = 6746.0059
SN(ran) = 129.947746
SN(data+ran) = 6875.95365
############################
13 columns: k_central k_mean P_0(k) sigma^{lin}_{P_0(k)} P^img_1(k) sigma^{lin}_{P_1(k)} P_2(k) sigma^{lin}_{P_2(k)} P^img_3(k) sigma^{lin}_{P_3(k)} P_4(k) sigma^{lin}_{P_4(k)} N_modes
### header ###
0.00050000 0 0 0 0 0 0 0 0 0 0 0 0
0.00150000 0.00179520 32874.19684256 0 -7076.16147057 0 -11703.20919583 0 28486.07568197 0 -25814.53907305 0 3
0.00250000 0.00253879 42230.06511627 0 -10447.12005024 0 3334.52399770 0 -16328.12741126 0 25971.70133381 0 6
0.00350000 0.00331552 54878.46611602 0 -19603.24695811 0 -38257.64201729 0 50798.12567074 0 10364.91209846 0 7
0.00450000 0.00420575 62524.40455622 0 -17700.88485755 0 -19669.01775601 0 -6663.74640325 0 -14692.50859731 0 24
0.00550000 0.00557378 101832.60474844 0 -13106.35652175 0 -44413.47814749 0 -21195.27736805 0 -20720.13049079 0 45
0.00650000 0.00659388 88066.65474419 0 3298.63288437 0 12478.81659841 0 -52100.12128049 0 -11059.11011545 0 40
0.00750000 0.00754703 86108.61483495 0 26658.69007278 0 5676.55223648 0 -56451.75240312 0 1539.32504205 0 57
0.00850000 0.00846663 68868.90194651 0 13196.30612900 0 43484.03584323 0 -8702.92950936 0 -8922.08046986 0 75
0.00950000 0.00948925 73189.03406981 0 -12045.37262168 0 51941.84990004 0 24868.68179730 0 653.40792197 0 112
0.01050000 0.01054430 84837.12001680 0 -10930.70732838 0 18423.58725069 0 47703.12716234 0 -16305.50136949 0 105
0.01150000 0.01145670 92953.10338366 0 -1355.33317588 0 28852.30700520 0 -12409.05296961 0 5971.93299360 0 144
0.01250000 0.01249090 89593.57982805 0 10733.18420193 0 29396.77386339 0 -2900.30363717 0 6867.50278239 0 169
0.01350000 0.01339930 84863.84980145 0 11132.12346496 0 65349.88697877 0 -10766.26924243 0 21367.30183272 0 180
0.01450000 0.01448870 67726.95230872 0 6597.99778774 0 65429.07812499 0 -5020.72976093 0 14442.18028219 0 267
0.01550000 0.01550050 67313.13975058 0 1977.99297255 0 69916.35458630 0 18091.84954997 0 5340.33369219 0 238
0.01650000 0.01653350 68694.21559457 0 -3819.61967862 0 53492.73196931 0 22714.99317390 0 8086.12586468 0 315
0.01750000 0.01747870 72729.74760418 0 -1472.77786036 0 45928.09200274 0 9244.53483874 0 3806.89807572 0 297
0.01850000 0.01844180 75470.71510600 0 432.59217281 0 59957.01428664 0 6662.94783707 0 23232.95207138 0 388
0.01950000 0.01947590 73376.36438626 0 2729.47702178 0 27014.05202300 0 8471.50059384 0 8430.77371865 0 399
0.02050000 0.02045430 73285.19474735 0 -2884.62068469 0 33937.62080596 0 14457.48613398 0 26044.90323366 0 462
0.02150000 0.02154770 76590.59326186 0 -1779.36072640 0 21613.85914088 0 16044.30368136 0 21032.01494898 0 571
0.02250000 0.02255340 76863.10397088 0 1992.88845005 0 16564.81355414 0 3640.44139192 0 29963.20129153 0 510
0.02350000 0.02348930 78818.26016891 0 -3139.26347542 0 14281.69066235 0 13090.27428617 0 29666.06812529 0 555
0.02450000 0.02439640 75066.21915330 0 -19.43809904 0 7628.89127049 0 271.48144594 0 15826.80530921 0 592
0.02550000 0.02547300 77850.66414715 0 4197.99586251 0 10880.97440127 0 -9336.66941179 0 24285.83939768 0 837
0.02650000 0.02652900 69677.45020403 0 4607.97086650 0 19751.75808524 0 -6913.98598880 0 -5224.71905520 0 723
0.02750000 0.02749970 65821.81740892 0 6624.67211640 0 41415.52761239 0 -12371.01016408 0 22054.51239563 0 826
0.02850000 0.02848090 56754.87481572 0 5970.43568202 0 31312.33448831 0 3144.04378131 0 -6825.42278116 0 831
0.02950000 0.02946900 54546.61750333 0 1164.29839964 0 47360.40917664 0 2956.62473528 0 17911.61759956 0 996
0.03050000 0.03053250 52064.29671435 0 799.43351187 0 32781.25261214 0 11707.09111476 0 5447.48574591 0 1041
0.03150000 0.03150510 56620.00586083 0 -2209.95426552 0 36002.69076575 0 11913.72011390 0 11267.76880364 0 1036
0.03250000 0.03246190 51916.78379494 0 830.64968568 0 24015.32510411 0 1585.27587101 0 16018.57210444 0 1059
0.03350000 0.03345080 54750.47370324 0 28.91142308 0 18769.07803563 0 3197.43680342 0 11753.00867012 0 1302
0.03450000 0.03451200 51051.22678510 0 -80.87368079 0 20664.00903423 0 5854.35521476 0 11796.48616216 0 1339
0.03550000 0.03553350 51829.38516298 0 1573.50811104 0 11589.74625105 0 3351.54898501 0 5866.15624831 0 1365
0.03650000 0.03647120 48902.97284819 0 963.00537535 0 15191.27972407 0 -132.37010822 0 7231.48259264 0 1308
0.03750000 0.03744890 44912.02745032 0 2171.73400084 0 7973.91622515 0 -365.55254198 0 2723.67632577 0 1579
0.03850000 0.03847530 42853.39038476 0 2758.87978489 0 14031.58417117 0 -2069.65062413 0 4188.06924124 0 1662
0.03950000 0.03950240 40953.24652359 0 747.88828318 0 12975.81313366 0 137.78593969 0 85.06293679 0 1683
0.04050000 0.04050350 39797.98744946 0 -618.88546235 0 10186.47692196 0 4449.14492620 0 196.04023342 0 1822
0.04150000 0.04152450 41256.03620027 0 -968.79498015 0 6926.95159803 0 3908.70417251 0 -697.65514308 0 1887
0.04250000 0.04250150 40730.09164099 0 237.44256251 0 6580.34060220 0 -1966.04775344 0 -2979.38387141 0 1920
0.04350000 0.04349210 40868.17704299 0 1408.84820115 0 6464.80360359 0 -2852.87767902 0 -3274.69808136 0 2005
0.04450000 0.04448520 40506.38219854 0 -928.48513396 0 8490.73272935 0 -222.81327373 0 -4448.86764628 0 2151
0.04550000 0.04548030 40826.36323050 0 475.66594528 0 6796.36384516 0 1396.08223346 0 -3859.58126122 0 2274
0.04650000 0.04648670 40190.06126158 0 535.40313204 0 10190.46975286 0 -1886.84551603 0 -4249.96921141 0 2311
0.04750000 0.04749250 39630.84311145 0 1485.24436573 0 8994.99399860 0 -2041.63426064 0 -6048.69516768 0 2568
0.04850000 0.04851840 38877.19627882 0 881.25659912 0 11736.26096273 0 114.32251254 0 -834.99521665 0 2493
0.04950000 0.04949480 36743.47180992 0 822.13164643 0 14906.90143432 0 -210.07614316 0 -4402.91681732 0 2644
0.05050000 0.05050630 36764.87782003 0 905.58513963 0 14600.11892673 0 984.65095531 0 -925.26092301 0 2829
0.05150000 0.05149060 35550.28084223 0 836.97721354 0 13574.29412099 0 837.27445762 0 -88.93565003 0 2784
0.05250000 0.05249300 33632.94562579 0 1557.80297617 0 16963.54208443 0 -947.82485408 0 1213.98696197 0 3055
0.05350000 0.05348950 32828.05746326 0 1099.35389591 0 17358.72143169 0 185.94169860 0 1026.94058015 0 3009
0.05450000 0.05448610 31586.61978884 0 187.22273185 0 15668.75575269 0 811.18019856 0 3080.72413793 0 3336
0.05550000 0.05550870 31830.18247383 0 -15.61108153 0 15232.09532884 0 2467.82459457 0 492.91941125 0 3349
0.05650000 0.05647670 32192.19914222 0 -608.69487060 0 16455.67617617 0 1884.28344953 0 1989.46127019 0 3324
0.05750000 0.05747970 31820.08948460 0 -245.09327016 0 11362.37671361 0 1485.78783438 0 62.36979327 0 3639
0.05850000 0.05849280 32539.46451866 0 244.44665338 0 13444.85985260 0 980.65146969 0 2999.05965480 0 3846
0.05950000 0.05951020 31284.27376003 0 1050.49717335 0 10897.33391676 0 -578.04878431 0 2362.46931476 0 3787
0.06050000 0.06049470 30772.63684481 0 435.45148338 0 14009.06904136 0 -4.67175634 0 1720.18919068 0 3930
0.06150000 0.06148310 30004.12780827 0 783.40340492 0 13881.63118843 0 -280.98992908 0 1623.67359484 0 4083
0.06250000 0.06249100 29153.10026643 0 773.10966504 0 14452.16235944 0 -1236.39117980 0 900.54308149 0 4303
0.06350000 0.06350600 28769.78849990 0 338.58207836 0 15516.47361859 0 -52.82238003 0 -694.05383143 0 4470
0.06450000 0.06451750 27871.17972316 0 -144.35525564 0 14716.46558272 0 -941.21006422 0 -1390.91373569 0 4479
0.06550000 0.06550280 28694.81200853 0 180.93624141 0 16072.25349767 0 200.91703272 0 -3248.11248227 0 4636
0.06650000 0.06648880 28521.34568826 0 -86.76088813 0 14598.23342325 0 786.61208820 0 -5693.32212626 0 4653
0.06750000 0.06749660 29024.99694168 0 -595.35105155 0 13719.81062495 0 1402.49294530 0 -3964.91435864 0 5220
0.06850000 0.06852730 29282.75635876 0 -510.70636380 0 9715.85525305 0 2622.43588003 0 -4708.16873973 0 5029
0.06950000 0.06949320 30424.04052473 0 -494.65851093 0 9190.62053037 0 1384.80248617 0 -5298.28696456 0 5040
0.07050000 0.07048030 30036.95775124 0 450.54105683 0 7256.04959388 0 -306.91782019 0 -5207.07296086 0 5475
0.07150000 0.07148790 28537.87157172 0 1317.12400239 0 8147.60436936 0 -802.11647242 0 -5843.96276322 0 5509
0.07250000 0.07249820 27258.94565162 0 1220.58622415 0 8052.06479885 0 -1495.42608453 0 -5976.20310443 0 5916
0.07350000 0.07351270 26184.43049127 0 791.58205355 0 9326.45441940 0 -204.68471232 0 -6064.11193144 0 5721
0.07450000 0.07449140 25054.45934619 0 418.48749765 0 9106.93744940 0 1042.01684417 0 -6179.59347407 0 6028
0.07550000 0.07549160 25000.55612902 0 59.85286795 0 9030.69656158 0 1206.11221213 0 -3903.38039797 0 6183
0.07650000 0.07648840 24608.70414084 0 2.62496467 0 7885.53047667 0 1690.94170433 0 -4231.87946919 0 6330
0.07750000 0.07749960 24661.83097422 0 215.86131149 0 8529.03063241 0 126.08583603 0 -2353.98454909 0 6583
0.07850000 0.07848650 23644.32456619 0 595.50521918 0 7788.56014175 0 902.43413057 0 -2028.87938415 0 6549
0.07950000 0.07947320 23275.43135569 0 469.41383756 0 8527.86605673 0 -118.82664762 0 859.25610085 0 6828
0.08050000 0.08048110 22734.51368053 0 -13.41668821 0 7629.92275180 0 1621.32226109 0 -233.11034098 0 7147
0.08150000 0.08149960 23164.85212212 0 -224.72650521 0 6334.91459613 0 1505.41925298 0 893.09756098 0 7386
0.08250000 0.08250610 22322.03206602 0 191.33202031 0 5536.91406690 0 646.55134402 0 1111.09392788 0 7227
0.08350000 0.08350160 22371.94245229 0 295.04913034 0 5075.33172351 0 234.37806479 0 1439.75936705 0 7798
0.08450000 0.08449610 21951.69699992 0 392.09821275 0 5069.59757468 0 352.79766549 0 2722.75575643 0 7371
0.08550000 0.08548940 21590.45671532 0 95.10889933 0 4162.55948826 0 751.41195645 0 -402.30100483 0 8256
0.08650000 0.08650700 21002.95601297 0 449.70256234 0 5419.61356798 0 -275.37112871 0 3250.99619348 0 8037
0.08750000 0.08749060 20627.74082021 0 240.89081564 0 3233.06172801 0 664.44809942 0 1625.39273037 0 8155
0.08850000 0.08849210 20545.55505083 0 378.70115596 0 5701.28560567 0 113.35314193 0 4340.20718978 0 8718
0.08950000 0.08949900 20009.40659035 0 216.71977013 0 4916.74978954 0 -330.48550459 0 1648.19623129 0 8571
0.09050000 0.09049190 19727.02471605 0 733.79248097 0 6972.15931679 0 -1176.32125713 0 2433.88553191 0 8932
0.09150000 0.09150830 18676.79927702 0 653.54767105 0 6120.54394151 0 -1312.84280037 0 1489.62538852 0 9285
0.09250000 0.09250820 18084.52935999 0 159.85631250 0 7736.60897525 0 215.89347596 0 677.79635494 0 9204
0.09350000 0.09350330 18101.60980329 0 422.47367384 0 7950.89090029 0 -466.67985751 0 1332.79586368 0 9349
0.09450000 0.09448040 17575.33250809 0 290.61265156 0 7398.12782678 0 800.39068217 0 -721.87055338 0 9564
0.09550000 0.09549270 17116.04604247 0 319.42203563 0 7640.03792342 0 280.31558431 0 1005.93939873 0 10155
0.09650000 0.09649430 16926.49748662 0 165.35200058 0 6911.27973674 0 850.99094089 0 692.57426576 0 9913
0.09750000 0.09749140 16332.89662595 0 -58.63938009 0 5966.64249266 0 1054.07630261 0 1517.19810414 0 10476
0.09850000 0.09850240 16833.88599210 0 -34.11763093 0 5416.74094797 0 655.74927365 0 1295.47398595 0 10575
0.09950000 0.09950330 16446.13774679 0 91.74205559 0 4863.61186496 0 372.07083842 0 1192.24821595 0 10882
0.10050000 0.10051200 16517.45414317 0 95.68431063 0 5185.22330287 0 -66.29541152 0 1547.67671335 0 10875
0.10150000 0.10150300 16152.11011570 0 351.68300019 0 4718.50573529 0 35.20723012 0 996.86569051 0 11118
0.10250000 0.10250800 16002.15713296 0 323.67218230 0 5524.73593265 0 -178.97420867 0 2253.75340227 0 11575
0.10350000 0.10349800 15217.12221296 0 442.61085101 0 5523.57135697 0 -422.81528270 0 991.40438513 0 11364
0.10450000 0.10450100 14968.01392950 0 438.65240282 0 6306.13294005 0 90.40955919 0 1939.08505365 0 12093
0.10550000 0.10551000 14277.69783145 0 15.43273508 0 6245.22008641 0 320.71526919 0 1333.37260592 0 12067
0.10650000 0.10649700 14596.23700780 0 -156.02430395 0 5922.23334008 0 947.69619620 0 3171.97141522 0 12054
0.10750000 0.10749900 14965.79569011 0 -328.49796209 0 4933.71932087 0 1405.50975087 0 2112.64010350 0 12807
0.10850000 0.10850100 15085.13696928 0 -228.26792439 0 4011.04264675 0 567.15611979 0 2380.57014818 0 12736
0.10950000 0.10950300 15144.58578492 0 191.33534767 0 3754.48107894 0 26.43010050 0 2342.74916659 0 12933
0.11050000 0.11050200 15099.77734925 0 161.32700521 0 3232.69571851 0 -307.20951867 0 1943.37734687 0 13428
0.11150000 0.11150900 14772.80886322 0 97.48962476 0 3766.07137975 0 -287.80103313 0 1856.26708604 0 13453
0.11250000 0.11250000 14809.63163708 0 214.70228140 0 4166.36376881 0 -665.35868668 0 146.79864633 0 13668
0.11350000 0.11349100 14345.57595677 0 503.78323866 0 4795.29009176 0 -571.52826962 0 678.90880200 0 13791
0.11450000 0.11448600 13794.45438041 0 467.01481166 0 5144.31896852 0 -738.81235671 0 1.88418363 0 14205
0.11550000 0.11549300 13502.75590067 0 140.08070834 0 5956.44968266 0 204.83555260 0 580.15278437 0 14776
0.11650000 0.11649800 13319.41841512 0 -12.83406764 0 5090.41575136 0 814.03174530 0 611.85364349 0 14553
0.11750000 0.11747300 13429.66491279 0 -46.00506491 0 5252.23631483 0 436.89999371 0 782.77564318 0 14568
0.11850000 0.11849100 13278.93554626 0 96.78977023 0 4942.20408654 0 347.11120881 0 1174.80176315 0 16015
0.11950000 0.11950300 13257.75136009 0 171.37341141 0 4977.10808333 0 -158.19706943 0 1092.97978502 0 15270
0.12050000 0.12050700 12963.05825717 0 99.25001954 0 4789.17884224 0 5.21569082 0 1507.03856773 0 15999
0.12150000 0.12150000 13424.67387416 0 -313.33629586 0 4703.46607223 0 626.04482998 0 1120.44380691 0 15670
0.12250000 0.12250700 13495.76844660 0 -185.47808657 0 4213.65663260 0 636.52712022 0 1069.38437264 0 16887
0.12350000 0.12352200 13745.20946596 0 265.38461498 0 4049.83965367 0 -200.99467110 0 787.17441189 0 16407
0.12450000 0.12449800 13161.70159452 0 235.83322983 0 4550.17463921 0 -313.16216407 0 1838.65426529 0 16306
0.12550000 0.12549900 12983.24423562 0 333.17511985 0 4526.87203442 0 181.33774274 0 1662.35968980 0 17523
0.12650000 0.12650100 12693.20943542 0 84.30097156 0 4721.82200318 0 514.10470654 0 2304.20725719 0 17154
0.12750000 0.12750600 12569.98623733 0 204.41630535 0 4655.11954473 0 290.26438797 0 2316.62939777 0 18007
0.12850000 0.12850300 12263.64737762 0 92.74725077 0 4201.21230962 0 113.68698696 0 2603.43665966 0 17496
0.12950000 0.12949900 12116.57810609 0 19.90880943 0 4653.12312928 0 -46.77379577 0 2699.96334670 0 18405
0.13050000 0.13049000 12385.53963208 0 42.63212101 0 3892.46666018 0 226.24599919 0 1650.23701153 0 18100
0.13150000 0.13148800 12175.69418582 0 -32.80443321 0 4065.85534207 0 193.65895343 0 1980.82122777 0 19059
0.13250000 0.13249300 12017.97736522 0 112.87289310 0 3611.18281437 0 -469.81312065 0 667.70780220 0 18957
0.13350000 0.13349100 12016.53550961 0 248.29418960 0 3645.47679534 0 -73.84685296 0 674.04642125 0 19468
0.13450000 0.13450700 11748.23945544 0 -3.26434999 0 3537.31544270 0 136.54594387 0 115.67009297 0 19953
0.13550000 0.13551000 11679.58494633 0 31.45285995 0 3244.29711052 0 229.37926233 0 -70.25374880 0 19956
0.13650000 0.13649900 11606.05031056 0 217.85329046 0 3225.27570776 0 -74.58219932 0 -629.70159762 0 19723
0.13750000 0.13749600 11221.29668843 0 155.19135506 0 3074.74598277 0 79.90120464 0 -561.06261618 0 20946
0.13850000 0.13851100 11066.41921424 0 93.87688918 0 3004.58307088 0 345.73035479 0 -200.83939434 0 20955
0.13950000 0.13949800 11158.29868976 0 -88.44475365 0 2790.86679688 0 404.44936967 0 -343.64410065 0 20506
0.14050000 0.14048300 11131.90164102 0 112.57010343 0 2364.60991577 0 136.16440669 0 -69.04292283 0 21447
0.14150000 0.14148400 10967.94047654 0 167.06226315 0 2640.39252789 0 -325.54104899 0 -435.55463152 0 21771
0.14250000 0.14249400 10799.54283327 0 196.99074900 0 2517.77934563 0 -199.75467528 0 -234.18507796 0 22470
0.14350000 0.14350900 10469.10280259 0 146.51803905 0 2775.38348594 0 155.36881421 0 -256.71129897 0 22519
0.14450000 0.14449900 10442.60593308 0 86.13124088 0 2515.11745836 0 63.91246785 0 -399.59364365 0 22218
0.14550000 0.14550500 10306.35057858 0 9.91210289 0 2543.81038486 0 563.85094309 0 -208.96702346 0 23559
0.14650000 0.14650700 10348.71895092 0 70.96125625 0 2129.13271336 0 340.85688285 0 -64.35301020 0 23044
0.14750000 0.14750500 10073.93454653 0 129.41874071 0 2155.58521808 0 84.19493971 0 244.72504242 0 23649
0.14850000 0.14849900 9986.60246176 0 232.50587075 0 2064.77049747 0 -234.16955029 0 519.53828393 0 23640
0.14950000 0.14949500 9609.36867115 0 140.77168991 0 2445.63110948 0 -53.50304678 0 428.07029182 0 24457
0.15050000 0.15050000 9428.82616723 0 214.35734518 0 2729.31065382 0 -246.35766661 0 524.93636948 0 24591
0.15150000 0.15149900 9462.14412286 0 45.23943958 0 2666.97812697 0 -0.61355503 0 485.58147535 0 25020
0.15250000 0.15250500 9333.86333896 0 71.15690496 0 3180.27872174 0 -101.19874284 0 437.78950770 0 25297
0.15350000 0.15350100 9305.33678041 0 155.15586323 0 3174.34493137 0 -166.84376657 0 68.40174073 0 25452
0.15450000 0.15450400 9141.85253739 0 62.40572875 0 3405.64075253 0 -109.98319265 0 700.43348791 0 26061
0.15550000 0.15549900 9189.55577547 0 -11.59174267 0 3406.25076836 0 367.07314508 0 53.57502865 0 26128
0.15650000 0.15649500 9155.81635435 0 -58.25995024 0 3146.68348618 0 223.59742136 0 464.49156435 0 26331
0.15750000 0.15749700 9262.30293625 0 48.70455133 0 2787.86108251 0 338.85381268 0 278.28811351 0 27345
0.15850000 0.15849900 9020.74775791 0 167.05893579 0 2648.08981857 0 -237.87290095 0 355.14567188 0 26980
0.15950000 0.15949700 8930.31013800 0 145.02849129 0 2322.77392088 0 105.66328235 0 111.59185986 0 27777
0.16050000 0.16050000 8587.29268998 0 155.57732871 0 2555.25650011 0 102.63472011 0 256.60815083 0 28224
0.16150000 0.16150500 8536.11790726 0 133.46037288 0 2334.24221853 0 141.48374475 0 242.09421051 0 28075
0.16250000 0.16249700 8344.63948315 0 -1.77786341 0 2194.38222501 0 409.56352059 0 204.90986362 0 28590
0.16350000 0.16349900 8394.32804547 0 31.84670836 0 1942.31259197 0 196.18552810 0 438.31744868 0 29163
0.16450000 0.16449100 8423.47571105 0 10.25849206 0 1827.50761236 0 -48.60938886 0 215.13372897 0 28996
0.16550000 0.16550500 8326.25027861 0 33.54709976 0 1855.18014874 0 -121.06928765 0 413.37223762 0 30777
0.16650000 0.16650700 8359.35750150 0 184.08281399 0 2388.96618427 0 -318.84196603 0 183.56818245 0 29211
0.16750000 0.16749900 8195.24106025 0 184.45547821 0 2735.52172411 0 -428.03147263 0 148.73406020 0 30922
0.16850000 0.16850800 8015.76331124 0 144.05246596 0 3232.45171218 0 -55.63621669 0 382.96239383 0 30867
0.16950000 0.16949900 7971.75344175 0 60.46942759 0 3182.36386676 0 98.56369627 0 494.02742183 0 30852
0.17050000 0.17049200 7936.22833792 0 -42.22429769 0 3474.89418627 0 197.53532677 0 845.54738143 0 31257
0.17150000 0.17149500 8080.15880072 0 72.99804366 0 3326.69361265 0 48.80270843 0 944.19914180 0 32608
0.17250000 0.17250900 7889.20166286 0 59.54885824 0 3372.23406732 0 253.96622772 0 1406.01994593 0 32361
0.17350000 0.17350400 7970.56668367 0 44.34460181 0 3260.72317320 0 134.44859853 0 1272.28229313 0 32508
0.17450000 0.17449800 7812.08457048 0 86.87745661 0 3366.04517942 0 72.10087674 0 1357.06340260 0 32791
0.17550000 0.17549800 7704.53323367 0 103.16343747 0 3170.79574835 0 25.30334581 0 1295.64035390 0 33633
0.17650000 0.17650100 7616.42476512 0 56.36690475 0 3007.52223807 0 207.13808509 0 1222.74900756 0 33984
0.17750000 0.17750300 7556.06647132 0 -1.62914155 0 2734.01332133 0 181.60171323 0 1026.91728864 0 34069
0.17850000 0.17849800 7606.56469103 0 52.81428345 0 2696.09251896 0 -15.65866276 0 1041.31920788 0 34536
