### header ###
fiducial parameters:
Omega_m = 0.31
Omega_nu = 0
Omega_de = 0.69
Omega_k = 0
H_0 = 100
w_de = -1
zeff = 0
beta = 0
fgrowth = 0
b_1 = 2
gamma = 0.55
Lx = 3500 Ly = 3500 Lz = 3500
nx = 700 ny = 700 nz = 700
xoffset = 1379.75464 yoffset = 22.6059522 zoffset = 368.141391
bins = 400 dk = 0.001
kx_ny = 0.628318531 ky_ny = 0.628318531 kz_ny = 0.628318531
############################
A(data) = 3.35502633 (not used)
A(ran) = 3.34941612 (used)
Ngal = 188106
weighted Ngal = 0
Nran = 9399747
weighted Nran = 0
SN(data) = 6658.52199
SN(ran) = 133.224308
SN(data+ran) = 6791.74629
############################
13 columns: k_central k_mean P_0(k) sigma^{lin}_{P_0(k)} P^img_1(k) sigma^{lin}_{P_1(k)} P_2(k) sigma^{lin}_{P_2(k)} P^img_3(k) sigma^{lin}_{P_3(k)} P_4(k) sigma^{lin}_{P_4(k)} N_modes
### header ###
0.00050000 0 0 0 0 0 0 0 0 0 0 0 0
0.00150000 0.00179520 23079.33899365 0 -19050.90535008 0 -36163.51312150 0 35404.32069039 0 -15846.43672780 0 3
0.00250000 0.00253879 33749.84684162 0 -11909.17272315 0 -2097.21224855 0 -35154.32511118 0 11987.69839755 0 6
0.00350000 0.00331552 45791.22663240 0 -12752.88007501 0 -57085.28157281 0 30283.51505940 0 11126.79969043 0 7
0.00450000 0.00420575 55617.13983277 0 -17726.17278659 0 -29195.46863878 0 -13134.08451412 0 -10240.16940639 0 24
0.00550000 0.00557378 76541.23743544 0 -3365.96754104 0 -45394.05086969 0 -19996.98444977 0 -11994.57493966 0 45
0.00650000 0.00659388 66582.11895972 0 4717.50752756 0 -22745.71578945 0 -29760.23238738 0 2200.57111291 0 40
0.00750000 0.00754703 59985.07501492 0 6130.60365715 0 -24567.55580016 0 -27028.24875509 0 6017.52890426 0 57
0.00850000 0.00846663 65405.23205155 0 -4241.62863130 0 -24736.80746559 0 7248.35230319 0 -12999.65920710 0 75
0.00950000 0.00948925 61309.91849038 0 -3335.18946951 0 -16837.76791104 0 -5138.72900526 0 -7039.27214952 0 112
0.01050000 0.01054430 69033.16257331 0 72.91519242 0 -17229.61989922 0 -247.77623070 0 -4631.01837376 0 105
0.01150000 0.01145670 64147.49031762 0 1665.84232564 0 -11506.89500984 0 -8792.42437754 0 1372.90163184 0 144
0.01250000 0.01249090 60353.19184163 0 2506.04485925 0 -3023.46028809 0 2696.31434290 0 -4813.36874279 0 169
0.01350000 0.01339930 64237.43992487 0 1494.45005920 0 15269.13992665 0 -10406.40426625 0 10962.18414532 0 180
0.01450000 0.01448870 54469.31186060 0 2077.13718207 0 10720.68442297 0 -45.47146742 0 14893.25926207 0 267
0.01550000 0.01550050 62327.86854629 0 1754.32789489 0 11549.81794203 0 5910.96468398 0 16117.94922910 0 238
0.01650000 0.01653350 57489.44478960 0 -3548.27354528 0 2114.03759432 0 12273.51854290 0 19242.22849744 0 315
0.01750000 0.01747870 62735.35912217 0 -1226.53110572 0 16537.52920965 0 7852.14597386 0 22032.66273764 0 297
0.01850000 0.01844180 63373.99024245 0 523.89157873 0 2593.05529931 0 -2405.81371243 0 17826.99176685 0 388
0.01950000 0.01947590 59577.25170313 0 341.18961876 0 2058.38196803 0 275.96007127 0 12006.77525630 0 399
0.02050000 0.02045430 60282.43000510 0 -906.04986078 0 6847.35007753 0 3366.99902236 0 21414.88306763 0 462
0.02150000 0.02154770 65614.74476190 0 -4046.09082911 0 -7644.64077015 0 5894.35007095 0 12478.04021463 0 571
0.02250000 0.02255340 69428.34192058 0 -3337.34116172 0 -1677.78754475 0 3737.87755711 0 4734.75433882 0 510
0.02350000 0.02348930 72807.49689479 0 1802.36386887 0 -11952.76112716 0 -7720.00545342 0 13180.33480539 0 555
0.02450000 0.02439640 68978.70479629 0 -107.90048769 0 -14362.43457613 0 -1675.42511980 0 -5398.18537547 0 592
0.02550000 0.02547300 70286.13509255 0 10.60687765 0 -6850.13396796 0 32.46737174 0 8562.80332712 0 837
0.02650000 0.02652900 67015.67384843 0 2065.84634358 0 -8650.71215413 0 -2321.45406844 0 -15112.64313771 0 723
0.02750000 0.02749970 67904.96601974 0 2431.30128302 0 2606.35364445 0 -8193.28900959 0 12854.14270314 0 826
0.02850000 0.02848090 55935.56809715 0 6626.11397200 0 1613.45860245 0 -8520.50150196 0 -11973.83440136 0 831
0.02950000 0.02946900 57409.03361173 0 2595.77264257 0 12184.89987929 0 2454.93662372 0 11518.31894270 0 996
0.03050000 0.03053250 51481.23249078 0 -795.08021707 0 11103.61908880 0 7138.56054460 0 -453.43696836 0 1041
0.03150000 0.03150510 55543.16154913 0 -48.42871327 0 10474.43766833 0 -204.40521416 0 6839.27568615 0 1036
0.03250000 0.03246190 50896.06093979 0 3239.55007823 0 10288.44938670 0 -202.17699269 0 -555.63014792 0 1059
0.03350000 0.03345080 48844.63315225 0 3223.77839617 0 11105.06094441 0 -8117.68031999 0 -1770.94250792 0 1302
0.03450000 0.03451200 44580.51157353 0 2763.81536753 0 19645.61533045 0 -3374.78504262 0 2236.88369171 0 1339
0.03550000 0.03553350 43668.59336045 0 236.19702109 0 15630.71294716 0 500.83408939 0 -6531.30642049 0 1365
0.03650000 0.03647120 42494.14651560 0 -1912.05580669 0 16082.79013477 0 7530.57890074 0 -1341.70209483 0 1308
0.03750000 0.03744890 45219.14269381 0 -1016.53481918 0 13102.69642675 0 -802.74423416 0 -11235.04977264 0 1579
0.03850000 0.03847530 46131.61546674 0 1510.39920041 0 14786.56194743 0 299.64643147 0 -2724.94072222 0 1662
0.03950000 0.03950240 42998.79597675 0 1767.11604497 0 13274.94271536 0 -5070.82869755 0 -7963.73450635 0 1683
0.04050000 0.04050350 43103.38596397 0 1058.52941818 0 19691.97653369 0 -1707.77814130 0 -5777.22703118 0 1822
0.04150000 0.04152450 40223.33485242 0 704.24442318 0 19851.57885778 0 -488.49624191 0 -7398.38292431 0 1887
0.04250000 0.04250150 41465.54891062 0 454.56383397 0 23654.86120329 0 1698.05116158 0 -6358.23938331 0 1920
0.04350000 0.04349210 41435.60267886 0 -588.45121793 0 19093.27372243 0 3653.58446030 0 -3707.38785670 0 2005
0.04450000 0.04448520 41601.97063309 0 -488.50067839 0 17152.09243255 0 3033.32036217 0 -5069.86376341 0 2151
0.04550000 0.04548030 42877.45828213 0 287.14443427 0 18376.11692775 0 -1578.24405214 0 -3864.11756078 0 2274
0.04650000 0.04648670 39950.71323144 0 1624.17269870 0 19300.34636945 0 -329.57048084 0 -3818.99857159 0 2311
0.04750000 0.04749250 40156.12219892 0 1037.33746817 0 18233.81687091 0 251.06033412 0 -2787.06251633 0 2568
0.04850000 0.04851840 37892.29798982 0 298.37870766 0 15749.94331435 0 2311.98218625 0 -4337.83367363 0 2493
0.04950000 0.04949480 38863.66501854 0 -93.60681853 0 17133.01557380 0 4359.70551401 0 -1889.42976492 0 2644
0.05050000 0.05050630 38406.37496837 0 -536.73407568 0 11971.39433803 0 2560.87973697 0 -197.56638212 0 2829
0.05150000 0.05149060 37954.07595682 0 886.26871102 0 11403.74687822 0 334.73010566 0 -684.89361187 0 2784
0.05250000 0.05249300 36216.63995488 0 1604.53018891 0 11757.11241299 0 -786.56106870 0 988.30328647 0 3055
0.05350000 0.05348950 34178.63251564 0 1661.60548840 0 14482.66315105 0 -1349.94285416 0 535.71368556 0 3009
0.05450000 0.05448610 33554.53086337 0 616.62729465 0 14109.44437374 0 1882.79722914 0 6221.38510417 0 3336
0.05550000 0.05550870 32479.90479105 0 671.57641169 0 16225.53383949 0 1623.99523955 0 2347.14128058 0 3349
0.05650000 0.05647670 32170.57130817 0 -293.44534326 0 13380.41999834 0 1065.65107574 0 4674.68441615 0 3324
0.05750000 0.05747970 32475.80104818 0 -451.83761776 0 15076.92948354 0 339.55699457 0 3425.53835985 0 3639
0.05850000 0.05849280 33136.72547433 0 440.97600858 0 13242.00186042 0 -1744.39018243 0 949.83236073 0 3846
0.05950000 0.05951020 32607.34264399 0 663.68502506 0 15344.33824196 0 -1343.41013916 0 2346.75308868 0 3787
0.06050000 0.06049470 32920.55804581 0 -116.47642299 0 16749.48198333 0 293.29561210 0 936.85898766 0 3930
0.06150000 0.06148310 32459.27516473 0 -448.14535829 0 13008.75398860 0 3678.93893653 0 1189.36450474 0 4083
0.06250000 0.06249100 33846.89481492 0 -78.42829368 0 12405.83652250 0 1736.24924387 0 1007.92361387 0 4303
0.06350000 0.06350600 33286.34572116 0 -417.65454876 0 11782.73307794 0 2332.40107983 0 3329.97660695 0 4470
0.06450000 0.06451750 32985.66337189 0 389.56276513 0 11074.14977851 0 735.48499763 0 3394.39427882 0 4479
0.06550000 0.06550280 32285.14337264 0 744.08511174 0 9390.06243390 0 -600.99314343 0 2211.92849858 0 4636
0.06650000 0.06648880 31336.95694554 0 1699.04936930 0 12854.58635102 0 -1451.95968369 0 1309.84817719 0 4653
0.06750000 0.06749660 28830.56825918 0 1557.43696667 0 13227.13965651 0 -2497.10535451 0 396.63118495 0 5220
0.06850000 0.06852730 27988.41367490 0 721.71416750 0 15409.11083214 0 -282.98523542 0 1117.22735979 0 5029
0.06950000 0.06949320 27120.97116158 0 -202.18697477 0 13777.15211317 0 2161.67428521 0 -616.11599047 0 5040
0.07050000 0.07048030 27325.71465724 0 -328.00994943 0 12475.82197524 0 2066.23453547 0 259.31440289 0 5475
0.07150000 0.07148790 27959.13291496 0 -11.61115226 0 11740.58652954 0 1225.99872826 0 -300.51487219 0 5509
0.07250000 0.07249820 27315.39984408 0 580.97907854 0 11107.94465561 0 -832.24127245 0 590.63618372 0 5916
0.07350000 0.07351270 26855.55881861 0 336.87070667 0 9544.86226970 0 2222.03257900 0 1429.95474894 0 5721
0.07450000 0.07449140 26294.34425303 0 -255.10085717 0 10077.86083025 0 988.14357323 0 508.78869585 0 6028
0.07550000 0.07549160 26298.55890787 0 11.96008132 0 8176.10874552 0 2255.17307548 0 1715.58634395 0 6183
0.07650000 0.07648840 26232.01172618 0 129.69823887 0 7284.49851405 0 956.90078055 0 2268.12759352 0 6330
0.07750000 0.07749960 25652.05303776 0 451.92856557 0 6320.56258728 0 895.27587206 0 3617.48261424 0 6583
0.07850000 0.07848650 25479.80674915 0 275.36558311 0 6411.34403430 0 -509.94661681 0 1818.47937804 0 6549
0.07950000 0.07947320 24190.34419195 0 828.89838569 0 7848.92952674 0 -1237.53357309 0 3086.21428042 0 6828
0.08050000 0.08048110 23858.82831517 0 879.25463807 0 7624.32169734 0 -885.49565459 0 1089.11783025 0 7147
0.08150000 0.08149960 22903.65443399 0 485.32748694 0 9239.14451702 0 -544.81734001 0 2132.19388372 0 7386
0.08250000 0.08250610 22893.00688492 0 -100.49533913 0 9511.40012851 0 1044.23064708 0 1372.53562234 0 7227
0.08350000 0.08350160 22311.05178104 0 317.98572563 0 9107.02617897 0 156.73303143 0 1154.17213683 0 7798
0.08450000 0.08449610 22240.28994451 0 492.59000270 0 9025.07332472 0 503.54699617 0 3884.21480965 0 7371
0.08550000 0.08548940 21679.40811484 0 91.51191325 0 8719.48866641 0 497.39138186 0 1077.63289581 0 8256
0.08650000 0.08650700 22059.72525820 0 13.90159534 0 9141.39779832 0 1510.18846767 0 5248.06602478 0 8037
0.08750000 0.08749060 21246.40778598 0 -66.85684791 0 7726.74890116 0 555.04896920 0 2135.32160126 0 8155
0.08850000 0.08849210 21596.77869758 0 290.96202426 0 7477.19696983 0 779.00019974 0 5245.91433257 0 8718
0.08950000 0.08949900 20991.75390405 0 -35.62603372 0 6234.04015988 0 1120.89854598 0 4427.05126188 0 8571
0.09050000 0.09049190 21103.66408126 0 308.69906642 0 6936.61203057 0 239.52881665 0 4090.99908555 0 8932
0.09150000 0.09150830 20616.20597539 0 504.75926399 0 5534.91765145 0 -167.24083142 0 3572.98473208 0 9285
0.09250000 0.09250820 19703.51137852 0 401.00777126 0 6437.87417740 0 344.67336372 0 4003.56718001 0 9204
0.09350000 0.09350330 19374.65738900 0 376.85447167 0 6524.56297275 0 -314.72491372 0 3852.46071278 0 9349
0.09450000 0.09448040 19105.58495104 0 214.81652073 0 6639.76723545 0 72.38115128 0 2927.89853518 0 9564
0.09550000 0.09549270 18781.94382409 0 382.13166318 0 6463.23974482 0 -129.78031373 0 3013.84422033 0 10155
0.09650000 0.09649430 18239.47338135 0 151.14417729 0 6597.24358635 0 61.26899197 0 2987.56917476 0 9913
0.09750000 0.09749140 18119.79936628 0 255.65541702 0 6986.93279112 0 71.94404721 0 3246.20479640 0 10476
0.09850000 0.09850240 17701.10668149 0 332.83572922 0 7013.65148457 0 397.36653130 0 1960.72397890 0 10575
0.09950000 0.09950330 17632.78490828 0 200.49002163 0 6433.65952256 0 -36.69223048 0 2353.00852376 0 10882
0.10050000 0.10051200 16900.32226182 0 203.04099693 0 6830.84637647 0 -207.16359484 0 522.86231565 0 10875
0.10150000 0.10150300 16843.97898133 0 374.50757439 0 6843.96726246 0 102.31618094 0 2573.66788705 0 11118
0.10250000 0.10250800 16458.78171131 0 76.26872673 0 6021.42191439 0 122.09300513 0 503.81429401 0 11575
0.10350000 0.10349800 16705.22810750 0 -93.43878690 0 5337.59416654 0 1096.09308401 0 1149.00363905 0 11364
0.10450000 0.10450100 16252.48544808 0 -122.01758499 0 4219.95643247 0 1107.62016499 0 280.81025169 0 12093
0.10550000 0.10551000 16473.75482720 0 55.21929860 0 4127.82185942 0 344.18313282 0 1182.05540595 0 12067
0.10650000 0.10649700 16091.88491627 0 349.56790894 0 3888.51819406 0 442.17496697 0 815.70207956 0 12054
0.10750000 0.10749900 15733.19560696 0 538.69721754 0 3815.06119667 0 -775.72386016 0 1276.94059585 0 12807
0.10850000 0.10850100 14851.11271367 0 312.91593950 0 4384.41670081 0 47.09765872 0 1660.25236238 0 12736
0.10950000 0.10950300 14760.71945854 0 175.04792496 0 4131.91451109 0 497.45127432 0 1559.84375640 0 12933
0.11050000 0.11050200 14660.78777404 0 -97.28099934 0 3909.55819467 0 1066.24889126 0 2803.24457268 0 13428
0.11150000 0.11150900 14841.13063642 0 -146.77091834 0 3576.87774221 0 566.22335012 0 2628.22548484 0 13453
0.11250000 0.11250000 14836.13959779 0 166.88813136 0 3287.46404904 0 96.13184043 0 2672.10225996 0 13668
0.11350000 0.11349100 14484.77047847 0 390.07185107 0 4101.29171632 0 -1043.55408406 0 3028.77297142 0 13791
0.11450000 0.11448600 14086.15286015 0 436.33767002 0 4381.14479771 0 -758.75321971 0 2169.81522377 0 14205
0.11550000 0.11549300 13817.19133416 0 303.48842209 0 5584.37329864 0 -751.58387000 0 1930.13445772 0 14776
0.11650000 0.11649800 13429.22126491 0 252.44673374 0 5847.55631103 0 -224.93169235 0 1087.63493721 0 14553
0.11750000 0.11747300 13572.29770554 0 7.97477025 0 6154.02826510 0 483.30334350 0 1937.75411002 0 14568
0.11850000 0.11849100 13489.11372843 0 -280.21798178 0 5818.06481834 0 385.99805443 0 1209.20665608 0 16015
0.11950000 0.11950300 13846.25027016 0 -35.38491110 0 4929.32720688 0 844.90520112 0 1467.82009532 0 15270
0.12050000 0.12050700 13770.71921894 0 33.59767562 0 5218.61889688 0 46.13083908 0 1733.13261752 0 15999
0.12150000 0.12150000 13794.67620435 0 130.52009657 0 4798.53981247 0 259.72588630 0 1548.45309714 0 15670
0.12250000 0.12250700 13785.69233482 0 3.46942623 0 5157.70604324 0 387.98337869 0 2272.57516349 0 16887
0.12350000 0.12352200 13403.82242390 0 63.62975324 0 4333.98502829 0 -120.97390335 0 1375.90734621 0 16407
0.12450000 0.12449800 13504.75231613 0 291.21046707 0 4968.25730817 0 36.92492379 0 1719.43498929 0 16306
0.12550000 0.12549900 13281.81925747 0 55.79925729 0 4593.72976962 0 -116.99660013 0 1392.71050959 0 17523
0.12650000 0.12650100 12785.48819403 0 319.37434348 0 4891.36203973 0 78.72099037 0 1726.38916978 0 17154
0.12750000 0.12750600 13007.20122103 0 -20.55110065 0 4105.93892784 0 422.22190366 0 1413.28467993 0 18007
0.12850000 0.12850300 12946.53237372 0 -150.54303442 0 4266.90546915 0 561.08812593 0 1263.75316267 0 17496
0.12950000 0.12949900 12918.80438135 0 81.61335271 0 3757.57552289 0 126.96758618 0 766.89637651 0 18405
0.13050000 0.13049000 12587.39941654 0 292.96509443 0 3926.03971334 0 -222.13671072 0 1416.36803268 0 18100
0.13150000 0.13148800 12428.79530018 0 145.91911441 0 3694.52206824 0 -316.20669763 0 639.53283459 0 19059
0.13250000 0.13249300 12381.21406527 0 56.05002925 0 3970.99233457 0 245.12210727 0 829.89992077 0 18957
0.13350000 0.13349100 12195.21469245 0 -9.06361523 0 3837.01067543 0 272.75249711 0 499.73717002 0 19468
0.13450000 0.13450700 12507.54279851 0 30.29039160 0 3699.42437729 0 299.30038613 0 840.22027953 0 19953
0.13550000 0.13551000 12279.95143713 0 -58.65002764 0 3337.45207369 0 452.02394986 0 1248.74677320 0 19956
0.13650000 0.13649900 12290.48807423 0 175.38731558 0 3097.95985799 0 -385.71301067 0 514.12577982 0 19723
0.13750000 0.13749600 12160.61015797 0 153.89479414 0 3634.09722727 0 -147.16021935 0 893.80074287 0 20946
0.13850000 0.13851100 11860.81510446 0 269.98635259 0 3765.25063118 0 -281.61990907 0 467.57491711 0 20955
0.13950000 0.13949800 11735.92822682 0 221.77402858 0 3842.61172989 0 -191.35753007 0 298.13581045 0 20506
0.14050000 0.14048300 11350.17639696 0 86.63821949 0 3931.04184316 0 154.03121586 0 170.92754529 0 21447
0.14150000 0.14148400 11201.33253392 0 175.41948005 0 3770.75186487 0 108.17011468 0 -7.36941272 0 21771
0.14250000 0.14249400 11244.36637808 0 32.84624703 0 3288.36243600 0 506.75346121 0 364.80499530 0 22470
0.14350000 0.14350900 10810.12383516 0 128.54697263 0 3328.84530486 0 280.74925011 0 -246.05709518 0 22519
0.14450000 0.14449900 10665.12861746 0 292.02012445 0 3255.23303071 0 -374.39222594 0 215.60621396 0 22218
0.14550000 0.14550500 10402.01215225 0 213.51219597 0 3452.36796527 0 -64.30265616 0 26.80897579 0 23559
0.14650000 0.14650700 10217.83173573 0 -37.26908363 0 3192.72304471 0 267.84464246 0 178.00261982 0 23044
0.14750000 0.14750500 10431.41491536 0 -98.97562333 0 3204.24679834 0 276.22847823 0 423.04376136 0 23649
0.14850000 0.14849900 10488.47912366 0 17.50623435 0 3301.16167728 0 175.69786910 0 -145.03625513 0 23640
0.14950000 0.14949500 10335.76443288 0 187.75954578 0 3396.55706223 0 -213.60092555 0 524.48717601 0 24457
0.15050000 0.15050000 10280.82973440 0 162.48492617 0 3346.80195272 0 -61.15874548 0 711.43262793 0 24591
0.15150000 0.15149900 10243.95150454 0 21.64347264 0 3889.80477291 0 218.10284239 0 1150.13494114 0 25020
0.15250000 0.15250500 10149.06631465 0 220.15693206 0 4054.03212612 0 -285.02823389 0 1041.77505607 0 25297
0.15350000 0.15350100 9889.67649162 0 208.49897495 0 4042.58601087 0 -106.56144748 0 770.58863597 0 25452
0.15450000 0.15450400 9777.72194963 0 144.62698997 0 4465.39352973 0 75.10836570 0 1510.09973809 0 26061
0.15550000 0.15549900 9629.41046404 0 -42.29029032 0 4205.93715952 0 93.30791077 0 625.91173562 0 26128
0.15650000 0.15649500 9592.80951411 0 49.86624330 0 4022.58858277 0 451.24312960 0 976.54329034 0 26331
0.15750000 0.15749700 9589.91471171 0 22.75436692 0 3786.68991488 0 140.48220967 0 435.16754874 0 27345
0.15850000 0.15849900 9496.51574220 0 54.47008824 0 3564.43341924 0 -28.99615983 0 751.12580357 0 26980
0.15950000 0.15949700 9403.27204946 0 152.41301022 0 3433.79021038 0 102.73809007 0 769.82556162 0 27777
0.16050000 0.16050000 9325.44512047 0 40.71656038 0 3361.20941755 0 129.65276497 0 793.00172676 0 28224
0.16150000 0.16150500 9148.27434042 0 75.96527158 0 3117.25854068 0 468.43004839 0 583.72082243 0 28075
0.16250000 0.16249700 9034.34556537 0 179.56980595 0 3548.41773084 0 8.97843484 0 977.89530725 0 28590
0.16350000 0.16349900 8855.28928184 0 174.48671039 0 3169.06552162 0 57.25198226 0 1672.25303747 0 29163
0.16450000 0.16449100 8718.25754354 0 30.00745517 0 3540.76480495 0 358.31109949 0 1779.00580810 0 28996
0.16550000 0.16550500 8753.28354351 0 28.41775391 0 3298.12268931 0 -79.15765080 0 1460.15607823 0 30777
0.16650000 0.16650700 8556.64771281 0 95.96658159 0 3492.18536231 0 258.14871809 0 1779.66018872 0 29211
0.16750000 0.16749900 8524.17268815 0 100.27928262 0 3162.76572176 0 64.51793630 0 1962.22129049 0 30922
0.16850000 0.16850800 8550.20372738 0 -70.42965518 0 3026.48818485 0 466.17853541 0 2023.97707510 0 30867
0.16950000 0.16949900 8477.55638737 0 56.99400102 0 3004.70507405 0 231.84483541 0 2109.13528526 0 30852
0.17050000 0.17049200 8523.88431703 0 130.15963267 0 2731.19615730 0 -120.91290177 0 1800.89983088 0 31257
0.17150000 0.17149500 8210.11435536 0 54.08400368 0 2534.89306252 0 188.38730752 0 1841.93725959 0 32608
0.17250000 0.17250900 8163.40932501 0 121.41866035 0 2500.85417908 0 -119.36235244 0 1582.31452142 0 32361
0.17350000 0.17350400 7985.32906681 0 91.78886044 0 2365.10901963 0 -6.79192737 0 1113.76690634 0 32508
0.17450000 0.17449800 7893.19449376 0 86.83231544 0 2256.65929587 0 75.47537341 0 961.48366312 0 32791
0.17550000 0.17549800 7877.54481487 0 -45.27714965 0 2084.31318649 0 202.98886831 0 702.57076157 0 33633
0.17650000 0.17650100 7829.87485039 0 18.08918766 0 1938.90759450 0 114.47335282 0 756.25991863 0 33984
0.17750000 0.17750300 7847.65403909 0 115.24197277 0 1800.09017350 0 -341.18185492 0 394.94310477 0 34069
0.17850000 0.17849800 7683.26031793 0 116.69824693 0 1961.73327782 0 -18.73358621 0 351.26818943 0 34536
