### header ###
fiducial parameters:
Omega_m = 0.31
Omega_nu = 0
Omega_de = 0.69
Omega_k = 0
H_0 = 100
w_de = -1
zeff = 0
beta = 0
fgrowth = 0
b_1 = 2
gamma = 0.55
Lx = 3500 Ly = 3500 Lz = 3500
nx = 700 ny = 700 nz = 700
xoffset = 1379.75464 yoffset = 22.6059522 zoffset = 368.141391
bins = 400 dk = 0.001
kx_ny = 0.628318531 ky_ny = 0.628318531 kz_ny = 0.628318531
############################
A(data) = 3.3646435 (not used)
A(ran) = 3.36768292 (used)
Ngal = 189918
weighted Ngal = 0
Nran = 9399747
weighted Nran = 0
SN(data) = 6571.86115
SN(ran) = 133.950877
SN(data+ran) = 6705.81203
############################
13 columns: k_central k_mean P_0(k) sigma^{lin}_{P_0(k)} P^img_1(k) sigma^{lin}_{P_1(k)} P_2(k) sigma^{lin}_{P_2(k)} P^img_3(k) sigma^{lin}_{P_3(k)} P_4(k) sigma^{lin}_{P_4(k)} N_modes
### header ###
0.00050000 0 0 0 0 0 0 0 0 0 0 0 0
0.00150000 0.00179520 30124.46729516 0 -22900.21616293 0 -13939.41632453 0 24853.37594552 0 111781.51932297 0 3
0.00250000 0.00253879 45026.15586691 0 -26817.51601308 0 -21403.34822280 0 -25456.40432359 0 -30290.72433741 0 6
0.00350000 0.00331552 66616.83440617 0 -17195.56992459 0 -13534.58763592 0 -26495.64947764 0 7988.85606744 0 7
0.00450000 0.00420575 81210.07679079 0 -5498.43870469 0 -28613.18079899 0 -21755.82646182 0 -5359.82092523 0 24
0.00550000 0.00557378 74381.22682977 0 6387.22068094 0 -41.79384834 0 -20907.57171922 0 13605.34947245 0 45
0.00650000 0.00659388 81644.74079920 0 -6346.29416420 0 -21731.42582853 0 -5483.52104479 0 -40564.72189449 0 40
0.00750000 0.00754703 78349.65709785 0 1777.59722609 0 55206.10007387 0 -23157.75375607 0 1024.08237870 0 57
0.00850000 0.00846663 78419.08799074 0 8335.23414813 0 12208.30230485 0 -34753.71107741 0 -31501.66122022 0 75
0.00950000 0.00948925 67911.06617806 0 8937.90760791 0 56012.98465185 0 -1637.94796531 0 -26140.39843939 0 112
0.01050000 0.01054430 78397.34924473 0 900.38225914 0 91792.63144697 0 -4766.30879414 0 13226.03053682 0 105
0.01150000 0.01145670 72318.04237347 0 -3738.09938105 0 52253.06888641 0 14327.49730574 0 -31132.32436184 0 144
0.01250000 0.01249090 87487.25061561 0 -1894.60935389 0 85052.84379744 0 30120.80720017 0 18434.78935961 0 169
0.01350000 0.01339930 75674.01674606 0 -7493.26811420 0 21525.68412514 0 11601.72474375 0 -32568.85619058 0 180
0.01450000 0.01448870 96899.68399375 0 1426.91576098 0 68144.53587382 0 7592.36795894 0 25249.88623642 0 267
0.01550000 0.01550050 91028.11524133 0 5263.20550861 0 26434.75880639 0 -1325.39803531 0 -17210.54304047 0 238
0.01650000 0.01653350 88137.08384481 0 1259.02831277 0 56259.54196001 0 11795.82069034 0 19896.38729345 0 315
0.01750000 0.01747870 89159.91402737 0 -375.96828503 0 28482.74832288 0 -1211.32507470 0 -19782.59161276 0 297
0.01850000 0.01844180 89545.66585723 0 2749.05298439 0 51889.05580256 0 8363.02868769 0 1564.14714082 0 388
0.01950000 0.01947590 80093.96964189 0 3765.29499597 0 41808.82145617 0 -3920.57175324 0 -11231.94423750 0 399
0.02050000 0.02045430 76416.79420568 0 7047.03598739 0 43514.86937075 0 -13377.20355122 0 -18644.41298193 0 462
0.02150000 0.02154770 71918.42654742 0 3669.15650082 0 51669.33919102 0 373.12339301 0 -9797.18700027 0 571
0.02250000 0.02255340 71052.75862561 0 -1246.38434825 0 42071.57191188 0 11569.33844866 0 -19794.34828152 0 510
0.02350000 0.02348930 69833.39243312 0 -1990.57038989 0 44162.15162465 0 9830.63805027 0 -11981.70915120 0 555
0.02450000 0.02439640 69878.64451667 0 1262.83259333 0 31323.86933314 0 9638.79361666 0 -10963.51508895 0 592
0.02550000 0.02547300 72791.96921906 0 -1572.22153220 0 25326.30458339 0 17427.15411686 0 8761.25811411 0 837
0.02650000 0.02652900 77598.56124051 0 -4478.53659812 0 15543.53613915 0 9073.36439624 0 8932.14018549 0 723
0.02750000 0.02749970 72795.74022603 0 3002.94157373 0 12820.31455245 0 1189.07613362 0 4686.33017294 0 826
0.02850000 0.02848090 70706.04780901 0 4270.24391943 0 7092.46553009 0 -1820.63107025 0 7630.90986833 0 831
0.02950000 0.02946900 63749.53817112 0 3921.83614969 0 18468.95024621 0 -2097.97754113 0 16085.78475795 0 996
0.03050000 0.03053250 60778.87198050 0 4450.29841069 0 13819.40957355 0 -1948.71221261 0 10109.65929190 0 1041
0.03150000 0.03150510 55874.12286606 0 1254.23691569 0 19022.51188590 0 2394.56723873 0 -787.85984786 0 1036
0.03250000 0.03246190 52664.33046925 0 955.65634825 0 13761.62443745 0 2140.77847016 0 5833.93632117 0 1059
0.03350000 0.03345080 52574.38086200 0 523.22499779 0 16956.00007050 0 154.95400344 0 2144.62711550 0 1302
0.03450000 0.03451200 51898.15058406 0 1025.65511043 0 13089.71972632 0 -1335.89030763 0 -490.66678915 0 1339
0.03550000 0.03553350 49876.00355646 0 1984.39259319 0 15514.69902708 0 -4144.71375237 0 -8852.76048894 0 1365
0.03650000 0.03647120 49796.03602647 0 2306.70277650 0 18846.82732624 0 -6529.13254589 0 -8323.96549203 0 1308
0.03750000 0.03744890 47005.37996232 0 1688.36854664 0 20897.47872999 0 -3369.48345048 0 -12798.35398249 0 1579
0.03850000 0.03847530 43900.17755273 0 2166.52113827 0 26813.74500611 0 1330.17834120 0 -13037.36927673 0 1662
0.03950000 0.03950240 44729.24452461 0 -801.54083929 0 24868.90362124 0 1094.40278559 0 -7878.89794090 0 1683
0.04050000 0.04050350 45092.81396057 0 -1549.08529536 0 21651.12556263 0 6522.20054780 0 -10857.17269262 0 1822
0.04150000 0.04152450 47043.53367983 0 -876.08699222 0 19303.56281656 0 5250.59481768 0 -2297.89636613 0 1887
0.04250000 0.04250150 48604.61965029 0 -177.84956130 0 16445.80501089 0 -252.40015071 0 -6165.34128599 0 1920
0.04350000 0.04349210 46890.80789785 0 1997.43584080 0 22111.41023598 0 -188.11224584 0 -2480.98984535 0 2005
0.04450000 0.04448520 44970.14532232 0 1792.12669409 0 17600.06587729 0 -1825.47792331 0 -3792.81225560 0 2151
0.04550000 0.04548030 43111.70436168 0 341.25727506 0 19774.16230308 0 2647.77926506 0 -750.34609242 0 2274
0.04650000 0.04648670 42236.05436262 0 316.46734076 0 19499.43335467 0 2160.76480706 0 -1661.83840354 0 2311
0.04750000 0.04749250 43006.44890264 0 1071.48837270 0 19808.76683756 0 728.60623728 0 -342.99859298 0 2568
0.04850000 0.04851840 40250.84102086 0 1309.17161418 0 19852.13341762 0 -2044.73979578 0 -3390.12416800 0 2493
0.04950000 0.04949480 39678.75708227 0 1214.77443695 0 20611.43676070 0 -461.31726379 0 -3060.85980419 0 2644
0.05050000 0.05050630 37646.96071332 0 1162.23543701 0 23360.72266022 0 -728.47425204 0 -91.88868121 0 2829
0.05150000 0.05149060 37979.80753374 0 120.05333401 0 21690.38839982 0 324.82455766 0 -6368.98675315 0 2784
0.05250000 0.05249300 37149.40961822 0 502.36134721 0 20535.46206160 0 3189.29586486 0 -457.88564745 0 3055
0.05350000 0.05348950 36950.98810482 0 190.19849999 0 21047.09897683 0 1647.22020596 0 -3593.86945594 0 3009
0.05450000 0.05448610 37173.92116348 0 -412.24093553 0 19509.63725586 0 3968.78518638 0 2583.33941079 0 3336
0.05550000 0.05550870 36939.56417196 0 -756.23662712 0 14046.11363917 0 4200.02555155 0 2807.10430922 0 3349
0.05650000 0.05647670 37574.97884513 0 -87.06700516 0 15137.59833084 0 2768.78422376 0 3850.34229417 0 3324
0.05750000 0.05747970 37371.67720507 0 293.85349931 0 9995.10940981 0 2475.61061483 0 5461.82666356 0 3639
0.05850000 0.05849280 36989.36364626 0 1200.02314501 0 12683.22735817 0 -519.19889330 0 6858.55218645 0 3846
0.05950000 0.05951020 33901.68532785 0 2214.53492986 0 12984.13153138 0 -2608.68279581 0 5404.82900244 0 3787
0.06050000 0.06049470 32358.89983235 0 1305.56697517 0 14519.15318901 0 -841.24177877 0 5156.43055559 0 3930
0.06150000 0.06148310 30602.38697166 0 256.99856097 0 16117.94922910 0 1620.67897167 0 5216.76666699 0 4083
0.06250000 0.06249100 30616.69461572 0 -191.56715369 0 13652.04341160 0 1994.18612009 0 2867.75097413 0 4303
0.06350000 0.06350600 31236.47070119 0 189.46648099 0 14583.81486722 0 566.65812504 0 4727.99979988 0 4470
0.06450000 0.06451750 30213.75143059 0 440.32051884 0 11091.08603625 0 409.84412787 0 4083.11324452 0 4479
0.06550000 0.06550280 30580.98096155 0 -136.33188377 0 12946.53237372 0 935.58128177 0 4789.83322286 0 4636
0.06650000 0.06648880 30356.49513532 0 50.07764152 0 12656.27574959 0 631.29429350 0 2728.42335807 0 4653
0.06750000 0.06749660 30450.43757347 0 680.21312676 0 12400.73457190 0 -259.99207502 0 2229.14203624 0 5220
0.06850000 0.06852730 29404.20496534 0 601.03861734 0 13212.61018851 0 -582.24791147 0 3551.47890120 0 5029
0.06950000 0.06949320 28558.72302198 0 468.89033306 0 12248.67426174 0 255.92604222 0 722.90314381 0 5040
0.07050000 0.07048030 28270.24098936 0 350.84894218 0 14131.18311976 0 -383.22969167 0 3500.78103995 0 5475
0.07150000 0.07148790 27973.10782311 0 485.50716433 0 11576.99137455 0 1316.61380733 0 435.24075064 0 5509
0.07250000 0.07249820 27211.36441671 0 38.77282812 0 13096.37444449 0 934.26697493 0 2387.31359592 0 5916
0.07350000 0.07351270 26775.14764073 0 32.57506726 0 11055.41674687 0 1579.22007747 0 1531.86066650 0 5721
0.07450000 0.07449140 26862.87900860 0 366.78144660 0 10812.24225378 0 759.46083807 0 1427.13758492 0 6028
0.07550000 0.07549160 26556.76197282 0 271.65446861 0 10282.84833224 0 -204.69025792 0 2709.62377924 0 6183
0.07650000 0.07648840 26196.74171988 0 163.11268792 0 9976.39856056 0 245.42156959 0 4.19418049 0 6330
0.07750000 0.07749960 25711.61276537 0 32.40348644 0 9444.18747500 0 -295.95417201 0 238.15018087 0 6583
0.07850000 0.07848650 26143.28215059 0 302.48799613 0 9960.66015209 0 -165.08803010 0 -1842.78019055 0 6549
0.07950000 0.07947320 25549.12673008 0 127.47112653 0 10235.24491494 0 -328.71978603 0 534.49919949 0 6828
0.08050000 0.08048110 25581.29120123 0 259.38316831 0 10744.17557811 0 477.18100278 0 -721.47903412 0 7147
0.08150000 0.08149960 25350.48339274 0 148.49781770 0 9663.16097635 0 312.64420517 0 -922.90737102 0 7386
0.08250000 0.08250610 24997.22876993 0 532.72793534 0 10591.21688099 0 448.02668248 0 -45.66534155 0 7227
0.08350000 0.08350160 24138.32647826 0 603.71935964 0 10535.80526104 0 -145.92466001 0 423.84787314 0 7798
0.08450000 0.08449610 24108.49115847 0 756.91097189 0 11790.49691581 0 107.68842400 0 2652.47084136 0 7371
0.08550000 0.08548940 22659.75901310 0 442.05296381 0 11230.50238189 0 332.38764486 0 -447.45437672 0 8256
0.08650000 0.08650700 22877.92285707 0 393.07423808 0 12260.20910657 0 588.83608246 0 2359.58560355 0 8037
0.08750000 0.08749060 21583.91290912 0 493.95089257 0 11390.88108976 0 213.69741896 0 1785.05051044 0 8155
0.08850000 0.08849210 21446.04933105 0 374.74492601 0 11526.41551647 0 673.25672803 0 2995.61029255 0 8718
0.08950000 0.08949900 20949.05279580 0 -47.94857535 0 10860.08967741 0 1598.59639854 0 2831.71567524 0 8571
0.09050000 0.09049190 20306.87249250 0 381.37635266 0 10213.73908406 0 470.94220450 0 3216.09219668 0 8932
0.09150000 0.09150830 20395.15842021 0 215.35222555 0 9571.75842230 0 1102.23649800 0 2667.39959246 0 9285
0.09250000 0.09250820 19975.68935163 0 0.11850389 0 9518.37649139 0 78.26458762 0 3214.53942911 0 9204
0.09350000 0.09350330 19560.87858576 0 225.65040191 0 7828.33317401 0 625.78307773 0 1699.09373409 0 9349
0.09450000 0.09448040 19675.00700236 0 479.68650417 0 9630.89668443 0 -698.08548152 0 1232.80872319 0 9564
0.09550000 0.09549270 18533.05736457 0 383.22525519 0 7761.34234444 0 -180.57688663 0 903.75287389 0 10155
0.09650000 0.09649430 18551.80148741 0 338.43234720 0 9184.17654495 0 1033.20488819 0 1523.71972794 0 9913
0.09750000 0.09749140 17882.78048750 0 61.72994212 0 7353.45248547 0 644.81889906 0 1239.24161742 0 10476
0.09850000 0.09850240 17854.27611134 0 185.94724420 0 7218.33952425 0 1218.91145341 0 1881.83229501 0 10575
0.09950000 0.09950330 17474.29170389 0 116.15588740 0 6935.79128200 0 299.12514521 0 1885.40366043 0 10882
0.10050000 0.10051200 17087.43075434 0 379.91453291 0 6142.21614035 0 -197.08946065 0 1553.39977098 0 10875
0.10150000 0.10150300 16994.15378801 0 151.44142137 0 7707.93823114 0 -228.76481001 0 1510.26610605 0 11118
0.10250000 0.10250800 16681.71476997 0 243.82776459 0 6570.39179854 0 -326.44719978 0 1675.87985888 0 11575
0.10350000 0.10349800 16597.19984923 0 -22.34188531 0 6590.99924247 0 1002.79171704 0 876.31879824 0 11364
0.10450000 0.10450100 16423.62261699 0 171.58525327 0 7172.66597522 0 37.92734617 0 1251.30883970 0 12093
0.10550000 0.10551000 16344.09873487 0 355.12238037 0 6944.06531492 0 -338.15063080 0 1275.54310503 0 12067
0.10650000 0.10649700 16091.88491627 0 278.62306766 0 7857.82466670 0 -279.36506873 0 1686.33885760 0 12054
0.10750000 0.10749900 15612.41247220 0 113.64262217 0 7125.17346989 0 32.54634106 0 845.94333716 0 12807
0.10850000 0.10850100 15890.91242757 0 -381.92758515 0 6907.78600970 0 796.95573848 0 674.15622410 0 12736
0.10950000 0.10950300 16240.83969128 0 -136.52487059 0 6041.49698086 0 1094.41276767 0 524.86094934 0 12933
0.11050000 0.11050200 16107.52350396 0 63.05256735 0 5797.42410082 0 -19.66679952 0 -133.81750942 0 13428
0.11150000 0.11150900 15623.72549308 0 556.15143417 0 5149.70929024 0 -147.54841124 0 331.12324841 0 13453
0.11250000 0.11250000 15195.93802679 0 102.32594119 0 4811.13941220 0 1099.76537932 0 240.83092317 0 13668
0.11350000 0.11349100 15194.93981906 0 -19.21117315 0 4501.71719974 0 686.42086969 0 762.97674750 0 13791
0.11450000 0.11448600 14871.40960409 0 37.52662123 0 3990.44629402 0 637.06060679 0 149.38067698 0 14205
0.11550000 0.11549300 14921.87455020 0 264.52837457 0 4274.44748307 0 -468.95798936 0 1109.57443390 0 14776
0.11650000 0.11649800 14266.16298662 0 379.33668154 0 4232.43402903 0 -590.51418056 0 -282.59260704 0 14553
0.11750000 0.11747300 14308.08771109 0 175.04016112 0 4833.62126841 0 -315.16634336 0 764.12468639 0 14568
0.11850000 0.11849100 14053.76656506 0 -0.47851416 0 4735.30889866 0 248.48495819 0 632.06402257 0 16015
0.11950000 0.11950300 14292.22729945 0 -25.72303670 0 5045.08602943 0 186.99758055 0 84.08768784 0 15270
0.12050000 0.12050700 14113.32629267 0 228.87017639 0 4700.23853391 0 8.04994638 0 285.74250698 0 15999
0.12150000 0.12150000 13754.74789534 0 347.35410602 0 5476.54468191 0 -144.20885184 0 1028.89928554 0 15670
0.12250000 0.12250700 13508.52332309 0 350.23005339 0 5740.00497422 0 -332.18800332 0 1308.78342228 0 16887
0.12350000 0.12352200 13240.22726891 0 44.67134848 0 5553.35122078 0 586.87848620 0 1220.45312979 0 16407
0.12450000 0.12449800 12995.99911211 0 76.73267149 0 5623.53631507 0 615.26640479 0 1504.24358610 0 16306
0.12550000 0.12549900 12977.80954912 0 -2.01840929 0 4889.72054258 0 193.20865084 0 1351.17397702 0 17523
0.12650000 0.12650100 13096.48535646 0 -37.16992833 0 4469.74127894 0 457.13144606 0 1688.88983290 0 17154
0.12750000 0.12750600 12956.18171507 0 -2.28886813 0 4150.19280366 0 754.68164131 0 1439.82591423 0 18007
0.12850000 0.12850300 12910.70780758 0 136.21653532 0 3621.37562437 0 -102.96002492 0 902.15685065 0 17496
0.12950000 0.12949900 12624.55492631 0 172.66775409 0 3841.46933661 0 172.92396074 0 1475.45083883 0 18405
0.13050000 0.13049000 12331.63641491 0 149.53151726 0 3656.82308981 0 54.61116827 0 986.77048305 0 18100
0.13150000 0.13148800 12324.53804886 0 328.37817717 0 3630.61459143 0 -106.21229660 0 1537.32862660 0 19059
0.13250000 0.13249300 12041.93435062 0 112.69876131 0 3724.45720880 0 -84.51680625 0 1257.20935647 0 18957
0.13350000 0.13349100 11713.08036111 0 107.94562886 0 4016.05586777 0 529.72443920 0 2090.21370327 0 19468
0.13450000 0.13450700 11926.03134252 0 -108.79388360 0 3223.81166976 0 522.93773579 0 2224.77210465 0 19953
0.13550000 0.13551000 11836.08173527 0 -60.51512332 0 3915.21470512 0 174.48338303 0 2005.12204028 0 19956
0.13650000 0.13649900 12065.22586422 0 108.84201940 0 3082.95346852 0 -68.74157501 0 2221.55565753 0 19723
0.13750000 0.13749600 11679.36312239 0 83.80963153 0 3749.60095229 0 -204.48507078 0 1823.42605188 0 20946
0.13850000 0.13851100 11707.86749854 0 141.22642898 0 3760.81415240 0 -148.88046400 0 2064.87031824 0 20955
0.13950000 0.13949800 11785.72770112 0 207.37654582 0 4062.80526291 0 -55.75378338 0 1940.79309798 0 20506
0.14050000 0.14048300 11222.40580812 0 192.77942152 0 3744.41027211 0 241.11929430 0 1674.37145609 0 21447
0.14150000 0.14148400 11248.80285686 0 205.74170339 0 4529.31209775 0 1.27391270 0 2533.46229811 0 21771
0.14250000 0.14249400 10827.34846402 0 185.95278979 0 3841.04787112 0 345.52627677 0 2189.08063287 0 22470
0.14350000 0.14350900 10737.43213036 0 116.23685314 0 4331.38968820 0 179.14612223 0 2878.75344150 0 22519
0.14450000 0.14449900 10562.53504569 0 165.75572015 0 3941.80030420 0 18.70730007 0 2550.87547732 0 22218
0.14550000 0.14550500 10388.85799267 0 66.15211325 0 4325.18970911 0 -54.51068203 0 2724.48598315 0 23559
0.14650000 0.14650700 10402.74417125 0 -6.74013148 0 3808.89449117 0 172.85075884 0 1867.43592137 0 23044
0.14750000 0.14750500 10453.40875891 0 27.51149221 0 3633.04356356 0 6.27574306 0 1834.99417030 0 23649
0.14850000 0.14849900 10357.45881411 0 114.02083199 0 3780.91140127 0 40.14192547 0 1537.45062977 0 23640
0.14950000 0.14949500 10003.64963146 0 135.28376566 0 3269.99541385 0 103.49029504 0 1574.50631877 0 24457
0.15050000 0.15050000 10096.98205378 0 121.09701564 0 3482.94639526 0 126.52948391 0 1346.20512079 0 24591
0.15150000 0.15149900 9874.54809899 0 33.30852812 0 3139.51857295 0 245.62453850 0 1094.40944031 0 25020
0.15250000 0.15250500 9806.73652085 0 31.58617614 0 2998.63818932 0 53.42784847 0 1141.02906844 0 25297
0.15350000 0.15350100 9829.14073868 0 -27.39281640 0 2985.93876881 0 -140.64192290 0 904.19652177 0 25452
0.15450000 0.15450400 9845.15642707 0 40.99494942 0 3066.40540267 0 -331.76099223 0 351.27040767 0 26061
0.15550000 0.15549900 9896.47539535 0 201.57030422 0 3424.16305143 0 -207.96548838 0 99.72416821 0 26128
0.15650000 0.15649500 9628.39007392 0 238.03039595 0 3466.43160300 0 -330.25813505 0 -203.04432429 0 26331
0.15750000 0.15749700 9280.72541438 0 187.87711247 0 3772.38227082 0 -120.20971988 0 -365.92076972 0 27345
0.15850000 0.15849900 9182.08030872 0 61.99701814 0 3673.63734439 0 331.34729059 0 -49.65872701 0 26980
0.15950000 0.15949700 9031.68367810 0 149.10450617 0 3473.49669546 0 373.58589593 0 -114.06630589 0 27777
0.16050000 0.16050000 8862.08818557 0 62.38332453 0 3094.71013728 0 514.26885626 0 456.85416614 0 28224
0.16150000 0.16150500 8717.20387983 0 80.92336935 0 2904.79557194 0 310.04886509 0 59.08879539 0 28075
0.16250000 0.16249700 8617.90439356 0 65.66299147 0 2653.84614979 0 108.09458363 0 498.42286318 0 28590
0.16350000 0.16349900 8371.05871428 0 114.27371128 0 2553.11589910 0 -37.72459909 0 368.28984938 0 29163
0.16450000 0.16449100 8478.37713595 0 77.08581521 0 2237.23861002 0 -80.88432834 0 159.64114327 0 28996
0.16550000 0.16550500 8303.28040973 0 -72.92284534 0 2251.75698682 0 79.13513567 0 -152.39970079 0 30777
0.16650000 0.16650700 8481.68231264 0 -13.63407567 0 2325.93491201 0 133.86852893 0 -351.53437815 0 29211
0.16750000 0.16749900 8515.74337847 0 0.27169218 0 2054.33368114 0 33.68629428 0 -380.18515811 0 30922
0.16850000 0.16850800 8495.69049438 0 68.63166124 0 2028.22500353 0 110.78863537 0 -231.72726872 0 30867
0.16950000 0.16949900 8369.63904107 0 74.41893690 0 2209.68807680 0 -97.77965956 0 14.04944100 0 30852
0.17050000 0.17049200 8426.40378705 0 -2.12864470 0 2049.20954815 0 334.69794119 0 -48.69578929 0 31257
0.17150000 0.17149500 8306.97377831 0 132.71282620 0 2336.79319382 0 94.06976509 0 332.91004024 0 32608
0.17250000 0.17250900 8295.60530144 0 136.64687376 0 2163.61524467 0 -160.14135626 0 718.58423172 0 32361
0.17350000 0.17350400 8016.96116051 0 118.75677308 0 2770.34808253 0 -110.73218118 0 452.85246228 0 32508
0.17450000 0.17449800 7892.35156279 0 199.41972113 0 2949.54855162 0 -154.13214575 0 869.43005581 0 32791
0.17550000 0.17549800 7775.32834379 0 98.75513033 0 2920.60052759 0 88.90537106 0 539.06433615 0 33633
0.17650000 0.17650100 7803.11179215 0 -24.75688253 0 2659.50266023 0 166.81936594 0 1073.18865319 0 33984
0.17750000 0.17750300 7657.76165614 0 22.09554982 0 2721.73536631 0 252.09625191 0 1163.51092466 0 34069
0.17850000 0.17849800 7762.45146414 0 62.71783503 0 2565.79313721 0 217.93203796 0 1207.31006140 0 34536
