### header ###
fiducial parameters:
Omega_m = 0.31
Omega_nu = 0
Omega_de = 0.69
Omega_k = 0
H_0 = 100
w_de = -1
zeff = 0
beta = 0
fgrowth = 0
b_1 = 2
gamma = 0.55
Lx = 3500 Ly = 3500 Lz = 3500
nx = 700 ny = 700 nz = 700
xoffset = 1379.75464 yoffset = 22.6059522 zoffset = 368.141391
bins = 400 dk = 0.001
kx_ny = 0.628318531 ky_ny = 0.628318531 kz_ny = 0.628318531
############################
A(data) = 3.32585639 (not used)
A(ran) = 3.32698354 (used)
Ngal = 187256
weighted Ngal = 0
Nran = 9399747
weighted Nran = 0
SN(data) = 6631.75445
SN(ran) = 132.332044
SN(data+ran) = 6764.0865
############################
13 columns: k_central k_mean P_0(k) sigma^{lin}_{P_0(k)} P^img_1(k) sigma^{lin}_{P_1(k)} P_2(k) sigma^{lin}_{P_2(k)} P^img_3(k) sigma^{lin}_{P_3(k)} P_4(k) sigma^{lin}_{P_4(k)} N_modes
### header ###
0.00050000 0 0 0 0 0 0 0 0 0 0 0 0
0.00150000 0.00179520 44744.55037640 0 -39771.36857678 0 -55711.74774274 0 36748.35193658 0 72376.71480532 0 3
0.00250000 0.00253879 88871.98655460 0 -45765.60596745 0 -42353.17740239 0 -56375.11223221 0 -14810.40802087 0 6
0.00350000 0.00331552 111790.39228053 0 -30512.77010032 0 -70936.19014569 0 -40863.51874028 0 -1610.65252962 0 7
0.00450000 0.00420575 123392.89340806 0 -1603.49870759 0 -53492.51014537 0 -62569.43481582 0 -1190.93945471 0 24
0.00550000 0.00557378 91531.98831869 0 18689.99780139 0 -21397.24806448 0 -48231.73360889 0 9801.94512376 0 45
0.00650000 0.00659388 79391.12049129 0 10137.11000434 0 -18884.42648389 0 14552.53769182 0 -13131.08989094 0 40
0.00750000 0.00754703 61410.51564671 0 -1803.43971498 0 -20833.70434754 0 -4113.69167450 0 510.67863581 0 57
0.00850000 0.00846663 67638.22273313 0 -2302.68776321 0 -16322.02725294 0 -3525.99133061 0 -23432.14996857 0 75
0.00950000 0.00948925 69642.84566955 0 -3235.75688887 0 -28895.22993739 0 -18354.60000567 0 -17999.90352727 0 112
0.01050000 0.01054430 70909.79309695 0 -796.12057134 0 -7842.92918919 0 -30217.07878968 0 -19062.77293082 0 105
0.01150000 0.01145670 75240.01820947 0 5429.86183396 0 -3357.33858982 0 -24172.26554093 0 -39074.50867253 0 144
0.01250000 0.01249090 73659.74446829 0 4161.90510764 0 25222.93462783 0 -16375.37591026 0 -27074.49904637 0 169
0.01350000 0.01339930 66215.44398861 0 -111.09497423 0 20149.04475993 0 1265.22829187 0 -37217.39865552 0 180
0.01450000 0.01448870 70432.87162818 0 2412.20224188 0 47711.66738399 0 2969.75671246 0 -3899.89776213 0 267
0.01550000 0.01550050 70492.98591564 0 -774.30307783 0 21654.34200974 0 11538.17218524 0 -27247.29989482 0 238
0.01650000 0.01653350 77179.86855572 0 -1820.39815511 0 51352.02004633 0 1142.97002791 0 7634.47014255 0 315
0.01750000 0.01747870 75799.23635960 0 3520.17954341 0 20384.39995917 0 5054.28063170 0 -2368.63602026 0 297
0.01850000 0.01844180 65103.88423046 0 7542.06938078 0 47376.26958827 0 4302.12001946 0 18044.37922703 0 388
0.01950000 0.01947590 66280.54931470 0 3385.00003501 0 51218.37112311 0 783.05735958 0 5035.20377295 0 399
0.02050000 0.02045430 60603.40924478 0 414.70539949 0 44930.21701331 0 18623.22879576 0 25178.45892807 0 462
0.02150000 0.02154770 66131.26180378 0 -4868.09270853 0 36961.30291798 0 20140.06089040 0 18339.40506586 0 571
0.02250000 0.02255340 71777.79017012 0 -5433.84357366 0 22789.63692936 0 8709.53986274 0 14386.94612139 0 510
0.02350000 0.02348930 77010.61689029 0 -2319.57965616 0 14954.59358120 0 3735.00493710 0 27401.13479649 0 555
0.02450000 0.02439640 73066.80907944 0 -972.25876096 0 19839.48945310 0 2625.57468876 0 12963.83464096 0 592
0.02550000 0.02547300 77962.68523632 0 2624.28810992 0 18163.83141817 0 -1725.09149974 0 16786.97022901 0 837
0.02650000 0.02652900 69856.01847490 0 6790.62969634 0 26193.96892065 0 -10656.05601835 0 2966.24080303 0 723
0.02750000 0.02749970 67066.80426636 0 4786.68332293 0 28317.37857639 0 -1038.50869857 0 9886.90369239 0 826
0.02850000 0.02848090 61613.48455086 0 527.29879443 0 32090.49286620 0 2549.27834496 0 7156.51719246 0 831
0.02950000 0.02946900 60994.37393721 0 62.16915352 0 23427.93531373 0 7983.31046897 0 2093.24160004 0 996
0.03050000 0.03053250 59513.25549674 0 1281.35489223 0 24325.76770669 0 3081.84434882 0 -2457.69833176 0 1041
0.03150000 0.03150510 55130.79084659 0 3209.88112639 0 18500.44924554 0 -1802.08658895 0 501.68589332 0 1036
0.03250000 0.03246190 53855.85775739 0 1185.88186890 0 18742.12642705 0 5405.07300878 0 7404.51635622 0 1059
0.03350000 0.03345080 52368.75007058 0 -2528.43798589 0 12451.64316589 0 7751.49336155 0 -2590.21595289 0 1302
0.03450000 0.03451200 54438.92198096 0 -920.67914955 0 4900.53445960 0 5008.98418336 0 2786.81851000 0 1339
0.03550000 0.03553350 55025.75721149 0 459.95526480 0 2080.71963868 0 1406.59668817 0 813.07679324 0 1365
0.03650000 0.03647120 52786.77728355 0 499.51756432 0 -3165.48306501 0 1731.54657636 0 2885.05324137 0 1308
0.03750000 0.03744890 54998.80560291 0 25.97136860 0 1216.65994043 0 -765.56876023 0 671.25809434 0 1579
0.03850000 0.03847530 51486.00170547 0 -58.06352514 0 -2535.23688962 0 -231.06179690 0 -1225.11143251 0 1662
0.03950000 0.03950240 50503.09983191 0 2473.54765220 0 -294.38254940 0 -3356.29601730 0 -1275.69838179 0 1683
0.04050000 0.04050350 48743.70326002 0 2119.10627132 0 475.84784091 0 -4323.63694154 0 -3273.65550884 0 1822
0.04150000 0.04152450 45939.40502363 0 813.35850964 0 4114.06877520 0 1290.27221458 0 1131.10244717 0 1887
0.04250000 0.04250150 45029.92687388 0 1597.33200209 0 6309.71539666 0 -2359.36377961 0 -8652.19837452 0 1920
0.04350000 0.04349210 43489.69235368 0 984.71195689 0 5807.53927244 0 -3477.54498234 0 -7375.77906493 0 2005
0.04450000 0.04448520 41866.82841621 0 1410.43424231 0 10074.07873209 0 -3114.54119742 0 -8770.30853082 0 2151
0.04550000 0.04548030 41946.35229833 0 714.77551469 0 9156.84783566 0 -3214.30651397 0 -7066.12393733 0 2274
0.04650000 0.04648670 41817.36167782 0 -2.15500848 0 12898.95113881 0 651.17082755 0 -12987.79162637 0 2311
0.04750000 0.04749250 42374.69432447 0 182.76185243 0 12716.50094902 0 133.15203760 0 -11024.46121619 0 2568
0.04850000 0.04851840 40441.27687246 0 640.52993320 0 11913.83102587 0 570.84394277 0 -10109.01600247 0 2493
0.04950000 0.04949480 41001.27140637 0 641.75772870 0 14468.57733093 0 1162.55708172 0 -6843.67889134 0 2644
0.05050000 0.05050630 41706.22788440 0 -417.88857302 0 12981.35873214 0 1819.81032167 0 -850.17462879 0 2829
0.05150000 0.05149060 38671.34366346 0 607.50034868 0 13796.00714799 0 3294.78423903 0 -3259.65841829 0 2784
0.05250000 0.05249300 42069.90823233 0 578.12642269 0 12974.37127806 0 774.63803198 0 7162.24025009 0 3055
0.05350000 0.05348950 38759.85141511 0 146.42043651 0 11564.56923397 0 1084.09240891 0 -320.29602195 0 3009
0.05450000 0.05448610 39399.14800720 0 999.18929627 0 16089.88850082 0 -992.52237778 0 5936.15279225 0 3336
0.05550000 0.05550870 38194.64401862 0 823.60012090 0 13241.33638861 0 -775.26468460 0 132.19375819 0 3349
0.05650000 0.05647670 37782.60605200 0 155.54072776 0 17271.87735959 0 -684.52094765 0 3622.82857117 0 3324
0.05750000 0.05747970 37474.60351275 0 541.15169942 0 15397.13233943 0 755.44915214 0 -988.93437557 0 3639
0.05850000 0.05849280 36896.86306371 0 324.14799465 0 15860.85528384 0 -61.40330637 0 182.79068954 0 3846
0.05950000 0.05951020 37515.41911752 0 -458.72857842 0 13848.69033349 0 1405.15483257 0 421.78158315 0 3787
0.06050000 0.06049470 37708.18412048 0 -373.41287325 0 14357.77627341 0 1747.76190630 0 -2138.67114274 0 3930
0.06150000 0.06148310 36506.00928326 0 1305.70006953 0 13408.25890268 0 -615.37509852 0 81.46639435 0 4083
0.06250000 0.06249100 34878.59795505 0 2005.62114415 0 13817.08042219 0 -1161.38141484 0 -1858.37441346 0 4303
0.06350000 0.06350600 33083.48772898 0 1487.54024350 0 17827.32450276 0 -1622.27610403 0 717.50727650 0 4470
0.06450000 0.06451750 31225.15768030 0 855.30098002 0 16032.32518866 0 1085.44220758 0 -2804.90825222 0 4479
0.06550000 0.06550280 30427.14605988 0 439.37000327 0 17225.18342044 0 1726.32262260 0 1256.24442234 0 4636
0.06650000 0.06648880 29876.91177927 0 229.12527392 0 14432.30911691 0 1650.68065941 0 -1136.89205198 0 4653
0.06750000 0.06749660 29269.77965833 0 428.79011050 0 14452.82783126 0 1613.04822816 0 818.71666689 0 5220
0.06850000 0.06852730 28687.71364249 0 168.08154415 0 12611.68913785 0 1154.80433505 0 159.72321813 0 5029
0.06950000 0.06949320 27793.20860861 0 519.78783586 0 12735.02324792 0 234.81394883 0 -536.17286111 0 5040
0.07050000 0.07048030 27340.13321328 0 591.66655592 0 11526.52642844 0 652.03039531 0 2186.28565124 0 5475
0.07150000 0.07148790 26857.55523406 0 189.08050733 0 11476.28330626 0 1169.96600128 0 540.96758555 0 5509
0.07250000 0.07249820 26462.70862270 0 -7.20834636 0 10395.78999077 0 701.63022806 0 959.39962722 0 5916
0.07350000 0.07351270 26970.90726687 0 -623.46945405 0 9951.31027307 0 1581.59359362 0 710.31241704 0 5721
0.07450000 0.07449140 27803.30159783 0 -259.70037654 0 8406.47290613 0 1430.70895034 0 778.74621133 0 6028
0.07550000 0.07549160 27889.36928615 0 155.26122960 0 8514.95590348 0 -443.53585684 0 3293.51984258 0 6183
0.07650000 0.07648840 26830.60362548 0 588.72073401 0 8009.62987933 0 317.30472613 0 1855.02487198 0 6330
0.07750000 0.07749960 26835.92740001 0 526.02774326 0 10402.79962724 0 268.71973790 0 4664.75779488 0 6583
0.07850000 0.07848650 26101.02469022 0 366.36441759 0 8696.54097992 0 927.26288406 0 4686.30799055 0 6549
0.07950000 0.07947320 26337.37809719 0 59.61462904 0 10873.04419545 0 1246.80581374 0 7111.17637934 0 6828
0.08050000 0.08048110 25826.85030166 0 293.82355307 0 8802.87228506 0 621.15472125 0 5676.81842521 0 7147
0.08150000 0.08149960 25271.07042259 0 559.16934886 0 10786.34430890 0 -251.59936629 0 7832.08199858 0 7386
0.08250000 0.08250610 24723.60894122 0 762.56193674 0 10630.85681889 0 -645.26809253 0 5452.65424369 0 7227
0.08350000 0.08350160 23936.57760578 0 609.23501189 0 12054.46740318 0 -1244.67630392 0 5934.97712537 0 7798
0.08450000 0.08449610 23168.62312908 0 580.06849127 0 12485.80405249 0 -558.67357236 0 4723.14185561 0 7371
0.08550000 0.08548940 22776.54931696 0 157.19331611 0 11492.47645381 0 975.33767723 0 3973.64313064 0 8256
0.08650000 0.08650700 22476.19970360 0 152.88660433 0 12178.46698506 0 919.66541415 0 4064.13620654 0 8037
0.08750000 0.08749060 22217.55299077 0 80.76032875 0 10476.58936053 0 1191.07254907 0 3852.66035433 0 8155
0.08850000 0.08849210 22024.56616387 0 339.97956917 0 10548.98160301 0 1139.86449276 0 5135.81202047 0 8718
0.08950000 0.08949900 21520.36035061 0 199.07700314 0 9616.24521326 0 791.23822645 0 5498.58289025 0 8571
0.09050000 0.09049190 20967.13144683 0 563.61691884 0 9378.52758907 0 116.19581571 0 4890.44147038 0 8932
0.09150000 0.09150830 20526.81092798 0 642.35887157 0 9732.66950763 0 -239.60090943 0 5334.89900569 0 9285
0.09250000 0.09250820 19305.67014398 0 490.21094096 0 9724.37329231 0 -70.40469999 0 3376.80364046 0 9204
0.09350000 0.09350330 19069.42764899 0 219.73103010 0 10383.82258926 0 -161.12403631 0 5113.08615792 0 9349
0.09450000 0.09448040 18295.70574988 0 298.78908195 0 9400.89853331 0 528.98021989 0 2143.67327256 0 9564
0.09550000 0.09549270 18458.08087320 0 87.91193255 0 9798.61776468 0 519.57155752 0 3490.90987467 0 10155
0.09650000 0.09649430 18353.49088598 0 -291.55318506 0 8123.23700967 0 1352.09454637 0 1727.90866376 0 9913
0.09750000 0.09749140 18624.55973939 0 -84.44759718 0 7699.17618555 0 896.15318574 0 3055.82440078 0 10476
0.09850000 0.09850240 18525.29352671 0 -127.61753033 0 5881.79483601 0 765.08185669 0 1608.29010467 0 10575
0.09950000 0.09950330 18485.25430572 0 151.88950573 0 5712.18825227 0 79.36339250 0 1669.09204634 0 10882
0.10050000 0.10051200 18286.27823247 0 302.46026814 0 5545.16591743 0 29.33876690 0 796.51985444 0 10875
0.10150000 0.10150300 17752.23709942 0 216.95712174 0 4873.93776932 0 -117.91938771 0 -200.52440435 0 11118
0.10250000 0.10250800 17363.15791047 0 441.95314304 0 5641.98097559 0 -40.38781730 0 509.68153720 0 11575
0.10350000 0.10349800 16690.80955147 0 556.18914424 0 4879.92701567 0 -737.72763765 0 -1510.07755570 0 11364
0.10450000 0.10450100 16170.52150263 0 455.65964422 0 6142.18286676 0 66.14102206 0 -375.47583589 0 12093
0.10550000 0.10551000 15358.97862193 0 360.05685389 0 5687.06669119 0 -257.88474760 0 -1260.81399548 0 12067
0.10650000 0.10649700 15273.24366952 0 257.27805913 0 5669.45387043 0 318.67227072 0 303.51615009 0 12054
0.10750000 0.10749900 14974.55773570 0 -52.15801733 0 5947.78745785 0 992.11200350 0 72.18960631 0 12807
0.10850000 0.10850100 14984.42890099 0 -11.67592485 0 4945.20980091 0 1377.74848491 0 1174.93485751 0 12736
0.10950000 0.10950300 15064.06369508 0 -66.24239560 0 4195.23415447 0 841.84292164 0 1976.77294088 0 12933
0.11050000 0.11050200 14873.18419560 0 104.89832250 0 4196.48745972 0 241.76480196 0 2322.06408428 0 13428
0.11150000 0.11150900 14576.16194132 0 333.49565544 0 4015.61221989 0 70.34647120 0 2910.03061690 0 13453
0.11250000 0.11250000 14233.33304365 0 92.36227532 0 3893.59796226 0 11.78339855 0 1959.44849125 0 13668
0.11350000 0.11349100 14305.86947170 0 117.80625751 0 4544.62904073 0 -650.38224345 0 2475.54406765 0 13791
0.11450000 0.11448600 14151.14727427 0 98.31991176 0 4091.96401968 0 89.46470012 0 709.60923515 0 14205
0.11550000 0.11549300 14201.27948447 0 56.62322231 0 4393.15656401 0 -201.99509706 0 1440.58011562 0 14776
0.11650000 0.11649800 14106.44975057 0 -38.25841840 0 3894.67380837 0 -156.84837988 0 224.75866968 0 14553
0.11750000 0.11747300 14206.93599492 0 -14.57627285 0 4191.70715384 0 536.67529233 0 -227.49819532 0 14568
0.11850000 0.11849100 14248.52798347 0 100.57652669 0 3799.85516566 0 -140.25816749 0 138.13753063 0 16015
0.11950000 0.11950300 14086.81833197 0 189.89127383 0 3879.30140940 0 -166.43671964 0 -252.42898782 0 15270
0.12050000 0.12050700 13917.56666654 0 61.77408508 0 4260.62785167 0 -163.36445809 0 298.85784737 0 15999
0.12150000 0.12150000 13977.90277794 0 32.25153705 0 4337.63403209 0 250.21851227 0 -328.99262948 0 15670
0.12250000 0.12250700 13980.78648914 0 202.90679345 0 4372.31620494 0 61.18004057 0 401.24512288 0 16887
0.12350000 0.12352200 13814.19671098 0 139.91655862 0 4857.96644572 0 -146.13650187 0 538.51975838 0 16407
0.12450000 0.12449800 13463.49306348 0 109.78565843 0 4681.47222868 0 380.44469212 0 1612.01674685 0 16306
0.12550000 0.12549900 13526.38015017 0 3.25071891 0 4615.23560050 0 479.60997491 0 1175.32304941 0 17523
0.12650000 0.12650100 13550.89169543 0 94.06721412 0 4663.38248646 0 217.59264733 0 1947.74727847 0 17154
0.12750000 0.12750600 13253.98035313 0 217.12348970 0 4738.42552501 0 -343.35572952 0 1105.93763042 0 18007
0.12850000 0.12850300 12990.45351364 0 496.63607135 0 5065.37182865 0 -496.35435495 0 1362.94173698 0 17496
0.12950000 0.12949900 12346.83135473 0 269.40406475 0 5340.67751930 0 -211.35052169 0 884.22793078 0 18405
0.13050000 0.13049000 12438.11190561 0 87.76974340 0 5536.79206373 0 -34.36563010 0 867.38040262 0 18100
0.13150000 0.13148800 12096.72486355 0 -2.65384615 0 5271.00262007 0 509.11034056 0 818.29187404 0 19059
0.13250000 0.13249300 12236.47394510 0 34.50482462 0 4625.51714007 0 423.15578245 0 279.31404923 0 18957
0.13350000 0.13349100 11989.47298906 0 114.16058107 0 4488.46321939 0 -266.70335830 0 -8.12876043 0 19468
0.13450000 0.13450700 11982.26371104 0 226.19387056 0 4615.88998112 0 137.18257857 0 -191.36640302 0 19953
0.13550000 0.13551000 11585.53159620 0 177.97932831 0 4533.58220857 0 -86.68546799 0 -190.09424273 0 19956
0.13650000 0.13649900 11226.17681508 0 152.86442194 0 4310.20550203 0 58.64936217 0 -446.46947843 0 19723
0.13750000 0.13749600 11353.28193211 0 -8.70296278 0 4241.70626968 0 222.39735385 0 -634.83127620 0 20946
0.13850000 0.13851100 11371.69331904 0 -282.17668716 0 3565.40944457 0 981.05297102 0 -94.57563459 0 20955
0.13950000 0.13949800 11632.44735930 0 -228.82692072 0 2861.11843835 0 852.62134684 0 -115.70780304 0 20506
0.14050000 0.14048300 11843.40192525 0 -15.18018853 0 2263.31401404 0 366.90677712 0 233.78579487 0 21447
0.14150000 0.14148400 11650.74783426 0 223.76489843 0 2104.92063042 0 -134.36430543 0 -310.97276179 0 21771
0.14250000 0.14249400 11245.47549777 0 343.85150603 0 2386.27102341 0 -496.67045406 0 -98.08710754 0 22470
0.14350000 0.14350900 11006.64875389 0 228.93894181 0 2519.36538679 0 -297.60010563 0 13.48434451 0 22519
0.14450000 0.14449900 10712.84294673 0 226.35691116 0 3072.42792261 0 -140.26260397 0 -537.34630975 0 22218
0.14550000 0.14550500 10709.72632039 0 -27.38871266 0 2660.32340880 0 216.26503105 0 -379.47864887 0 23559
0.14650000 0.14650700 10553.76190890 0 56.87953987 0 2798.13153089 0 271.93063942 0 -882.69623648 0 23044
0.14750000 0.14750500 10482.78933963 0 234.80507587 0 2406.03553637 0 -141.58467464 0 -41.61128724 0 23649
0.14850000 0.14849900 10127.39411582 0 179.69957296 0 2921.16617863 0 305.84973792 0 -205.90252575 0 23640
0.14950000 0.14949500 9937.31318252 0 92.23439382 0 2996.08721402 0 205.70732068 0 502.67522809 0 24457
0.15050000 0.15050000 9819.35830297 0 174.26044997 0 2807.47031872 0 67.69245869 0 372.56217845 0 24591
0.15150000 0.15149900 9707.43703457 0 171.13273243 0 3244.19728975 0 -188.32741506 0 807.47130230 0 25020
0.15250000 0.15250500 9341.72699759 0 210.93238356 0 3347.20123581 0 -165.24441597 0 659.78092374 0 25297
0.15350000 0.15350100 9469.58631601 0 89.10190707 0 3694.84371295 0 -234.27935314 0 1228.73825391 0 25452
0.15450000 0.15450400 9266.99451256 0 -33.98387110 0 3694.46661226 0 345.83793940 0 696.06688368 0 26061
0.15550000 0.15549900 9407.17615079 0 -35.81791142 0 3420.04821736 0 178.94204420 0 844.14101765 0 26128
0.15650000 0.15649500 9580.63137986 0 -8.01787064 0 3333.55906356 0 -120.50030924 0 917.48599395 0 26331
0.15750000 0.15749700 9365.59525343 0 162.56145543 0 3464.67919388 0 53.69492449 0 445.66203929 0 27345
0.15850000 0.15849900 9321.29701282 0 99.74590695 0 3597.64046290 0 -168.35327848 0 831.25415592 0 26980
0.15950000 0.15949700 9122.93095540 0 42.57411405 0 3414.02569742 0 170.64471977 0 225.97315574 0 27777
0.16050000 0.16050000 8997.51170031 0 75.32597499 0 3478.98683795 0 257.24034906 0 563.67681130 0 28224
0.16150000 0.16150500 9222.16389449 0 8.37016033 0 2927.36615773 0 165.01482820 0 274.71452985 0 28075
0.16250000 0.16249700 8976.70461483 0 -24.24313829 0 3023.37155851 0 106.44731906 0 82.41502443 0 28590
0.16350000 0.16349900 9056.61668884 0 32.02649666 0 2570.08543043 0 175.08785326 0 104.50214494 0 29163
0.16450000 0.16449100 8974.19800432 0 27.93550867 0 2376.26676376 0 188.95295857 0 -442.35353525 0 28996
0.16550000 0.16550500 8940.86895749 0 111.61071489 0 2474.53476872 0 -105.26233558 0 27.83114050 0 30777
0.16650000 0.16650700 8799.84438830 0 179.17495934 0 2362.90187144 0 -111.38778183 0 -687.79728723 0 29211
0.16750000 0.16749900 8608.22177862 0 151.64439027 0 2547.99176611 0 75.92390141 0 -79.09321094 0 30922
0.16850000 0.16850800 8492.27440572 0 131.77007446 0 2293.45988735 0 -68.75754633 0 -499.91573829 0 30867
0.16950000 0.16949900 8249.36610136 0 153.90588533 0 2730.15358479 0 152.02370921 0 66.65299171 0 30852
0.17050000 0.17049200 8091.28327126 0 110.04863071 0 2343.41463840 0 93.95242023 0 -151.89283309 0 31257
0.17150000 0.17149500 8002.30968934 0 42.88400209 0 2463.79849008 0 183.23101006 0 97.10021283 0 32608
0.17250000 0.17250900 8036.08238405 0 13.80199639 0 2140.15736313 0 221.29267063 0 20.56130455 0 32361
0.17350000 0.17350400 7821.24589916 0 83.53789721 0 2480.22455276 0 -99.86336273 0 246.44639619 0 32508
0.17450000 0.17449800 7820.09241468 0 58.36731303 0 1830.87933623 0 183.80553407 0 506.49614544 0 32791
0.17550000 0.17549800 7803.08960976 0 -130.37258365 0 1966.08102703 0 492.55340175 0 255.78518402 0 33633
0.17650000 0.17650100 8037.74606359 0 -31.01342673 0 1713.06864224 0 213.17169623 0 529.41277657 0 33984
0.17750000 0.17750300 7915.35470527 0 105.08532008 0 1445.29387432 0 -52.97920955 0 258.73433329 0 34069
0.17850000 0.17849800 7834.71061225 0 167.56358525 0 1806.99998920 0 -102.02969532 0 654.97954458 0 34536
