### header ###
fiducial parameters:
Omega_m = 0.31
Omega_nu = 0
Omega_de = 0.69
Omega_k = 0
H_0 = 100
w_de = -1
zeff = 0
beta = 0
fgrowth = 0
b_1 = 2
gamma = 0.55
Lx = 3500 Ly = 3500 Lz = 3500
nx = 700 ny = 700 nz = 700
xoffset = 1379.75464 yoffset = 22.6059522 zoffset = 368.141391
bins = 400 dk = 0.001
kx_ny = 0.628318531 ky_ny = 0.628318531 kz_ny = 0.628318531
############################
A(data) = 3.32525202 (not used)
A(ran) = 3.32088157 (used)
Ngal = 185893
weighted Ngal = 0
Nran = 9399747
weighted Nran = 0
SN(data) = 6693.0641
SN(ran) = 132.089336
SN(data+ran) = 6825.15344
############################
13 columns: k_central k_mean P_0(k) sigma^{lin}_{P_0(k)} P^img_1(k) sigma^{lin}_{P_1(k)} P_2(k) sigma^{lin}_{P_2(k)} P^img_3(k) sigma^{lin}_{P_3(k)} P_4(k) sigma^{lin}_{P_4(k)} N_modes
### header ###
0.00050000 0 0 0 0 0 0 0 0 0 0 0 0
0.00150000 0.00179520 2676.96020423 0 -5550.50078316 0 -4069.38234270 0 19797.34290470 0 41287.75702354 0 3
0.00250000 0.00253879 6350.46445425 0 -6409.56944279 0 10861.32080027 0 -20102.57264471 0 -20747.19301135 0 6
0.00350000 0.00331552 19756.41638796 0 -12129.66571848 0 -16831.77866468 0 21931.84375738 0 15164.66085140 0 7
0.00450000 0.00420575 36122.91934067 0 -17574.11247643 0 -5836.58711724 0 4566.26796598 0 -6723.56122839 0 24
0.00550000 0.00557378 66674.28680636 0 -10642.64676124 0 -12548.24749131 0 -2846.89952387 0 9380.21345101 0 45
0.00650000 0.00659388 89914.89180364 0 -16714.32288900 0 -6372.44720660 0 -2697.91147526 0 -17107.28399688 0 40
0.00750000 0.00754703 92038.52328331 0 2333.47692594 0 -7610.12496525 0 -19319.31231623 0 17335.42991810 0 57
0.00850000 0.00846663 86123.36612689 0 14018.05291089 0 18464.62467940 0 -25527.38798406 0 -11936.90071552 0 75
0.00950000 0.00948925 68704.30858380 0 9895.34409327 0 30100.28848581 0 5566.03955009 0 13167.46901693 0 112
0.01050000 0.01054430 63893.72373144 0 8631.16946511 0 44036.15562731 0 8423.98590611 0 13141.18288016 0 105
0.01150000 0.01145670 55891.75786921 0 -217.53497310 0 28890.01707482 0 28457.90404172 0 10431.80310726 0 144
0.01250000 0.01249090 61420.94137184 0 -6603.39920065 0 14077.27990259 0 29336.10501608 0 25284.15803499 0 169
0.01350000 0.01339930 65374.84217191 0 -5015.52798956 0 -5912.14035086 0 13199.63348808 0 22257.81403569 0 180
0.01450000 0.01448870 72188.60810508 0 -5984.17767503 0 -15217.78768478 0 1993.52064828 0 26831.04727335 0 267
0.01550000 0.01550050 81021.63735464 0 -6497.01243953 0 -40729.20434523 0 6786.68123022 0 -4033.85723887 0 238
0.01650000 0.01653350 85904.98045898 0 -9208.34426310 0 -20674.43475936 0 -6788.20072421 0 25269.40674304 0 315
0.01750000 0.01747870 97645.34516458 0 -6149.00395288 0 -56556.12056641 0 22224.54044485 0 -2204.75249416 0 297
0.01850000 0.01844180 104172.62548058 0 -3505.26188352 0 -29771.54540827 0 -8639.84278112 0 10056.19972261 0 388
0.01950000 0.01947590 98438.14392244 0 6798.43789899 0 -32863.10564561 0 -16818.02558047 0 -3694.82153056 0 399
0.02050000 0.02045430 94477.92114011 0 6919.01030101 0 -15503.38600620 0 -9073.19802828 0 21455.47684846 0 462
0.02150000 0.02154770 86337.31531602 0 2628.55822074 0 -1408.22709412 0 -9400.94289810 0 16881.24540307 0 571
0.02250000 0.02255340 80954.20287720 0 3527.55518938 0 81.22238802 0 5409.72022030 0 5299.35171947 0 510
0.02350000 0.02348930 82750.97678281 0 3221.38269763 0 17135.89928500 0 587.22674978 0 29198.24143801 0 555
0.02450000 0.02439640 73147.55299322 0 4987.46726128 0 2719.09566143 0 -3639.78701130 0 4246.42002838 0 592
0.02550000 0.02547300 67636.33722965 0 4536.07772788 0 19392.07056821 0 -2457.14377191 0 23239.71770152 0 837
0.02650000 0.02652900 64282.02653660 0 2538.07623604 0 17846.29044954 0 -6205.74651647 0 9847.56321681 0 723
0.02750000 0.02749970 63346.48407402 0 1755.20409945 0 32100.03129558 0 5466.45169269 0 18397.19020196 0 826
0.02850000 0.02848090 61455.98955419 0 417.66674908 0 18861.24588227 0 3088.24396946 0 1343.09958564 0 831
0.02950000 0.02946900 60516.67608465 0 -1628.56481270 0 19934.98465883 0 2687.79630364 0 9840.54248914 0 996
0.03050000 0.03053250 61003.24689477 0 2448.82537420 0 17692.34463590 0 -2796.57876331 0 -1506.16236317 0 1041
0.03150000 0.03150510 58108.99905113 0 2868.39426355 0 22421.96375053 0 -2799.30719776 0 -2086.78652341 0 1036
0.03250000 0.03246190 55555.36186577 0 1290.01711705 0 22913.96924715 0 -2699.05386855 0 -2602.85991741 0 1059
0.03350000 0.03345080 53212.79015833 0 1827.33015320 0 20862.76328355 0 -421.47102963 0 -11074.47142322 0 1302
0.03450000 0.03451200 53832.89897971 0 417.65233052 0 28481.52829122 0 1205.01418364 0 -1626.65712682 0 1339
0.03550000 0.03553350 51930.09323127 0 82.08195578 0 18286.16732050 0 3727.08582248 0 -6581.82682259 0 1365
0.03650000 0.03647120 51106.79368181 0 759.43865568 0 25498.99451987 0 4652.38001908 0 4832.77833745 0 1308
0.03750000 0.03744890 51050.56131328 0 1270.46333683 0 15809.50304197 0 3231.90824353 0 -317.54540511 0 1579
0.03850000 0.03847530 48940.68291782 0 1585.23150622 0 26291.34962985 0 4589.49293239 0 11010.02047776 0 1662
0.03950000 0.03950240 47787.86390702 0 2373.72687966 0 23338.20753042 0 -1610.33088491 0 13840.92649563 0 1683
0.04050000 0.04050350 44535.92496180 0 1315.75978516 0 22807.05010857 0 1094.12328743 0 7588.85204950 0 1822
0.04150000 0.04152450 42960.53134728 0 1864.04201510 0 29011.24385747 0 -2000.91847664 0 18657.50059433 0 1887
0.04250000 0.04250150 41301.73193170 0 1470.60398576 0 25315.65703432 0 673.26560099 0 799.50227729 0 1920
0.04350000 0.04349210 41881.46879618 0 1180.07008170 0 32050.23182128 0 136.36072088 0 13588.04720521 0 2005
0.04450000 0.04448520 39168.78384659 0 139.03148111 0 25307.22772464 0 450.13955550 0 -278.48664593 0 2151
0.04550000 0.04548030 38706.39184582 0 -20.54677508 0 25284.93441877 0 5522.19604855 0 6853.13968234 0 2274
0.04650000 0.04648670 39372.30731059 0 -299.01423325 0 23091.65022226 0 -569.47417995 0 -874.00961103 0 2311
0.04750000 0.04749250 38077.29915491 0 -85.11240353 0 17109.83497218 0 4012.48450235 0 -168.50855523 0 2568
0.04850000 0.04851840 39469.79893176 0 -849.25405945 0 18840.28352004 0 3819.30912511 0 -303.75571994 0 2493
0.04950000 0.04949480 39689.40463134 0 -711.96833274 0 9378.32794752 0 1548.45309714 0 -4813.91221144 0 2644
0.05050000 0.05050630 40195.05230021 0 254.06493937 0 11466.52305295 0 289.43920292 0 -4242.05009679 0 2829
0.05150000 0.05149060 39805.08581551 0 976.92371840 0 11431.91851847 0 -3223.05746837 0 -5552.43065143 0 2784
0.05250000 0.05249300 38544.57128234 0 1147.05158839 0 13102.58551478 0 -3172.04905360 0 -5922.13351931 0 3055
0.05350000 0.05348950 37054.35806038 0 884.62610475 0 12616.12561663 0 -589.87865497 0 -12719.27374825 0 3009
0.05450000 0.05448610 36469.51924530 0 1124.98010646 0 16927.16295844 0 -1008.49370139 0 -6923.46896219 0 3336
0.05550000 0.05550870 34614.29473177 0 1003.93078297 0 15546.64167429 0 1421.95799594 0 -8469.37108403 0 3349
0.05650000 0.05647670 33844.89839947 0 869.13835733 0 17233.39090618 0 2725.34000531 0 -3953.78988810 0 3324
0.05750000 0.05747970 33218.13485993 0 695.21951623 0 15234.42448020 0 -79.45123478 0 -3622.81747997 0 3639
0.05850000 0.05849280 32552.88486697 0 -355.91983743 0 15099.77734925 0 3820.12987368 0 -1034.58463309 0 3846
0.05950000 0.05951020 33251.07571486 0 -498.08569079 0 13647.60693282 0 2758.32522504 0 2877.79959856 0 3787
0.06050000 0.06049470 32577.95097208 0 -439.67390206 0 9500.37547874 0 1850.81021714 0 -196.05354286 0 3930
0.06150000 0.06148310 33331.48689274 0 1319.78588966 0 12060.90029741 0 -1219.71001959 0 567.40899908 0 4083
0.06250000 0.06249100 32074.74336653 0 971.42581207 0 11727.16618123 0 -1808.45293600 0 -148.62536647 0 4303
0.06350000 0.06350600 30718.62271568 0 442.04076349 0 13336.60977039 0 -1848.74725451 0 -566.39082720 0 4470
0.06450000 0.06451750 30166.17019568 0 424.19059112 0 12966.38561626 0 1292.51263636 0 -2627.27164190 0 4479
0.06550000 0.06550280 30004.46054418 0 -199.98315393 0 13476.35885194 0 1129.05057574 0 -2828.68777848 0 4636
0.06650000 0.06648880 30471.62175964 0 -308.58149973 0 9842.18398629 0 3273.72205603 0 -2036.16630054 0 4653
0.06750000 0.06749660 29691.46696630 0 646.94397239 0 10620.68619129 0 1150.16821473 0 -569.48083467 0 5220
0.06850000 0.06852730 29245.93358489 0 697.35568076 0 8340.61337865 0 -45.55465140 0 401.29392414 0 5029
0.06950000 0.06949320 28114.85332011 0 436.50292885 0 9405.26846491 0 1815.79530838 0 358.82905839 0 5040
0.07050000 0.07048030 27087.03209892 0 343.33243801 0 7079.63301522 0 1383.21644500 0 1955.22274521 0 5475
0.07150000 0.07148790 26690.85454393 0 196.57261087 0 6365.75921484 0 723.30242690 0 2505.15756350 0 5509
0.07250000 0.07249820 25811.54444987 0 545.58374172 0 5872.57805134 0 1019.31649137 0 426.02618422 0 5916
0.07350000 0.07351270 25273.73230985 0 728.21249979 0 5838.67226227 0 -951.36516415 0 2245.65682850 0 5721
0.07450000 0.07449140 24133.00270373 0 621.11479294 0 6309.77085265 0 -1320.69536781 0 -294.82730640 0 6028
0.07550000 0.07549160 23932.91751078 0 243.39742615 0 6940.38303753 0 -556.16585273 0 -528.74065004 0 6183
0.07650000 0.07648840 24063.23907492 0 -471.05644383 0 6137.01436898 0 1236.03626150 0 -1879.53641724 0 6330
0.07750000 0.07749960 23743.03621903 0 -196.70237788 0 5180.84228008 0 1031.45691555 0 -783.30247503 0 6583
0.07850000 0.07848650 24657.17267150 0 -34.71467006 0 4751.20258389 0 884.14474680 0 -1211.13652435 0 6549
0.07950000 0.07947320 24248.57297593 0 -12.45896336 0 3392.20931302 0 1397.57954505 0 -636.89091148 0 6828
0.08050000 0.08048110 24039.61482543 0 582.62057569 0 4233.94243182 0 -662.56037769 0 -89.94040156 0 7147
0.08150000 0.08149960 23349.74237525 0 627.87376836 0 4279.66034564 0 -504.69826241 0 909.78537591 0 7386
0.08250000 0.08250610 22141.68920365 0 843.89701132 0 5113.31907305 0 423.61163064 0 1400.28579711 0 7227
0.08350000 0.08350160 21422.86872943 0 439.56742657 0 4654.16570179 0 -184.24474546 0 944.45091197 0 7798
0.08450000 0.08449610 21078.48706419 0 -58.32461192 0 4659.26765239 0 1073.90847187 0 2592.86674896 0 7371
0.08550000 0.08548940 21005.72881221 0 193.90961449 0 3659.98408094 0 653.78502267 0 642.52634865 0 8256
0.08650000 0.08650700 20847.01378388 0 207.37321846 0 4254.59424054 0 -618.01258515 0 2450.44468895 0 8037
0.08750000 0.08749060 20416.56443032 0 358.03936516 0 4785.99566872 0 -1042.93408615 0 697.19485840 0 8155
0.08850000 0.08849210 20324.28567171 0 252.63972057 0 5169.49598560 0 -836.83302798 0 1296.71620000 0 8718
0.08950000 0.08949900 19933.32097928 0 57.80022013 0 5511.68159384 0 -214.60135151 0 -1347.03696056 0 8571
0.09050000 0.09049190 20200.39700180 0 374.40664450 0 6069.89044505 0 -440.95826267 0 -1020.28253463 0 8932
0.09150000 0.09150830 19333.17631242 0 393.96818856 0 6881.31132259 0 -883.08331926 0 -1261.14673139 0 9285
0.09250000 0.09250820 19661.03209421 0 79.97019188 0 7496.29601097 0 400.90018665 0 -1489.11519347 0 9204
0.09350000 0.09350330 19242.22849744 0 -132.59747776 0 7086.86447563 0 773.04755433 0 -528.93585510 0 9349
0.09450000 0.09448040 19362.01342448 0 134.71811461 0 6839.04277102 0 320.35369617 0 -920.69578635 0 9564
0.09550000 0.09549270 19185.55248104 0 246.82349689 0 6813.28901170 0 119.11390963 0 -61.65929119 0 10155
0.09650000 0.09649430 18936.44419758 0 379.30008059 0 6308.49536500 0 -30.21552602 0 -1277.38424372 0 9913
0.09750000 0.09749140 18396.41381817 0 213.49223182 0 6766.26233664 0 407.48724852 0 354.76968030 0 10476
0.09850000 0.09850240 18329.42298860 0 212.73803042 0 6544.97077513 0 394.56600407 0 111.39000007 0 10575
0.09950000 0.09950330 17993.24880910 0 -250.72870733 0 5600.73281414 0 1707.47867898 0 1411.36590286 0 10882
0.10050000 0.10051200 18235.81328636 0 161.69966943 0 5147.00303819 0 656.67871595 0 1136.00475622 0 10875
0.10150000 0.10150300 17664.50573156 0 325.69521662 0 4498.50075262 0 384.32882929 0 1605.19566073 0 11118
0.10250000 0.10250800 17391.55137466 0 383.42489674 0 5459.05386432 0 -177.13639734 0 2505.78976172 0 11575
0.10350000 0.10349800 16759.35314861 0 512.76488995 0 5554.20524294 0 -558.02362822 0 1731.70185312 0 11364
0.10450000 0.10450100 16229.08302252 0 390.37242251 0 6082.46786239 0 -410.58169247 0 2102.35856393 0 12093
0.10550000 0.10551000 16119.94564455 0 -46.69593557 0 5725.38677664 0 734.76185159 0 2665.27008264 0 12067
0.10650000 0.10649700 16203.35144560 0 -203.18185513 0 5509.30807770 0 1160.43866310 0 2464.13122599 0 12054
0.10750000 0.10749900 16325.35461203 0 50.01131616 0 5223.69866508 0 -269.77451073 0 1683.46623759 0 12807
0.10850000 0.10850100 16035.54163577 0 396.31064935 0 5606.40041578 0 -400.45542965 0 1660.07490323 0 12736
0.10950000 0.10950300 15531.55764644 0 531.14743977 0 5750.29760499 0 -897.50076617 0 853.33672904 0 12933
0.11050000 0.11050200 15109.64851453 0 358.05711108 0 6467.33239649 0 -734.08307033 0 524.69236315 0 13428
0.11150000 0.11150900 14846.89805883 0 112.96716828 0 6315.97083174 0 390.81163391 0 -57.99797617 0 13453
0.11250000 0.11250000 14881.28076937 0 -125.31832520 0 6132.82189653 0 599.77976649 0 -283.91467772 0 13668
0.11350000 0.11349100 14600.89531052 0 178.03478429 0 5689.69530486 0 726.81279074 0 -114.23821945 0 13791
0.11450000 0.11448600 14686.29752702 0 105.59651334 0 5500.40184655 0 51.13596353 0 -136.12780574 0 14205
0.11550000 0.11549300 14262.28106769 0 115.24530013 0 5377.30065162 0 333.29823213 0 385.64202701 0 14776
0.11650000 0.11649800 14256.84638118 0 247.30263659 0 5737.74237004 0 -179.28698043 0 534.95726592 0 14553
0.11750000 0.11747300 13830.27894656 0 208.39693594 0 5371.01194295 0 1.17037638 0 649.08568252 0 14568
0.11850000 0.11849100 13939.63814847 0 -233.90225244 0 5454.28464964 0 591.72201191 0 1179.19387714 0 16015
0.11950000 0.11950300 14173.32966816 0 -116.38214782 0 5297.13348008 0 646.03338512 0 442.72065386 0 15270
0.12050000 0.12050700 14396.59546273 0 -14.46669183 0 5021.04031445 0 42.50401768 0 1262.13384792 0 15999
0.12150000 0.12150000 14223.24005443 0 163.87132579 0 4822.70753062 0 -146.19528521 0 112.48026473 0 15670
0.12250000 0.12250700 14184.53177708 0 239.53214401 0 5037.32219157 0 -481.88921589 0 1415.12581862 0 16887
0.12350000 0.12352200 13741.32754703 0 258.96724842 0 5599.04695220 0 -449.82678375 0 -621.92445032 0 16407
0.12450000 0.12449800 13692.63719243 0 119.03405301 0 5815.74675818 0 318.33620745 0 -299.90485636 0 16306
0.12550000 0.12549900 13583.72163840 0 -0.37217842 0 5111.20065444 0 214.25641529 0 -691.94206753 0 17523
0.12650000 0.12650100 13376.98172728 0 84.45769017 0 4505.94294578 0 660.70260221 0 153.58091326 0 17154
0.12750000 0.12750600 13396.94588179 0 53.86195792 0 4629.45451499 0 493.98305704 0 16.54629126 0 18007
0.12850000 0.12850300 13140.40649638 0 100.94497626 0 3633.05465475 0 418.72817663 0 14.21037427 0 17496
0.12950000 0.12949900 12953.18709189 0 86.96441159 0 3721.91732470 0 626.38976621 0 454.16233264 0 18405
0.13050000 0.13049000 12785.48819403 0 128.65455724 0 3597.25227100 0 222.73341711 0 664.47471829 0 18100
0.13150000 0.13148800 12780.94080328 0 85.55793691 0 2648.36709849 0 73.38712285 0 557.72083854 0 19059
0.13250000 0.13249300 12448.75945469 0 190.07760594 0 3210.09185913 0 -196.48942690 0 -97.20857383 0 18957
0.13350000 0.13349100 12115.13625048 0 308.80886927 0 2909.38732747 0 -571.09349470 0 -391.41610414 0 19468
0.13450000 0.13450700 11971.06160213 0 116.48085947 0 3124.25708595 0 184.99894686 0 -649.30306998 0 19953
0.13550000 0.13551000 11654.62975319 0 35.92649424 0 2729.52138656 0 286.44457974 0 -717.80562969 0 19956
0.13650000 0.13649900 11682.91230541 0 -57.48389919 0 2354.15091705 0 566.39637279 0 -798.78245861 0 19723
0.13750000 0.13749600 11703.32010779 0 92.91006954 0 2011.36638417 0 434.11832151 0 -857.60129427 0 20946
0.13850000 0.13851100 11472.73412324 0 312.64198694 0 1966.53576610 0 -329.42185880 0 -532.40074503 0 20955
0.13950000 0.13949800 11090.63129718 0 179.33023610 0 1939.18487443 0 -60.70910835 0 -208.65868819 0 20506
0.14050000 0.14048300 11031.50412625 0 33.40113961 0 2348.81605132 0 -105.52819157 0 -320.90603778 0 21447
0.14150000 0.14148400 10945.30334357 0 89.38129432 0 2523.81295676 0 -27.08259562 0 -631.91207317 0 21771
0.14250000 0.14249400 11044.73592421 0 77.66976672 0 2580.67752352 0 -179.02633730 0 -478.11044509 0 22470
0.14350000 0.14350900 10918.44046456 0 84.67053024 0 2696.97981472 0 8.79649485 0 -490.98732474 0 22519
0.14450000 0.14449900 10841.86684083 0 211.28508362 0 3525.55877393 0 -467.73906682 0 -501.54614424 0 22218
0.14550000 0.14550500 10493.54780067 0 155.73593283 0 3251.39547657 0 415.39970842 0 265.97688490 0 23559
0.14650000 0.14650700 10444.29179502 0 100.33307492 0 3362.29635485 0 182.51895522 0 87.90239412 0 23044
0.14750000 0.14750500 10472.86271836 0 80.50423302 0 3325.36266902 0 329.76901326 0 1021.72660847 0 23649
0.14850000 0.14849900 10200.84002201 0 35.60961875 0 3060.39397392 0 637.81148082 0 891.08894521 0 23640
0.14950000 0.14949500 10161.65482319 0 102.33126496 0 3111.81276298 0 81.04659255 0 1984.81405867 0 24457
0.15050000 0.15050000 10083.66152625 0 17.90995392 0 2836.08560684 0 267.55072574 0 1507.93695469 0 24591
0.15150000 0.15149900 9922.05169552 0 179.74061038 0 2690.00345184 0 -12.88708356 0 1889.74031843 0 25020
0.15250000 0.15250500 9703.35547409 0 305.53918441 0 2824.67276518 0 -219.78648609 0 1363.11919613 0 25297
0.15350000 0.15350100 9400.64343578 0 114.48555314 0 2710.31143345 0 -217.85107222 0 1255.43476496 0 25452
0.15450000 0.15450400 9306.64554165 0 12.82863295 0 3120.92972687 0 57.62353736 0 1042.34070712 0 26061
0.15550000 0.15549900 9334.49553718 0 5.50813241 0 2594.26423978 0 50.27728306 0 499.87137350 0 26128
0.15650000 0.15649500 9291.36187225 0 40.52900824 0 2556.49871417 0 76.56475077 0 236.70388879 0 26331
0.15750000 0.15749700 9212.35927639 0 189.14372716 0 2405.82480363 0 -275.86357786 0 -318.06225488 0 27345
0.15850000 0.15849900 9068.82809668 0 53.97464448 0 2750.69448154 0 -47.32114634 0 210.90909205 0 26980
0.15950000 0.15949700 8960.56692327 0 69.12799231 0 2450.42250656 0 294.83839759 0 -148.11628053 0 27777
0.16050000 0.16050000 8999.79648688 0 -39.55719756 0 2112.60682991 0 222.12451040 0 -300.61802032 0 28224
0.16150000 0.16150500 8994.92745142 0 63.01929376 0 2311.78254471 0 58.17232979 0 -332.91891320 0 28075
0.16250000 0.16249700 8871.57115896 0 68.61458080 0 1851.43132417 0 99.47605813 0 -102.79487700 0 28590
0.16350000 0.16349900 8856.48713111 0 -52.13783135 0 2002.12741711 0 138.97047952 0 -344.40384764 0 29163
0.16450000 0.16449100 8915.13738057 0 84.20458905 0 1802.56351042 0 -113.31543186 0 -204.17229902 0 28996
0.16550000 0.16550500 8870.69495440 0 34.59399784 0 1984.78078508 0 16.14290442 0 -560.48365570 0 30777
0.16650000 0.16650700 8861.42271375 0 9.24938169 0 2000.05336328 0 -193.91405096 0 -556.97994659 0 29211
0.16750000 0.16749900 8753.66064420 0 74.83818414 0 1926.51872751 0 67.46797286 0 -578.32828247 0 30922
0.16850000 0.16850800 8875.45307789 0 6.58600820 0 1909.48264900 0 16.13281143 0 -1089.26423405 0 30867
0.16950000 0.16949900 8675.03514904 0 45.64548830 0 1733.58735660 0 77.31717757 0 -817.78611546 0 30852
0.17050000 0.17049200 8723.06003182 0 174.48116479 0 1671.97575755 0 130.06757573 0 -821.96084199 0 31257
0.17150000 0.17149500 8386.73057556 0 19.94285941 0 1223.10392586 0 346.52781185 0 -596.80288923 0 32608
0.17250000 0.17250900 8483.97819041 0 44.03704292 0 1461.48702187 0 285.77245321 0 -500.70986799 0 32361
0.17350000 0.17350400 8207.98484555 0 201.07896419 0 1136.08239460 0 -70.17688680 0 -470.56954028 0 32508
0.17450000 0.17449800 8061.30376591 0 196.44173475 0 1114.79838766 0 -232.33395719 0 -560.22633993 0 32791
0.17550000 0.17549800 7860.59746593 0 36.22429288 0 1227.83986696 0 -11.09164060 0 -377.52548908 0 33633
0.17650000 0.17650100 7750.67261298 0 98.88789196 0 1330.43343873 0 245.01230442 0 -324.94877907 0 33984
0.17750000 0.17750300 7866.26506757 0 36.88288816 0 1058.44401597 0 46.04321863 0 -447.83924126 0 34069
0.17850000 0.17849800 7764.38133241 0 29.69069058 0 1179.94807853 0 64.71303045 0 -172.99827176 0 34536
