### header ###
fiducial parameters:
Omega_m = 0.31
Omega_nu = 0
Omega_de = 0.69
Omega_k = 0
H_0 = 100
w_de = -1
zeff = 0
beta = 0
fgrowth = 0
b_1 = 2
gamma = 0.55
Lx = 3500 Ly = 3500 Lz = 3500
nx = 700 ny = 700 nz = 700
xoffset = 1379.75464 yoffset = 22.6059522 zoffset = 368.141391
bins = 400 dk = 0.001
kx_ny = 0.628318531 ky_ny = 0.628318531 kz_ny = 0.628318531
############################
A(data) = 3.35811731 (not used)
A(ran) = 3.35897978 (used)
Ngal = 188021
weighted Ngal = 0
Nran = 9399747
weighted Nran = 0
SN(data) = 6601.95358
SN(ran) = 133.604707
SN(data+ran) = 6735.55828
############################
13 columns: k_central k_mean P_0(k) sigma^{lin}_{P_0(k)} P^img_1(k) sigma^{lin}_{P_1(k)} P_2(k) sigma^{lin}_{P_2(k)} P^img_3(k) sigma^{lin}_{P_3(k)} P_4(k) sigma^{lin}_{P_4(k)} N_modes
### header ###
0.00050000 0 0 0 0 0 0 0 0 0 0 0 0
0.00150000 0.00179520 41709.99889136 0 -33640.48763971 0 -13972.91173931 0 -16325.57643597 0 137678.35507737 0 3
0.00250000 0.00253879 52078.49344644 0 -22278.44366202 0 -30531.51422316 0 -22466.99401014 0 -53937.48896693 0 6
0.00350000 0.00331552 72193.15549583 0 -15681.95427706 0 -17541.39344543 0 -59362.08248234 0 20899.69696938 0 7
0.00450000 0.00420575 67119.82018777 0 29.32335014 0 -23596.52150734 0 -40523.12990593 0 -17250.24952554 0 24
0.00550000 0.00557378 64065.08272429 0 17711.19967071 0 12945.53416600 0 -48343.08922625 0 -5831.59607862 0 45
0.00650000 0.00659388 46250.06945015 0 8952.29289035 0 34126.28206605 0 -9014.78069395 0 17299.05079211 0 40
0.00750000 0.00754703 40476.54687875 0 5832.74956310 0 46491.52480771 0 7899.89357672 0 -20173.44539321 0 57
0.00850000 0.00846663 51426.99653770 0 -7899.12828413 0 44765.40182666 0 18620.01234865 0 -12713.17358993 0 75
0.00950000 0.00948925 55919.15312567 0 -7744.10662438 0 27093.46499315 0 23422.72245116 0 -13069.09010000 0 112
0.01050000 0.01054430 66595.76113197 0 -2613.31891614 0 42419.72458408 0 -1866.62626399 0 9511.79941160 0 105
0.01150000 0.01145670 72322.92250012 0 -1540.46743534 0 19233.24462791 0 823.23854788 0 -7722.06841605 0 144
0.01250000 0.01249090 78988.39913010 0 -1261.52383209 0 37193.55258208 0 -6878.13924026 0 -12082.52813145 0 169
0.01350000 0.01339930 72175.18775677 0 3599.90306708 0 35533.31131090 0 -10909.90024291 0 17002.80492163 0 180
0.01450000 0.01448870 77375.62818185 0 1185.09439392 0 41157.76819531 0 6859.08456390 0 -17574.33430037 0 267
0.01550000 0.01550050 83884.16437501 0 -594.82865617 0 43307.24216388 0 -1888.65338113 0 -31294.25583729 0 238
0.01650000 0.01653350 78593.55251874 0 702.68389177 0 37456.63577369 0 15826.13983739 0 -16791.96126764 0 315
0.01750000 0.01747870 82040.58561828 0 -1022.76696274 0 47575.24566152 0 4786.49477258 0 2443.81215318 0 297
0.01850000 0.01844180 79749.03341680 0 -1646.17763345 0 15632.82027458 0 4707.11507602 0 299.37026067 0 388
0.01950000 0.01947590 82744.21115267 0 35.07347029 0 21467.34442919 0 12249.33973356 0 -16060.82956481 0 399
0.02050000 0.02045430 81844.82599214 0 -2740.94531942 0 7155.30825199 0 6996.63758845 0 -7824.27379593 0 462
0.02150000 0.02154770 84276.90365895 0 -580.19382180 0 6588.49263196 0 195.50231037 0 -4132.70198607 0 571
0.02250000 0.02255340 83133.62307752 0 4878.35206571 0 13264.29516629 0 -16603.63274346 0 -12402.95281129 0 510
0.02350000 0.02348930 76639.50544040 0 3726.98600171 0 13690.19712910 0 -8469.94782627 0 -25456.73705950 0 555
0.02450000 0.02439640 75530.38574558 0 2182.72537702 0 18538.93569895 0 -10383.43439737 0 -29994.36755496 0 592
0.02550000 0.02547300 76089.93663162 0 802.80634487 0 23348.74416752 0 -4332.29916635 0 -25073.64711691 0 837
0.02650000 0.02652900 72628.04132817 0 -898.71636136 0 20577.05405016 0 3546.98696644 0 -41541.96725760 0 723
0.02750000 0.02749970 70858.10811917 0 4188.96762819 0 28267.24636618 0 -6792.52629102 0 -25612.01381677 0 826
0.02850000 0.02848090 72686.27011215 0 1919.55345583 0 29121.93400301 0 -2040.31440820 0 -37988.45866736 0 831
0.02950000 0.02946900 68071.99944578 0 1001.94102223 0 32716.59093393 0 4980.43544242 0 -15451.14646857 0 996
0.03050000 0.03053250 65264.70658621 0 2728.02407498 0 23195.46382570 0 2353.91800191 0 -28301.85090066 0 1041
0.03150000 0.03150510 62299.14234620 0 2961.78214186 0 31814.76571007 0 -2236.82823573 0 -18899.39959977 0 1036
0.03250000 0.03246190 58809.96269826 0 4869.04655147 0 27890.36749388 0 3245.43950381 0 -10355.08529797 0 1059
0.03350000 0.03345080 53870.38722540 0 1847.52722285 0 31792.69422814 0 3881.33109844 0 -10301.65900227 0 1302
0.03450000 0.03451200 51932.97694248 0 -468.62747170 0 22035.21371294 0 10487.63619269 0 -239.44563268 0 1339
0.03550000 0.03553350 50635.52872348 0 -797.96281916 0 19318.75775638 0 6215.67313774 0 -8764.88493551 0 1365
0.03650000 0.03647120 50428.12334054 0 1994.81831832 0 14879.83891377 0 4677.62358334 0 3994.11748021 0 1308
0.03750000 0.03744890 48468.75248767 0 1853.69392835 0 15731.86466333 0 -3897.54642838 0 -4666.73202793 0 1579
0.03850000 0.03847530 45316.96705090 0 1013.74981962 0 14502.51639359 0 -3189.45114161 0 -1011.49054281 0 1662
0.03950000 0.03950240 45555.64960922 0 1133.52032811 0 18955.85379224 0 -945.26833319 0 -5842.82036993 0 1683
0.04050000 0.04050350 44270.84535474 0 791.66856489 0 16874.47977293 0 -2803.93222689 0 -10357.35899334 0 1822
0.04150000 0.04152450 43951.86253051 0 985.43621205 0 21262.82275747 0 -2711.37618836 0 -11785.06222930 0 1887
0.04250000 0.04250150 42369.48146191 0 1340.99225822 0 21243.08042690 0 -473.44992413 0 -14606.10817308 0 1920
0.04350000 0.04349210 41956.33437558 0 739.56212163 0 22600.08837352 0 727.25976597 0 -8610.32910604 0 2005
0.04450000 0.04448520 40987.07467428 0 -9.22927335 0 23074.45886699 0 3466.78652130 0 -8836.16805830 0 2151
0.04550000 0.04548030 41075.58242593 0 -405.13813300 0 19030.16481179 0 4616.21162583 0 -2852.44512234 0 2274
0.04650000 0.04648670 41667.63051902 0 -713.00092318 0 17261.56254643 0 5910.82049842 0 -1716.51800449 0 2311
0.04750000 0.04749250 42857.38321566 0 -687.99581966 0 14167.22950984 0 2775.02856764 0 3612.69121716 0 2568
0.04850000 0.04851840 43267.42476683 0 -235.73895466 0 13767.50277183 0 1986.02299914 0 4337.81149124 0 2493
0.04950000 0.04949480 42413.73533773 0 682.78517533 0 12114.13804276 0 -681.32446469 0 1964.55044185 0 2644
0.05050000 0.05050630 42039.51835270 0 1330.52216830 0 13765.50635638 0 -2701.17228716 0 3000.31296005 0 2829
0.05150000 0.05149060 40440.50048867 0 1022.87898383 0 14811.73896450 0 930.49264061 0 2802.64564804 0 2784
0.05250000 0.05249300 39765.93389028 0 -40.52845368 0 15926.73699371 0 794.74304468 0 3552.01127865 0 3055
0.05350000 0.05348950 39169.89296628 0 1010.21394604 0 15384.93202279 0 -694.35773023 0 -2329.28445349 0 3009
0.05450000 0.05448610 39219.91426452 0 1582.31452142 0 19666.24495677 0 -2545.03041653 0 1746.17586513 0 3336
0.05550000 0.05550870 36473.73390014 0 1987.68667868 0 17872.24385040 0 -1955.85494344 0 -615.71338002 0 3349
0.05650000 0.05647670 35066.26100741 0 1024.07017838 0 22625.70903847 0 -634.91667842 0 430.89300144 0 3324
0.05750000 0.05747970 32948.95150999 0 1231.04522287 0 22477.97429512 0 2668.06506427 0 1657.15791843 0 3639
0.05850000 0.05849280 33149.25852688 0 50.37610563 0 20339.14787562 0 2994.33480490 0 1717.80458334 0 3846
0.05950000 0.05951020 32326.40262529 0 -420.32974546 0 19276.05664813 0 3965.73510722 0 6508.76910829 0 3787
0.06050000 0.06049470 33142.38198477 0 -271.61232207 0 16792.51582749 0 3501.60178852 0 2986.81497337 0 3930
0.06150000 0.06148310 32189.53725495 0 -203.52235488 0 14024.70762906 0 1471.00326885 0 8290.89154274 0 4083
0.06250000 0.06249100 33064.29995825 0 129.70600271 0 12027.84853050 0 794.84175634 0 5214.73697795 0 4303
0.06350000 0.06350600 31879.09465237 0 457.52074707 0 12481.03483780 0 479.78077935 0 5667.15799266 0 4470
0.06450000 0.06451750 31834.06439276 0 1097.07354582 0 11984.03830255 0 45.28990453 0 4771.58820388 0 4479
0.06550000 0.06550280 30781.17706646 0 316.42297598 0 14305.31491185 0 -235.03688189 0 4088.34828948 0 4636
0.06650000 0.06648880 29955.88110155 0 619.20377970 0 12976.92225336 0 -840.41215724 0 3643.68002143 0 4653
0.06750000 0.06749660 29374.48055752 0 433.48612328 0 14073.06524775 0 -445.31377571 0 1764.85344080 0 5220
0.06850000 0.06852730 29012.79662504 0 248.07902038 0 14722.67665301 0 493.78896109 0 5464.97656349 0 5029
0.06950000 0.06949320 29599.41003163 0 -272.99428520 0 14176.65702725 0 1579.14243909 0 1952.99341463 0 5040
0.07050000 0.07048030 29521.21709315 0 295.39628480 0 15612.96703204 0 -94.05745386 0 4149.25005192 0 5475
0.07150000 0.07148790 29360.28382543 0 651.98935788 0 14996.40739369 0 -213.78614854 0 2359.31941483 0 5509
0.07250000 0.07249820 28070.04488444 0 613.70254602 0 15456.80297901 0 -359.20837732 0 4492.73333021 0 5916
0.07350000 0.07351270 27792.87587270 0 541.82382596 0 15106.54297939 0 1400.05288197 0 2348.30585626 0 5721
0.07450000 0.07449140 27443.50316883 0 370.98057376 0 14380.62413913 0 747.87275550 0 1822.09510824 0 6028
0.07550000 0.07549160 26926.09883120 0 -180.53363097 0 13383.63644545 0 2703.31288818 0 4890.71875030 0 6183
0.07650000 0.07648840 26459.71399953 0 -269.90871421 0 10593.70130911 0 1796.23043696 0 2625.91851587 0 6330
0.07750000 0.07749960 26868.75734298 0 -75.15139955 0 8845.19629262 0 1290.16130261 0 3317.68756073 0 6583
0.07850000 0.07848650 26449.95374621 0 318.76321853 0 8598.35061334 0 795.21774791 0 1629.01955177 0 6549
0.07950000 0.07947320 25610.57196117 0 651.14088132 0 8298.51119504 0 -1020.44113874 0 2747.04547774 0 6828
0.08050000 0.08048110 24633.10477412 0 703.63884383 0 7943.53743671 0 -634.35324562 0 -1191.83784166 0 7147
0.08150000 0.08149960 24421.92838423 0 373.21212259 0 8637.84636567 0 -711.13538385 0 1111.77049089 0 7386
0.08250000 0.08250610 23854.05910048 0 150.49312403 0 8041.27306422 0 1114.38801337 0 -1215.02953448 0 7227
0.08350000 0.08350160 23731.94502208 0 144.99965418 0 8490.79927653 0 483.17912209 0 -87.88120993 0 7798
0.08450000 0.08449610 23754.90379976 0 270.43443695 0 7071.80263017 0 1050.06572579 0 332.00943505 0 7371
0.08550000 0.08548940 23051.61100128 0 480.59709144 0 8107.15477409 0 451.64463093 0 -283.03181844 0 8256
0.08650000 0.08650700 22160.65515043 0 410.93106517 0 7241.50903468 0 -182.08972590 0 1751.77691959 0 8037
0.08750000 0.08749060 21895.35371943 0 238.32209442 0 7542.67939661 0 540.64483172 0 166.81936594 0 8155
0.08850000 0.08849210 21308.74031283 0 629.11930978 0 8215.73759221 0 -223.59742136 0 1387.45328224 0 8718
0.08950000 0.08949900 20677.31847057 0 619.03741175 0 7557.02031426 0 -271.33836950 0 942.70515757 0 8571
0.09050000 0.09049190 19799.33932015 0 467.42851331 0 8866.25847562 0 -256.69355305 0 1211.80199617 0 8932
0.09150000 0.09150830 19607.35070098 0 23.27776051 0 8758.41876769 0 23.56158424 0 1142.20473532 0 9285
0.09250000 0.09250820 19837.27121371 0 126.50397415 0 9256.65751700 0 700.82057069 0 1241.27130646 0 9204
0.09350000 0.09350330 19690.09103021 0 -252.23045540 0 7863.38135637 0 539.39374470 0 777.85780645 0 9349
0.09450000 0.09448040 19993.43526674 0 148.86604544 0 9381.31147950 0 89.23977065 0 1213.77622923 0 9564
0.09550000 0.09549270 19648.60995362 0 607.93734184 0 8729.85893555 0 -1119.91142945 0 1151.03332809 0 10155
0.09650000 0.09649430 19217.05148037 0 177.96269151 0 9778.87543411 0 6.74101877 0 589.45608037 0 9913
0.09750000 0.09749140 19000.55131594 0 -27.30941060 0 8857.28569729 0 585.14825947 0 405.45866860 0 10476
0.09850000 0.09850240 19294.02438719 0 67.95287999 0 9960.28305140 0 421.71503596 0 -535.31994807 0 10575
0.09950000 0.09950330 18720.05494512 0 201.73999953 0 7755.85220195 0 551.56411512 0 767.32116935 0 10882
0.10050000 0.10051200 18441.88772566 0 348.75603332 0 8180.95559858 0 675.60695266 0 -321.81218857 0 10875
0.10150000 0.10150300 17908.51206442 0 183.47057992 0 7544.59817368 0 330.64410870 0 152.16013093 0 11118
0.10250000 0.10250800 17607.05333136 0 217.17672744 0 7323.00714985 0 391.05785848 0 -1088.86827831 0 11575
0.10350000 0.10349800 17417.39386355 0 346.86387512 0 6999.45475248 0 -4.38961847 0 -255.23838801 0 11364
0.10450000 0.10450100 16976.07513698 0 -7.61716788 0 6576.03721778 0 -127.71956934 0 -874.36563846 0 12093
0.10550000 0.10551000 17127.35906335 0 -95.22369322 0 6041.39716009 0 1198.18200632 0 -1369.96246465 0 12067
0.10650000 0.10649700 17003.24856950 0 101.00043224 0 6601.32514682 0 -19.57429893 0 -473.44326941 0 12054
0.10750000 0.10749900 17031.08747384 0 132.10391949 0 5110.97883050 0 -11.45021899 0 -1385.98924424 0 12807
0.10850000 0.10850100 16692.80596692 0 238.95762001 0 6457.05085692 0 129.70267535 0 -239.00863952 0 12736
0.10950000 0.10950300 16453.12520087 0 484.32706098 0 6243.52313328 0 -811.33658444 0 -1147.10704437 0 12933
0.11050000 0.11050200 15988.62587268 0 412.79105890 0 6858.51891286 0 118.46174724 0 -366.23908707 0 13428
0.11150000 0.11150900 15477.87625321 0 214.67344429 0 7146.20237930 0 211.07213264 0 18.05059030 0 13453
0.11250000 0.11250000 15289.10408116 0 -17.70332492 0 6357.42972593 0 618.52499845 0 -52.85254808 0 13668
0.11350000 0.11349100 15442.71715889 0 -38.75341852 0 6241.59326501 0 1232.44271369 0 1038.82812504 0 13791
0.11450000 0.11448600 15299.52980629 0 38.98211900 0 5325.46039708 0 296.36787365 0 -172.08324801 0 14205
0.11550000 0.11549300 15208.36016737 0 308.26983710 0 6132.18969831 0 -362.39931468 0 1258.70666806 0 14776
0.11650000 0.11649800 14635.72166894 0 314.96337446 0 5409.07693088 0 3.89356469 0 340.02504308 0 14553
0.11750000 0.11747300 14360.32724871 0 106.45597020 0 5976.85748505 0 -98.27177597 0 1117.54900450 0 14568
0.11850000 0.11849100 14429.75814161 0 131.60481563 0 5469.31322150 0 10.41686326 0 -829.42299930 0 16015
0.11950000 0.11950300 14376.52039626 0 183.17444496 0 5863.73836737 0 27.52735262 0 -285.44969938 0 15270
0.12050000 0.12050700 13848.91215743 0 56.05568576 0 5788.56223446 0 -188.12111880 0 -717.26770664 0 15999
0.12150000 0.12150000 14058.86851566 0 44.68133055 0 5858.18167770 0 660.00163856 0 -936.89337037 0 15670
0.12250000 0.12250700 13895.71700855 0 90.64269615 0 4979.89197377 0 -87.33263933 0 -1201.36517984 0 16887
0.12350000 0.12352200 13571.74314569 0 260.20502600 0 5329.63068714 0 262.09274772 0 -952.91904084 0 16407
0.12450000 0.12449800 13460.72026424 0 63.38707785 0 5030.47892305 0 80.02875340 0 -468.52210532 0 16306
0.12550000 0.12549900 13156.48873195 0 168.89009241 0 4963.86519418 0 125.06322767 0 -532.88543033 0 17523
0.12650000 0.12650100 13340.26986538 0 237.49247289 0 5488.21262110 0 -1.25073210 0 -638.07101483 0 17154
0.12750000 0.12750600 12696.20405860 0 241.66165383 0 5611.18072167 0 -453.64881022 0 -1230.08028874 0 18007
0.12850000 0.12850300 12647.95735188 0 252.18054501 0 6005.42840839 0 -329.65144658 0 -61.76487939 0 17496
0.12950000 0.12949900 12414.37674415 0 -76.33693759 0 5925.47196959 0 515.90591693 0 -319.77362657 0 18405
0.13050000 0.13049000 12834.17854864 0 -212.21563505 0 5787.37547639 0 959.92756819 0 14.45737522 0 18100
0.13150000 0.13148800 13103.02916266 0 -193.04561024 0 4893.52482313 0 725.33322506 0 416.45559037 0 19059
0.13250000 0.13249300 13258.30591994 0 -61.07156867 0 5122.09220984 0 183.24542862 0 341.77856132 0 18957
0.13350000 0.13349100 13149.94492575 0 139.65369725 0 4748.99543570 0 73.97063072 0 1231.10067886 0 19468
0.13450000 0.13450700 13171.57275980 0 90.86784745 0 4708.54584043 0 43.82597745 0 1084.11570042 0 19953
0.13550000 0.13551000 12826.96927062 0 247.30152747 0 5150.35257966 0 -76.28580717 0 948.02005915 0 19956
0.13650000 0.13649900 12455.19234892 0 332.09150990 0 4986.53560074 0 -10.09412052 0 1475.01828214 0 19723
0.13750000 0.13749600 12131.21848606 0 257.57973969 0 5022.14943414 0 459.06131433 0 1226.14291382 0 20946
0.13850000 0.13851100 11929.91326145 0 81.59416494 0 4802.88756167 0 342.83111591 0 1797.28410067 0 20955
0.13950000 0.13949800 11795.15521853 0 92.47462915 0 4350.38890858 0 473.23697315 0 1442.03306242 0 20506
0.14050000 0.14048300 11698.43998114 0 108.83957933 0 4387.93261025 0 298.25781361 0 2401.21086570 0 21447
0.14150000 0.14148400 11283.51830330 0 158.28358077 0 3775.15507005 0 34.33069283 0 1621.00061638 0 21771
0.14250000 0.14249400 11346.18356606 0 42.82510783 0 3853.92475078 0 -84.16687899 0 1521.78985967 0 22470
0.14350000 0.14350900 11254.45936730 0 108.99840527 0 3732.63142095 0 -118.23105035 0 697.20373136 0 22519
0.14450000 0.14449900 10892.70888764 0 287.91305422 0 3890.25951198 0 -280.26567392 0 621.88452201 0 22218
0.14550000 0.14550500 10812.79681363 0 104.71265586 0 4089.95651304 0 -230.03031559 0 309.80153140 0 23559
0.14650000 0.14650700 10737.36558318 0 -84.61551790 0 3844.86324287 0 544.31158143 0 -215.05276323 0 23044
0.14750000 0.14750500 10790.42586938 0 -10.97697980 0 3665.49640583 0 385.42131219 0 122.80616909 0 23649
0.14850000 0.14849900 10789.98222150 0 83.03391322 0 3417.53051566 0 -236.37337112 0 -180.44157403 0 23640
0.14950000 0.14949500 10484.47520156 0 291.41898158 0 3247.51355764 0 -192.47441360 0 -426.32453742 0 24457
0.15050000 0.15050000 10384.22187235 0 235.32081653 0 3871.75939547 0 -366.53411291 0 -433.38186603 0 24591
0.15150000 0.15149900 9949.48022557 0 192.36350163 0 4036.51912614 0 -101.44319282 0 -584.84657892 0 25020
0.15250000 0.15250500 9936.78080506 0 135.94258275 0 3904.55606485 0 118.63920640 0 -918.38216266 0 25297
0.15350000 0.15350100 9620.78151281 0 76.56341983 0 4338.25513912 0 233.91999836 0 -693.35730426 0 25452
0.15450000 0.15450400 9591.51184407 0 -58.61353760 0 3464.53500832 0 493.83110764 0 183.94528315 0 26061
0.15550000 0.15549900 9667.44217837 0 0.85715765 0 3420.34767968 0 801.27686881 0 211.52465348 0 26128
0.15650000 0.15649500 9642.85299474 0 12.67113795 0 2969.43506775 0 313.09007129 0 902.70142842 0 26331
0.15750000 0.15749700 9627.08131268 0 40.02990438 0 2838.18184307 0 206.06334810 0 867.00219280 0 27345
0.15850000 0.15849900 9569.60673009 0 151.53015095 0 2803.07820472 0 152.34424480 0 1398.76630313 0 26980
0.15950000 0.15949700 9317.60364423 0 81.65405740 0 2823.70783105 0 -137.22694336 0 1264.92882955 0 27777
0.16050000 0.16050000 9365.02960238 0 85.03787068 0 2981.25828370 0 -45.91023518 0 1640.07747513 0 28224
0.16150000 0.16150500 9169.95763046 0 81.23436651 0 3184.87047727 0 227.56474250 0 1137.34679106 0 28075
0.16250000 0.16249700 9060.01059511 0 150.15484252 0 2978.67403481 0 -230.32755966 0 977.45942321 0 28590
0.16350000 0.16349900 9120.93453995 0 89.48455336 0 3458.01338452 0 -202.69606071 0 1811.62501833 0 29163
0.16450000 0.16449100 8918.89729634 0 -20.05443685 0 3313.49508828 0 238.92545554 0 998.38740273 0 28996
0.16550000 0.16550500 9135.92983822 0 -36.84994730 0 3089.18672120 0 164.74863947 0 1107.58689140 0 30777
0.16650000 0.16650700 9031.67258691 0 60.47863328 0 3207.40778947 0 -97.59110921 0 651.12868100 0 29211
0.16750000 0.16749900 9128.55419225 0 100.49722464 0 3032.86562310 0 85.02178845 0 1087.59389979 0 30922
0.16850000 0.16850800 8837.89828502 0 8.66993320 0 3005.51473142 0 177.23289075 0 911.26826894 0 30867
0.16950000 0.16949900 8883.00618301 0 94.98190513 0 2524.71134372 0 240.50706022 0 812.00316537 0 30852
0.17050000 0.17049200 8805.80036106 0 102.17765189 0 2646.02685594 0 150.08053150 0 857.10662688 0 31257
0.17150000 0.17149500 8570.81117131 0 32.01030351 0 2162.77231371 0 296.06397486 0 715.97336396 0 32608
0.17250000 0.17250900 8516.35339430 0 62.58950988 0 2109.51238596 0 190.41366921 0 964.46386774 0 32361
0.17350000 0.17350400 8370.07159775 0 114.86930855 0 1662.95861443 0 -56.76607692 0 48.14056397 0 32508
0.17450000 0.17449800 8221.27209949 0 146.52469376 0 1855.20233114 0 -119.12500082 0 459.30421154 0 32791
0.17550000 0.17549800 7957.32379452 0 203.80961688 0 1755.51465296 0 -204.83998908 0 -36.99901299 0 33633
0.17650000 0.17650100 7920.70066219 0 58.86930060 0 1778.80616656 0 44.84548027 0 -49.22705762 0 33984
0.17750000 0.17750300 7845.13633739 0 0.57773379 0 1714.57704503 0 21.26892292 0 -265.61863923 0 34069
