### header ###
fiducial parameters:
Omega_m = 0.31
Omega_nu = 0
Omega_de = 0.69
Omega_k = 0
H_0 = 100
w_de = -1
zeff = 0
beta = 0
fgrowth = 0
b_1 = 2
gamma = 0.55
Lx = 3500 Ly = 3500 Lz = 3500
nx = 700 ny = 700 nz = 700
xoffset = 1379.75464 yoffset = 22.6059522 zoffset = 368.141391
bins = 400 dk = 0.001
kx_ny = 0.628318531 ky_ny = 0.628318531 kz_ny = 0.628318531
############################
A(data) = 3.31084886 (not used)
A(ran) = 3.30814957 (used)
Ngal = 185851
weighted Ngal = 0
Nran = 9399747
weighted Nran = 0
SN(data) = 6671.73197
SN(ran) = 131.582916
SN(data+ran) = 6803.31489
############################
13 columns: k_central k_mean P_0(k) sigma^{lin}_{P_0(k)} P^img_1(k) sigma^{lin}_{P_1(k)} P_2(k) sigma^{lin}_{P_2(k)} P^img_3(k) sigma^{lin}_{P_3(k)} P_4(k) sigma^{lin}_{P_4(k)} N_modes
### header ###
0.00050000 0 0 0 0 0 0 0 0 0 0 0 0
0.00150000 0.00179520 24451.54188008 0 -22706.45295225 0 -36622.46685121 0 30728.82661687 0 -41571.69166542 0 3
0.00250000 0.00253879 51293.23670251 0 -30460.30873875 0 -28153.22886155 0 -21113.20251064 0 68655.39640525 0 6
0.00350000 0.00331552 65083.25460414 0 -20807.30729880 0 -47814.92642757 0 -27087.03209892 0 -66532.98495724 0 7
0.00450000 0.00420575 79878.57859716 0 -7815.92212462 0 -42179.82199409 0 -36147.09815001 0 -120.28070354 0 24
0.00550000 0.00557378 79207.11753391 0 -3951.09472724 0 -42971.84436816 0 -14470.24101047 0 4184.06531914 0 45
0.00650000 0.00659388 74257.78180774 0 3561.30570170 0 -18453.42257048 0 -19596.70315191 0 1490.31304274 0 40
0.00750000 0.00754703 82820.18585177 0 -3598.71630900 0 -47960.11019563 0 -12256.43809960 0 -9824.70425990 0 57
0.00850000 0.00846663 76809.97713750 0 -7027.52657195 0 -29386.45905022 0 -6446.73604376 0 -12778.83347586 0 75
0.00950000 0.00948925 75526.72565059 0 5525.62322841 0 -39792.99641083 0 -29436.03670058 0 -9938.20047827 0 112
0.01050000 0.01054430 71481.98794751 0 11337.97608032 0 2158.89039477 0 -34957.01271747 0 -12682.56188635 0 105
0.01150000 0.01145670 56780.27365673 0 10935.86473496 0 10211.87576297 0 -13917.01210669 0 -14953.26263756 0 144
0.01250000 0.01249090 55264.43976982 0 -2202.16824527 0 18551.24692757 0 6445.83765681 0 -2381.93436540 0 169
0.01350000 0.01339930 64206.93913326 0 -7077.34822865 0 28573.14157801 0 14060.75401914 0 969.92850048 0 180
0.01450000 0.01448870 72978.19041582 0 -5490.84123478 0 8526.08037402 0 18065.78523714 0 12970.82209504 0 267
0.01550000 0.01550050 69937.09512459 0 1029.05567141 0 9452.68333186 0 2884.68723187 0 15493.40392894 0 238
0.01650000 0.01653350 76171.23510525 0 891.43831792 0 12816.09989761 0 -4083.10215332 0 27644.47565754 0 315
0.01750000 0.01747870 72839.66136594 0 1468.59647911 0 27499.40280145 0 6888.18786469 0 25939.64777463 0 297
0.01850000 0.01844180 71999.39228514 0 5467.60517717 0 32708.05071228 0 1376.31772050 0 33338.91799469 0 388
0.01950000 0.01947590 72778.77069469 0 -3402.04720472 0 23578.11012041 0 1947.84709924 0 22145.79294652 0 399
0.02050000 0.02045430 70657.46836638 0 178.27102679 0 37412.82554574 0 4884.87368951 0 24527.73840312 0 462
0.02150000 0.02154770 74463.41259916 0 4288.45566482 0 35809.37120294 0 1538.74829981 0 22375.49163531 0 571
0.02250000 0.02255340 67977.61335975 0 1989.90491807 0 35823.45702306 0 -709.59259835 0 17460.42770771 0 510
0.02350000 0.02348930 65607.64639585 0 3429.39809639 0 32565.52883149 0 10773.16796693 0 28096.77466908 0 555
0.02450000 0.02439640 63373.76841851 0 -1228.16151167 0 28796.85102046 0 9715.58906433 0 28789.19809456 0 592
0.02550000 0.02547300 66618.16534980 0 -2153.65534982 0 19681.88354447 0 13452.62369047 0 27225.45023683 0 837
0.02650000 0.02652900 66627.03830736 0 -452.23246437 0 13322.52395027 0 2574.57736520 0 16337.33310473 0 723
0.02750000 0.02749970 63424.23336462 0 5707.46340237 0 17103.51298992 0 -8738.14405967 0 13873.31279071 0 826
0.02850000 0.02848090 57583.71996366 0 5296.43473467 0 20217.92109298 0 -10154.55645714 0 1254.22582450 0 831
0.02950000 0.02946900 53499.83033535 0 1442.83162860 0 31182.12383614 0 -6530.57440149 0 3034.13001955 0 996
0.03050000 0.03053250 53370.72880288 0 -1289.71765473 0 26019.83712856 0 5581.80014095 0 -7538.33164740 0 1041
0.03150000 0.03150510 56265.08755849 0 -2840.58863280 0 20699.83360038 0 9794.62493378 0 -7435.41643092 0 1036
0.03250000 0.03246190 57581.39081230 0 -260.83611511 0 17704.43404057 0 3885.86739799 0 -1574.42868039 0 1059
0.03350000 0.03345080 58535.23374985 0 1883.61797772 0 14972.00676041 0 5220.14948206 0 713.48449936 0 1302
0.03450000 0.03451200 54330.11733890 0 2221.76639027 0 14826.37934448 0 992.80520331 0 9556.49693530 0 1339
0.03550000 0.03553350 52460.14153343 0 1953.81416320 0 16790.07576416 0 1969.75221322 0 13033.93100567 0 1365
0.03650000 0.03647120 48944.12118887 0 1230.79012534 0 15598.10482813 0 2051.56088191 0 14090.70025090 0 1308
0.03750000 0.03744890 49765.42432289 0 489.51219555 0 18814.88467903 0 3397.54417876 0 13585.05258203 0 1579
0.03850000 0.03847530 47335.12124759 0 987.03667177 0 18752.10850430 0 -1586.40717310 0 13281.59743353 0 1662
0.03950000 0.03950240 45930.08841819 0 1569.62619211 0 21200.37931865 0 -188.62465914 0 7927.47738353 0 1683
0.04050000 0.04050350 45319.96167407 0 1190.26289170 0 18483.36880224 0 -169.98479355 0 8030.68097113 0 1822
0.04150000 0.04152450 42924.37404522 0 -709.26208068 0 17572.11606098 0 461.10542193 0 4690.45609821 0 1887
0.04250000 0.04250150 43972.49215683 0 1114.27710140 0 17998.57258364 0 2442.73630707 0 2434.65082450 0 1920
0.04350000 0.04349210 43338.96298715 0 654.48820456 0 18139.87443276 0 -936.13140514 0 5186.76497925 0 2005
0.04450000 0.04448520 41966.76010072 0 827.08608410 0 14140.61063717 0 2720.31569310 0 1222.02807976 0 2151
0.04550000 0.04548030 41394.78707410 0 -506.39854290 0 12820.98002427 0 2210.27591024 0 4441.94673938 0 2274
0.04650000 0.04648670 40779.22564347 0 254.78253982 0 11512.21878438 0 2337.59176000 0 1186.29224319 0 2311
0.04750000 0.04749250 40070.27633454 0 1564.29132638 0 10753.17053883 0 -1446.71354753 0 356.43446897 0 2568
0.04850000 0.04851840 37354.37493783 0 1430.07675211 0 10035.31499875 0 -1059.70175770 0 -57.53081495 0 2493
0.04950000 0.04949480 35902.86999321 0 1484.13524604 0 13140.62832032 0 -3191.93556973 0 -5568.26888067 0 2644
0.05050000 0.05050630 35019.56706826 0 692.55873808 0 14627.62509516 0 -1386.00033544 0 -5220.62640353 0 2829
0.05150000 0.05149060 34165.21216734 0 550.37070232 0 13515.39986520 0 121.90667302 0 -7244.27074272 0 2784
0.05250000 0.05249300 33931.40973567 0 98.53164271 0 16643.33922853 0 -1548.27563799 0 -8161.01362647 0 3055
0.05350000 0.05348950 33963.35238288 0 351.30700862 0 14243.31512091 0 885.65425871 0 -8799.05691331 0 3009
0.05450000 0.05448610 33657.56808302 0 -786.40801018 0 14476.78481667 0 2465.70617595 0 -4276.69899605 0 3336
0.05550000 0.05550870 35412.41726416 0 -606.58088846 0 13084.95051164 0 1692.18391839 0 -5458.34402772 0 3349
0.05650000 0.05647670 36234.71860590 0 -1139.60939523 0 9703.21128853 0 5608.04191293 0 -4098.09745160 0 3324
0.05750000 0.05747970 36192.23932159 0 -278.82603656 0 9734.47737273 0 1155.33671251 0 -2533.82830761 0 3639
0.05850000 0.05849280 36239.15508468 0 904.35179852 0 7830.68450776 0 -1682.40148268 0 -365.20649663 0 3846
0.05950000 0.05951020 35462.88221028 0 1238.87560792 0 9212.63655631 0 -292.72996105 0 1263.05441727 0 3787
0.06050000 0.06049470 34090.79023581 0 1083.81291075 0 11561.68552277 0 -2469.95410438 0 -1490.71232583 0 3930
0.06150000 0.06148310 32330.28454422 0 886.88538157 0 9797.83028970 0 1189.70833185 0 353.73930811 0 4083
0.06250000 0.06249100 31812.65838265 0 782.55714660 0 12939.87765555 0 54.80925705 0 359.96812431 0 4303
0.06350000 0.06350600 31164.04518512 0 -198.84297889 0 10619.55488920 0 1806.27906140 0 870.38389875 0 4470
0.06450000 0.06451750 31373.77971941 0 105.89198283 0 11325.88667565 0 2054.61096107 0 1076.26646034 0 4479
0.06550000 0.06550280 31438.99595746 0 242.71642666 0 11240.15172324 0 -413.44433040 0 3123.70252610 0 4636
0.06650000 0.06648880 30817.77801639 0 482.49368612 0 12415.92951172 0 39.26882644 0 2628.95750383 0 4653
0.06750000 0.06749660 30724.05740218 0 605.56493482 0 11152.08761947 0 -369.40007820 0 1982.27417457 0 5220
0.06850000 0.06852730 29433.04207741 0 619.05737590 0 14075.06166320 0 -646.12876942 0 2756.72809268 0 5029
0.06950000 0.06949320 29604.84471813 0 283.71836353 0 13468.92774998 0 -598.96678175 0 2025.36347471 0 5040
0.07050000 0.07048030 28949.24406653 0 126.10690930 0 12354.15154472 0 1838.46571494 0 1432.20626192 0 5475
0.07150000 0.07148790 29148.55287568 0 -28.15400525 0 12929.11919451 0 514.80899755 0 -50.32564068 0 5509
0.07250000 0.07249820 28449.36382007 0 266.05895975 0 10382.78001675 0 1408.65965080 0 730.58490682 0 5916
0.07350000 0.07351270 28560.49761349 0 902.90106996 0 11628.67635233 0 -119.44886377 0 987.08990952 0 5721
0.07450000 0.07449140 26164.35542480 0 998.18110647 0 10525.49044788 0 -867.54344321 0 -918.79475519 0 6028
0.07550000 0.07549160 25669.35530500 0 332.52739394 0 10209.85716513 0 2524.37860781 0 2729.79866649 0 6183
0.07650000 0.07648840 24900.40262058 0 -264.32207831 0 8349.27560347 0 1947.75836967 0 -926.43437165 0 6330
0.07750000 0.07749960 24886.64953636 0 287.68235732 0 6939.79520409 0 930.19206917 0 2374.63635781 0 6583
0.07850000 0.07848650 24615.35885901 0 244.94908460 0 5660.33690654 0 1346.50458311 0 -477.61355946 0 6549
0.07950000 0.07947320 23867.47944879 0 258.24521150 0 4351.94167615 0 -32.00553430 0 2242.30728702 0 6828
0.08050000 0.08048110 23499.25171011 0 247.86385116 0 4439.26266972 0 312.42570860 0 -1907.95206382 0 7147
0.08150000 0.08149960 22583.89522597 0 720.49746319 0 4373.64714858 0 -627.32475411 0 767.91454839 0 7386
0.08250000 0.08250610 22426.17840537 0 547.10656306 0 4235.48410819 0 -993.07250115 0 -2884.13267202 0 7227
0.08350000 0.08350160 21198.05016729 0 521.54689969 0 5456.04814995 0 71.26548778 0 -1170.85329704 0 7798
0.08450000 0.08449610 20978.44446772 0 132.67511613 0 4881.67942479 0 -153.94914100 0 -1405.94230755 0 7371
0.08550000 0.08548940 20791.77962308 0 -148.10075285 0 4413.40908964 0 744.44224828 0 -1198.48146863 0 8256
0.08650000 0.08650700 21001.62506934 0 77.56118391 0 4931.31253113 0 740.40727083 0 -1264.34099611 0 8037
0.08750000 0.08749060 21256.27895127 0 262.84140352 0 4828.63022979 0 -508.62787349 0 -619.78274018 0 8155
0.08850000 0.08849210 20389.72373370 0 239.16169803 0 5796.69208182 0 -681.86682422 0 -827.81921222 0 8718
0.08950000 0.08949900 20549.65879370 0 414.75974636 0 6054.55131967 0 -1141.92745540 0 -944.96110703 0 8571
0.09050000 0.09049190 20320.18192884 0 86.71818702 0 6847.37225992 0 665.16569986 0 -555.91297344 0 8932
0.09150000 0.09150830 20277.81355650 0 -208.05421795 0 6193.35764948 0 728.45539700 0 -954.28991278 0 9285
0.09250000 0.09250820 20304.43242917 0 239.36023046 0 6105.82592316 0 833.42137580 0 260.41797699 0 9204
0.09350000 0.09350330 20159.80322097 0 428.30431607 0 5460.97264140 0 519.42182636 0 55.31845390 0 9349
0.09450000 0.09448040 19241.34120168 0 489.44010277 0 5870.62600068 0 -246.17466186 0 1064.09387169 0 9564
0.09550000 0.09549270 18493.57270344 0 400.70165423 0 5742.91086782 0 192.34353748 0 1475.94994269 0 10155
0.09650000 0.09649430 17938.45829618 0 446.89094392 0 6719.47966791 0 -345.70040856 0 1006.40190165 0 9913
0.09750000 0.09749140 17886.77331840 0 81.30246646 0 5422.40854961 0 280.72928596 0 605.46955052 0 10476
0.09850000 0.09850240 17735.26756809 0 85.66474513 0 5733.72735675 0 1.20869646 0 879.50197176 0 10575
0.09950000 0.09950330 17393.65870208 0 -159.71434517 0 5714.88341313 0 693.24195581 0 -576.37845005 0 10882
0.10050000 0.10051200 17740.59134262 0 159.78643795 0 5498.32779272 0 -99.96839637 0 -503.29855336 0 10875
0.10150000 0.10150300 17503.68337581 0 98.44224767 0 5389.29023552 0 -323.58123449 0 -202.45316349 0 11118
0.10250000 0.10250800 17312.58205239 0 442.37460852 0 5781.45277722 0 -482.12656750 0 -819.21909811 0 11575
0.10350000 0.10349800 16956.66554232 0 364.76395787 0 5871.29147250 0 86.54915718 0 -670.07466363 0 11364
0.10450000 0.10450100 16371.27216739 0 260.05529484 0 5991.49786502 0 337.13356804 0 -534.84191748 0 12093
0.10550000 0.10551000 15989.62408041 0 262.91460542 0 6414.76012296 0 493.85661739 0 288.09384073 0 12067
0.10650000 0.10649700 16038.42534698 0 38.90337150 0 5259.48995763 0 1009.65051323 0 -88.00487678 0 12054
0.10750000 0.10749900 15622.72728536 0 35.82523161 0 5170.56074050 0 582.54293731 0 330.47663163 0 12807
0.10850000 0.10850100 15086.02426503 0 350.58829905 0 4824.88140522 0 -353.06939981 0 1118.05919956 0 12736
0.10950000 0.10950300 15055.41256146 0 343.42005847 0 4797.81888467 0 245.52360860 0 1087.30663778 0 12933
0.11050000 0.11050200 14748.51914190 0 107.89228020 0 4587.48542574 0 405.87237024 0 162.81433472 0 13428
0.11150000 0.11150900 14465.36088381 0 276.46582985 0 4902.61960463 0 22.89899613 0 1371.53741462 0 13453
0.11250000 0.11250000 14070.07062458 0 172.87848683 0 4393.00128725 0 302.91611633 0 1280.54523485 0 13668
0.11350000 0.11349100 13982.45016869 0 -102.63438738 0 4421.11747152 0 975.64268515 0 2598.65635377 0 13791
0.11450000 0.11448600 14015.16919968 0 -138.62997978 0 3811.96675273 0 975.63935779 0 2045.50508837 0 14205
0.11550000 0.11549300 14190.96467131 0 45.78845383 0 3361.20941755 0 -35.76312091 0 2477.40738873 0 14776
0.11650000 0.11649800 14054.54294885 0 198.16530675 0 3892.35574821 0 -553.96535925 0 2460.58204296 0 14553
0.11750000 0.11747300 14047.00093492 0 292.75436169 0 4103.62086768 0 -753.72336189 0 1851.07640587 0 14568
0.11850000 0.11849100 13725.57804736 0 90.70336499 0 4528.91281466 0 -174.94921330 0 1401.63892313 0 16015
0.11950000 0.11950300 13716.37235390 0 150.23691738 0 4720.12505004 0 -407.27097018 0 354.75637087 0 15270
0.12050000 0.12050700 13376.09443153 0 271.43929939 0 4803.51975990 0 -74.15463368 0 133.03114356 0 15999
0.12150000 0.12150000 13123.88061292 0 145.20040485 0 4854.46162748 0 -52.09468659 0 84.55662365 0 15670
0.12250000 0.12250700 13020.28883343 0 -46.31761484 0 4609.43490450 0 463.90262180 0 -401.73979026 0 16887
0.12350000 0.12352200 13241.00365270 0 148.57323784 0 4677.64576573 0 -79.11971890 0 -3.93477958 0 16407
0.12450000 0.12449800 12980.02778850 0 77.34845475 0 4571.89120283 0 567.86041079 0 241.72709189 0 16306
0.12550000 0.12549900 12772.95514148 0 50.44509287 0 4075.07212673 0 -229.40477208 0 -420.88541443 0 17523
0.12650000 0.12650100 12789.59193690 0 -147.43749927 0 3593.96927671 0 320.70417800 0 -680.55473562 0 17154
0.12750000 0.12750600 13118.33501445 0 -25.88430270 0 4002.39151313 0 119.59859493 0 -172.93172458 0 18007
0.12850000 0.12850300 12971.04391898 0 -94.75209553 0 3023.59338245 0 343.09397728 0 -1273.82396950 0 17496
0.12950000 0.12949900 13045.57676247 0 176.52416327 0 3434.67750614 0 -270.68287976 0 -520.06400666 0 18405
0.13050000 0.13049000 12847.26616103 0 106.60359403 0 3004.52761489 0 184.10388726 0 -986.79821104 0 18100
0.13150000 0.13148800 12800.57222188 0 85.80050138 0 3423.61958278 0 690.12643859 0 467.77566777 0 19059
0.13250000 0.13249300 12600.59794091 0 44.09682447 0 2760.65437640 0 405.52188842 0 -161.40242535 0 18957
0.13350000 0.13349100 12542.14733299 0 121.39647796 0 2535.76926708 0 580.03743592 0 716.69318264 0 19468
0.13450000 0.13450700 12319.10336236 0 257.98124102 0 2632.55105165 0 -12.36224812 0 1086.80309744 0 19953
0.13550000 0.13551000 11834.30714375 0 354.26724908 0 2655.68728848 0 -481.05626700 0 1441.63377933 0 19956
0.13650000 0.13649900 11541.72136826 0 314.25242873 0 3131.53291115 0 -249.30127028 0 1134.89563653 0 19723
0.13750000 0.13749600 11363.59674527 0 173.88667663 0 3260.93390594 0 -72.98284872 0 438.42059681 0 20946
0.13850000 0.13851100 10961.68504146 0 -6.82646535 0 2913.16942563 0 363.62156459 0 685.64226766 0 20955
0.13950000 0.13949800 10924.55171408 0 151.87841453 0 3110.41527216 0 110.66896136 0 307.83062570 0 20506
0.14050000 0.14048300 10911.24227774 0 54.97351767 0 2361.30473908 0 199.24448022 0 597.79000576 0 21447
0.14150000 0.14148400 10848.86538610 0 26.52204653 0 2319.57965616 0 395.03516170 0 368.70133279 0 21771
0.14250000 0.14249400 10610.58211087 0 -110.87991592 0 1860.71465602 0 343.74724878 0 53.06938098 0 22470
0.14350000 0.14350900 10843.99635064 0 50.05279724 0 1651.49031679 0 47.38791535 0 176.63174788 0 22519
0.14450000 0.14449900 10659.31683026 0 63.59448324 0 1305.75552552 0 8.73329721 0 -166.46222940 0 22218
0.14550000 0.14550500 10624.55701902 0 247.48785958 0 1760.29495885 0 -410.38870564 0 8.94887680 0 23559
0.14650000 0.14650700 10361.42946262 0 57.17545300 0 1218.34580237 0 273.21500002 0 -791.69185640 0 23044
0.14750000 0.14750500 10231.97301184 0 209.83768242 0 2054.98806176 0 -125.06322767 0 -33.39581584 0 23649
0.14850000 0.14849900 9805.51648918 0 288.58739899 0 1684.16498300 0 -391.17764341 0 -949.60166383 0 23640
0.14950000 0.14949500 9692.67465143 0 167.22752199 0 2162.35084822 0 243.69356111 0 292.08223515 0 24457
0.15050000 0.15050000 9226.99965636 0 166.25482401 0 2300.36970305 0 -300.98846630 0 -369.44333387 0 24591
0.15150000 0.15149900 9492.94437679 0 56.30679046 0 2370.65461811 0 310.68217243 0 468.36571945 0 25020
0.15250000 0.15250500 9233.37709461 0 -96.03024506 0 2452.51874278 0 398.38581230 0 198.61893671 0 25297
0.15350000 0.15350100 9531.10918549 0 6.87536644 0 1662.92534084 0 51.76860540 0 619.72062948 0 25452
0.15450000 0.15450400 9470.63997972 0 -41.26124906 0 2100.25123651 0 225.20564491 0 290.77236479 0 26061
0.15550000 0.15549900 9267.31615727 0 255.59441543 0 2144.86003064 0 -353.99884212 0 532.55047619 0 26128
0.15650000 0.15649500 9211.63834859 0 256.78782822 0 2099.66340307 0 -187.45121050 0 532.59595009 0 26331
0.15750000 0.15749700 8946.40346477 0 135.23607351 0 2435.02792519 0 71.54188041 0 305.95843165 0 27345
0.15850000 0.15849900 8803.65976005 0 55.53794869 0 2421.50775611 0 242.73306345 0 575.55881059 0 26980
0.15950000 0.15949700 8599.94774570 0 148.90819199 0 2256.03818884 0 72.58190195 0 401.63331477 0 27777
0.16050000 0.16050000 8463.50384084 0 157.21217114 0 2105.70810541 0 -57.78746525 0 676.20476818 0 28224
0.16150000 0.16150500 8307.33978781 0 28.11285690 0 2435.09447238 0 130.01766535 0 595.28783172 0 28075
0.16250000 0.16249700 8349.74143374 0 22.79229882 0 1958.47246592 0 259.57282778 0 488.88554292 0 28590
0.16350000 0.16349900 8350.15180803 0 -47.17662804 0 2354.88293605 0 84.77434384 0 931.68494428 0 29163
0.16450000 0.16449100 8361.10991061 0 105.83264493 0 1853.99339067 0 -92.61271455 0 582.63832161 0 28996
0.16550000 0.16550500 8362.52958382 0 152.29433442 0 2490.86101063 0 -318.18647629 0 902.39420226 0 30777
0.16650000 0.16650700 8056.80073995 0 102.21813475 0 2363.81134959 0 -111.91017721 0 535.85121640 0 29211
0.16750000 0.16749900 8275.24186384 0 -82.79944531 0 2736.53102303 0 323.66885494 0 1365.83653939 0 30922
0.16850000 0.16850800 8396.73483521 0 -156.19621750 0 2053.32438222 0 581.13102794 0 1141.53926350 0 30867
0.16950000 0.16949900 8524.59415363 0 -108.40203161 0 2220.93455050 0 412.86536992 0 1443.05345254 0 30852
0.17050000 0.17049200 8598.07333341 0 73.32933771 0 1797.77211334 0 -26.18365411 0 1335.59084531 0 31257
0.17150000 0.17149500 8440.26778323 0 187.26598751 0 1820.84180299 0 -191.58822696 0 1194.73264407 0 32608
0.17250000 0.17250900 8090.45143149 0 260.61429117 0 2028.21391233 0 -307.63320239 0 1528.99913769 0 32361
0.17350000 0.17350400 7915.32143167 0 123.89310639 0 2069.42880019 0 39.33548454 0 734.94374722 0 32508
0.17450000 0.17449800 7874.83856281 0 51.33061404 0 2408.24268456 0 37.57996988 0 968.46446248 0 32791
0.17550000 0.17549800 7733.52562250 0 36.50323648 0 1631.45961510 0 180.92625934 0 525.16373902 0 33633
0.17650000 0.17650100 7669.09685942 0 90.17686588 0 1871.43984347 0 79.39910615 0 769.81003394 0 33984
0.17750000 0.17750300 7527.26263285 0 151.50464119 0 1823.79206138 0 -224.92614675 0 275.60182561 0 34069
0.17850000 0.17849800 7382.01231762 0 90.61008803 0 1882.88595872 0 -79.10297119 0 335.87693542 0 34536
