### header ###
fiducial parameters:
Omega_m = 0.31
Omega_nu = 0
Omega_de = 0.69
Omega_k = 0
H_0 = 100
w_de = -1
zeff = 0
beta = 0
fgrowth = 0
b_1 = 2
gamma = 0.55
Lx = 3500 Ly = 3500 Lz = 3500
nx = 700 ny = 700 nz = 700
xoffset = 1379.75464 yoffset = 22.6059522 zoffset = 368.141391
bins = 400 dk = 0.001
kx_ny = 0.628318531 ky_ny = 0.628318531 kz_ny = 0.628318531
############################
A(data) = 3.36564678 (not used)
A(ran) = 3.35968386 (used)
Ngal = 188984
weighted Ngal = 0
Nran = 9399747
weighted Nran = 0
SN(data) = 6651.99487
SN(ran) = 133.632712
SN(data+ran) = 6785.62758
############################
13 columns: k_central k_mean P_0(k) sigma^{lin}_{P_0(k)} P^img_1(k) sigma^{lin}_{P_1(k)} P_2(k) sigma^{lin}_{P_2(k)} P^img_3(k) sigma^{lin}_{P_3(k)} P_4(k) sigma^{lin}_{P_4(k)} N_modes
### header ###
0.00050000 0 0 0 0 0 0 0 0 0 0 0 0
0.00150000 0.00179520 55591.18643191 0 -52529.12877845 0 -76539.57375590 0 85179.06161872 0 16707.44634689 0 3
0.00250000 0.00253879 74519.97770360 0 -29333.22130487 0 23314.69419289 0 -137633.99028958 0 -15000.73296050 0 6
0.00350000 0.00331552 69324.52831714 0 20561.08272655 0 -50917.79968581 0 7323.75026005 0 46346.56286360 0 7
0.00450000 0.00420575 69687.76501719 0 16070.25708222 0 16412.75324398 0 -39131.40651287 0 11076.17946755 0 24
0.00550000 0.00557378 58172.10796176 0 3905.34353983 0 36651.19305131 0 13200.85351974 0 5887.61771440 0 45
0.00650000 0.00659388 60802.82896591 0 3616.68404806 0 40071.05271832 0 31055.24054305 0 -249.44989232 0 40
0.00750000 0.00754703 55336.97619786 0 -4997.00569066 0 31029.84170204 0 27362.64834308 0 32102.80409481 0 57
0.00850000 0.00846663 54509.79472946 0 6476.37172201 0 45039.35439128 0 13162.47797830 0 23344.75133662 0 75
0.00950000 0.00948925 62617.90334649 0 1250.92064781 0 33820.94141406 0 18585.29690220 0 29451.12072843 0 112
0.01050000 0.01054430 60820.68579300 0 638.87845397 0 38556.32795111 0 9081.53860839 0 44288.03671001 0 105
0.01150000 0.01145670 59074.82048138 0 -3034.49602905 0 34102.65781655 0 10653.09466877 0 31732.02538083 0 144
0.01250000 0.01249090 62251.56111129 0 2645.70521123 0 43173.59324065 0 3188.81894339 0 33772.14014749 0 169
0.01350000 0.01339930 52543.65824645 0 4397.27139808 0 20933.08147220 0 13876.08558995 0 23073.79339517 0 180
0.01450000 0.01448870 61866.14201734 0 -2882.82391078 0 36693.45051168 0 6232.54284830 0 34406.88934884 0 267
0.01550000 0.01550050 63773.05150865 0 -1482.66011684 0 33869.63176867 0 22288.09300336 0 5431.73624624 0 238
0.01650000 0.01653350 62257.77218158 0 -378.07117597 0 25498.77269593 0 5354.28641795 0 29027.32609304 0 315
0.01750000 0.01747870 67438.58118806 0 -991.50642414 0 6637.03880100 0 2905.46104375 0 17552.59555435 0 297
0.01850000 0.01844180 64796.65807500 0 347.12784561 0 10164.15034250 0 -601.72516243 0 15728.42639227 0 388
0.01950000 0.01947590 63695.41313001 0 1854.71431847 0 10986.29640749 0 4778.55347557 0 11385.66822720 0 399
0.02050000 0.02045430 62905.60899533 0 -1139.05483539 0 7032.97234966 0 493.59153779 0 6672.88554953 0 462
0.02150000 0.02154770 62420.92368869 0 -1993.85338419 0 -3003.50722478 0 4532.59509204 0 -4355.32449122 0 571
0.02250000 0.02255340 66542.74521056 0 1155.84690757 0 -2481.71077315 0 -2894.24784364 0 -1967.15687313 0 510
0.02350000 0.02348930 59564.60773861 0 740.73002467 0 -1583.04654042 0 638.37491363 0 4045.71372841 0 555
0.02450000 0.02439640 63635.52066649 0 -3379.68735167 0 -3845.42889392 0 8566.09741261 0 -3384.90021423 0 592
0.02550000 0.02547300 66060.94361513 0 -2424.65765605 0 -17737.92945535 0 6100.87924932 0 -3319.90580012 0 837
0.02650000 0.02652900 68275.85564569 0 1264.23008414 0 -10919.54958425 0 -9790.24391098 0 -10995.01408829 0 723
0.02750000 0.02749970 60041.97285526 0 7329.21822014 0 -7052.61485945 0 -14594.35150432 0 -3259.25913520 0 826
0.02850000 0.02848090 54888.11545736 0 6075.26967557 0 6934.13869365 0 -16740.16537789 0 -6326.66274560 0 831
0.02950000 0.02946900 51549.55426398 0 1304.86822976 0 13066.09547682 0 274.08122251 0 -12874.43959356 0 996
0.03050000 0.03053250 51099.14075591 0 -1189.85251741 0 13075.74481817 0 5182.04012935 0 -8136.35789566 0 1041
0.03150000 0.03150510 50462.72787502 0 1209.60593917 0 15170.20644987 0 3272.14710606 0 -10968.15120928 0 1036
0.03250000 0.03246190 48467.75427995 0 1991.71278317 0 10388.73598951 0 2576.47395988 0 10338.11576664 0 1059
0.03350000 0.03345080 48081.89153812 0 398.72520293 0 16747.04192000 0 4431.89811495 0 1506.56164626 0 1302
0.03450000 0.03451200 45422.44433387 0 2160.79808065 0 13843.14473502 0 648.60321545 0 12492.01512278 0 1339
0.03550000 0.03553350 44838.49281455 0 1197.60526408 0 17326.66787251 0 981.79940857 0 10930.36350128 0 1365
0.03650000 0.03647120 41950.45604120 0 982.70223201 0 13386.85289257 0 1947.29253940 0 9778.74233975 0 1308
0.03750000 0.03744890 43935.66938296 0 -381.05138059 0 13859.89244241 0 1056.81693737 0 14198.95033311 0 1579
0.03850000 0.03847530 43496.90163169 0 -1270.84043752 0 11316.12642233 0 5214.98098428 0 11604.60845496 0 1662
0.03950000 0.03950240 44401.49965479 0 -264.42522644 0 9634.91169772 0 2063.77228975 0 8593.35957471 0 1683
0.04050000 0.04050350 44426.89849580 0 1180.84646549 0 8428.53329686 0 330.15387780 0 7596.59370497 0 1822
0.04150000 0.04152450 41107.19233723 0 1467.91991610 0 9482.47428687 0 -3413.49331997 0 4388.64244685 0 1887
0.04250000 0.04250150 42183.59300105 0 1204.72581252 0 11250.91018428 0 -1839.36410189 0 5714.93886912 0 1920
0.04350000 0.04349210 39037.90772260 0 1054.61866214 0 14616.31207428 0 -2400.66739705 0 1062.60543306 0 2005
0.04450000 0.04448520 38715.15389140 0 1529.03241128 0 13559.09918117 0 -1872.60441915 0 -641.20760533 0 2151
0.04550000 0.04548030 37252.89048575 0 -38.69219511 0 18120.79757401 0 746.63054144 0 1273.00322093 0 2274
0.04650000 0.04648670 37594.49935176 0 345.98767056 0 16953.00544733 0 558.41071099 0 -710.69949981 0 2311
0.04750000 0.04749250 38201.52056073 0 -665.62265717 0 13404.26607177 0 3994.51676330 0 -69.27483975 0 2568
0.04850000 0.04851840 37993.89335386 0 -482.84971354 0 12485.69314052 0 1654.86204066 0 1395.94913910 0 2493
0.04950000 0.04949480 37718.72075758 0 402.47070014 0 14044.56087160 0 158.15714112 0 4095.41338193 0 2644
0.05050000 0.05050630 37477.37631198 0 782.31424938 0 12226.82460375 0 1305.33406003 0 228.95557860 0 2829
0.05150000 0.05149060 37251.89227803 0 1173.61500508 0 14121.42286645 0 -2198.11995838 0 800.87758572 0 2784
0.05250000 0.05249300 35182.49675143 0 1098.57640300 0 12691.10210800 0 -622.37586203 0 2287.39300262 0 3055
0.05350000 0.05348950 34730.30865185 0 199.42859409 0 14692.73042125 0 2513.17649889 0 2346.13198165 0 3009
0.05450000 0.05448610 34751.38192605 0 -763.37935795 0 11276.53084923 0 2113.52739926 0 1756.53504308 0 3336
0.05550000 0.05550870 34276.34596076 0 448.75315588 0 12407.83293795 0 571.73123853 0 402.93542129 0 3349
0.05650000 0.05647670 33558.08004639 0 1393.69762612 0 11735.59549091 0 -2538.60861349 0 -951.66906295 0 3324
0.05750000 0.05747970 34115.63451698 0 548.57947402 0 11248.24829701 0 -958.23505154 0 -1573.36392548 0 3639
0.05850000 0.05849280 32888.61539859 0 -1066.01597612 0 11305.36796129 0 1208.82955539 0 -5703.29311232 0 3846
0.05950000 0.05951020 33541.88689885 0 121.10921596 0 10351.07028467 0 162.63798469 0 -5342.17483088 0 3787
0.06050000 0.06049470 33081.71313746 0 491.24464051 0 8064.54239542 0 -604.66654786 0 -7609.23766949 0 3930
0.06150000 0.06148310 33000.74739974 0 583.97813820 0 9907.63313948 0 -776.02997719 0 -7988.39023717 0 4083
0.06250000 0.06249100 32483.12123817 0 255.26389776 0 10235.02309100 0 -33.59967203 0 -9524.68738245 0 4303
0.06350000 0.06350600 31890.40767325 0 228.69271723 0 8853.38159596 0 905.96667680 0 -9029.11052041 0 4470
0.06450000 0.06451750 31410.93522918 0 540.39749803 0 8560.87345885 0 -98.52798262 0 -7786.68572947 0 4479
0.06550000 0.06550280 31037.60553991 0 356.22262710 0 7765.33517534 0 590.62509253 0 -6260.91413009 0 4636
0.06650000 0.06648880 30171.49397022 0 217.27876646 0 9327.26407677 0 553.99641461 0 -7108.39248890 0 4653
0.06750000 0.06749660 29738.38272939 0 487.87735312 0 7726.46053004 0 1151.85407666 0 -4324.42441652 0 5220
0.06850000 0.06852730 29218.09468055 0 887.46988765 0 9787.43783816 0 230.32866878 0 -2618.66487307 0 5029
0.06950000 0.06949320 28111.41504906 0 755.58779210 0 9423.48021030 0 497.70526273 0 -1084.01144317 0 5040
0.07050000 0.07048030 27595.56347899 0 -103.58911761 0 9806.02668424 0 1381.99641334 0 750.52355157 0 5475
0.07150000 0.07148790 27128.51317551 0 103.18062883 0 8102.11937068 0 965.29681664 0 2051.52760832 0 5509
0.07250000 0.07249820 28043.53692373 0 133.35500651 0 8984.40190551 0 1193.26860607 0 2122.08980330 0 5916
0.07350000 0.07351270 27501.73195281 0 -237.93279341 0 7762.77310885 0 860.95638135 0 1303.74801887 0 5721
0.07450000 0.07449140 26888.38876158 0 444.58508407 0 8283.66008233 0 -544.35705534 0 1591.78640362 0 6028
0.07550000 0.07549160 27104.33436616 0 614.68744431 0 8308.77055222 0 -749.61961902 0 1829.12692711 0 6183
0.07650000 0.07648840 26123.87255594 0 387.11050149 0 7859.66580539 0 498.84211042 0 1086.45483386 0 6330
0.07750000 0.07749960 25790.80391158 0 -139.77237306 0 8189.66218819 0 1389.37205931 0 1783.98575553 0 6583
0.07850000 0.07848650 26199.84725503 0 318.08776464 0 7865.63286935 0 -416.68628727 0 993.97865194 0 6549
0.07950000 0.07947320 25899.60855364 0 517.84022167 0 7838.47052802 0 139.87441207 0 1801.50984671 0 6828
0.08050000 0.08048110 24956.30225320 0 658.03073286 0 8182.95201404 0 -151.98821738 0 1967.81125375 0 7147
0.08150000 0.08149960 23467.86362274 0 672.69662259 0 9982.47653649 0 -1876.63052364 0 1932.72979780 0 7386
0.08250000 0.08250610 23745.80901827 0 709.13785928 0 10862.57410553 0 636.76779919 0 317.64078940 0 7227
0.08350000 0.08350160 22530.10292077 0 33.60189027 0 9672.74377051 0 61.00069592 0 979.29168894 0 7798
0.08450000 0.08449610 23033.19961434 0 -127.85599106 0 9282.00090203 0 948.93951938 0 1250.84300943 0 7371
0.08550000 0.08548940 22579.90239507 0 76.49110523 0 8608.79852086 0 1009.31555908 0 -1187.14626535 0 8256
0.08650000 0.08650700 22380.70449788 0 382.37788775 0 8141.16038393 0 74.89042368 0 568.75436127 0 8037
0.08750000 0.08749060 21844.77786134 0 409.21747524 0 7045.28357827 0 281.60770875 0 -1621.98773291 0 8155
0.08850000 0.08849210 21281.23414440 0 115.50705238 0 6895.95170256 0 815.13421027 0 -151.49687736 0 8718
0.08950000 0.08949900 20938.18342279 0 232.37499462 0 6054.60677566 0 629.99884169 0 -1698.10661756 0 8571
0.09050000 0.09049190 20565.85194124 0 105.31723701 0 5137.08750811 0 466.37706783 0 -524.81214808 0 8932
0.09150000 0.09150830 20201.83885740 0 340.66389603 0 5180.86446247 0 926.56081129 0 -444.91338350 0 9285
0.09250000 0.09250820 19826.18001676 0 124.34229987 0 4670.72485884 0 508.99831947 0 513.62556683 0 9204
0.09350000 0.09350330 19888.29071967 0 -113.38308816 0 3096.72873513 0 1354.36824174 0 1923.90120503 0 9349
0.09450000 0.09448040 19506.19898481 0 298.22897650 0 3964.94763223 0 160.62271420 0 -203.44138914 0 9564
0.09550000 0.09549270 19428.56060617 0 791.66856489 0 3168.01185791 0 -1330.41125633 0 1898.19181051 0 10155
0.09650000 0.09649430 17883.88960719 0 752.50665759 0 5801.43911412 0 -449.01934461 0 1397.60172745 0 9913
0.09750000 0.09749140 17382.67841710 0 221.72411819 0 4622.26741937 0 326.47270953 0 2740.81222506 0 10476
0.09850000 0.09850240 17636.55591525 0 -342.04475005 0 5624.23506047 0 1579.16462149 0 517.23131496 0 10575
0.09950000 0.09950330 17658.73830914 0 4.18033868 0 4410.52537843 0 -289.94052502 0 1295.01924687 0 10882
0.10050000 0.10051200 17581.21084248 0 488.58497148 0 4139.80035212 0 -976.15842581 0 853.03615760 0 10875
0.10150000 0.10150300 16644.33743626 0 533.85923743 0 5416.89622472 0 -1000.69548082 0 690.22625936 0 11118
0.10250000 0.10250800 16652.87765791 0 524.85540374 0 6147.60646207 0 -621.60502384 0 129.01945762 0 11575
0.10350000 0.10349800 16063.38054011 0 157.26873625 0 6912.97668987 0 20.70837382 0 -869.88257665 0 11364
0.10450000 0.10450100 15589.56460648 0 278.27480407 0 7041.77876003 0 134.28555793 0 574.29330502 0 12093
0.10550000 0.10551000 15586.90271922 0 39.26483361 0 6607.23675480 0 652.87332628 0 393.22729660 0 12067
0.10650000 0.10649700 15563.94394153 0 -205.77497698 0 6736.10537214 0 414.64772527 0 823.38162432 0 12054
0.10750000 0.10749900 16036.76166744 0 83.34036299 0 6708.27755900 0 494.90140815 0 1186.90225902 0 12807
0.10850000 0.10850100 15793.42080639 0 -6.59719922 0 6284.10582291 0 371.87119688 0 1119.47887277 0 12736
0.10950000 0.10950300 15787.65338398 0 77.68973088 0 6400.81848839 0 -221.23055993 0 1610.27542893 0 12933
0.11050000 0.11050200 15878.93393486 0 165.27768956 0 6304.93509078 0 12.54747111 0 1020.00303646 0 13428
0.11150000 0.11150900 15419.42564530 0 323.41043005 0 6759.17506179 0 -368.09020784 0 1153.20720269 0 13453
0.11250000 0.11250000 15135.04735554 0 208.76405456 0 6701.04609859 0 -35.55760103 0 404.22754574 0 13668
0.11350000 0.11349100 14883.16627285 0 90.22089793 0 7080.53140217 0 402.93320305 0 1609.59886591 0 13791
0.11450000 0.11448600 14585.14581085 0 130.46131322 0 6282.17595464 0 734.53670029 0 755.80739780 0 14205
0.11550000 0.11549300 14639.93632378 0 68.96029341 0 5933.50199618 0 978.75487501 0 1754.64953960 0 14776
0.11650000 0.11649800 14274.92503221 0 314.42434229 0 5440.27646789 0 -57.55466103 0 2001.39539811 0 14553
0.11750000 0.11747300 13990.43583049 0 319.35437933 0 6068.94769331 0 272.81904429 0 2583.12867804 0 14568
0.11850000 0.11849100 13460.72026424 0 111.65729792 0 5313.90336986 0 416.56206586 0 2828.16649222 0 16015
0.11950000 0.11950300 13557.32458966 0 2.71421553 0 4868.05943494 0 813.34630933 0 2254.49651247 0 15270
0.12050000 0.12050700 13350.47376658 0 -62.97115797 0 4316.92676738 0 574.60385854 0 2853.48769485 0 15999
0.12150000 0.12150000 13437.53966262 0 171.47655954 0 4428.17147277 0 315.76415888 0 2663.35130557 0 15670
0.12250000 0.12250700 13245.44013148 0 98.45256248 0 3763.09893897 0 -167.34841603 0 3131.77691748 0 16887
0.12350000 0.12352200 12984.68609122 0 194.35991708 0 4517.79943531 0 -116.36551102 0 2356.61316277 0 16407
0.12450000 0.12449800 12847.93163285 0 305.14211956 0 3922.87872221 0 -210.13492650 0 2222.36531491 0 16306
0.12550000 0.12549900 12648.95555960 0 -15.71278780 0 4373.70260456 0 -190.84511677 0 1611.47327820 0 17523
0.12650000 0.12650100 12568.10073385 0 95.73011728 0 4938.23343803 0 -149.52042606 0 1282.69692706 0 17154
0.12750000 0.12750600 12758.42567348 0 67.09175946 0 4110.16467388 0 -240.92963483 0 746.04825360 0 18007
0.12850000 0.12850300 12440.44105697 0 124.18591399 0 4704.84138065 0 16.29951212 0 664.88952905 0 17496
0.12950000 0.12949900 12469.83272889 0 160.89555765 0 4523.58904012 0 -269.16338578 0 -493.84552620 0 18405
0.13050000 0.13049000 12242.79592736 0 175.95074839 0 4892.59316259 0 18.66171525 0 620.11103961 0 18100
0.13150000 0.13148800 12094.72844810 0 -66.75358886 0 4328.53925059 0 670.14010169 0 201.76329104 0 19059
0.13250000 0.13249300 12409.16388158 0 -122.31482906 0 4267.94804166 0 750.80748621 0 697.56752262 0 18957
0.13350000 0.13349100 12425.46794109 0 -279.39945144 0 2983.34342872 0 1027.96318851 0 972.17890434 0 19468
0.13450000 0.13450700 12411.71485688 0 149.25645557 0 2999.05965480 0 293.39210551 0 1763.05666689 0 19953
0.13550000 0.13551000 12601.26341272 0 5.69385450 0 2836.30743078 0 53.20203170 0 1991.35786487 0 19956
0.13650000 0.13649900 12389.64337495 0 12.73690875 0 2684.90150124 0 278.19494745 0 1862.34506197 0 19723
0.13750000 0.13749600 12362.02629455 0 52.52679963 0 2445.65329187 0 12.00167331 0 1723.19490506 0 20946
0.13850000 0.13851100 12409.94026537 0 166.72398165 0 3059.14066867 0 -584.39183984 0 1656.84736491 0 20955
0.13950000 0.13949800 12158.61374252 0 374.00514317 0 3562.01553830 0 -472.63915763 0 1154.87088223 0 20506
0.14050000 0.14048300 11744.57936044 0 269.49057609 0 3530.79381889 0 -258.44485305 0 1086.39605051 0 21447
0.14150000 0.14148400 11516.98799906 0 36.52930080 0 4038.78173032 0 71.57371215 0 944.78586612 0 21771
0.14250000 0.14249400 11520.98082997 0 106.03439380 0 3657.59947360 0 281.14964232 0 684.36234354 0 22470
0.14350000 0.14350900 11280.52368013 0 81.07831337 0 4011.80793934 0 483.05379157 0 988.11695436 0 22519
0.14450000 0.14449900 11132.34528890 0 67.23228492 0 2949.72601077 0 89.31097613 0 536.98584585 0 22218
0.14550000 0.14550500 11116.15214136 0 153.05297229 0 2794.69325983 0 199.48294095 0 990.54259913 0 23559
0.14650000 0.14650700 10678.49350978 0 160.36207108 0 2875.00461693 0 132.97790581 0 432.98258294 0 23044
0.14750000 0.14750500 10596.87339144 0 37.44565549 0 2217.87338015 0 358.84125870 0 896.55801443 0 23649
0.14850000 0.14849900 10472.21942894 0 100.69808621 0 2213.41471897 0 178.93760772 0 314.65282094 0 23640
0.14950000 0.14949500 10314.93516501 0 121.39647796 0 2056.90683884 0 -50.69009741 0 404.23087309 0 24457
0.15050000 0.15050000 10248.22161537 0 101.55820854 0 1973.54540257 0 -67.57655568 0 287.25978272 0 24591
0.15150000 0.15149900 10005.60168213 0 181.10150025 0 2169.38266709 0 -269.56599623 0 -189.35556902 0 25020
0.15250000 0.15250500 9910.06211162 0 158.39671098 0 2432.80968580 0 -236.73605326 0 137.76708465 0 25297
0.15350000 0.15350100 9652.69088643 0 122.90820810 0 2450.50014494 0 123.26423552 0 -82.82051859 0 25452
0.15450000 0.15450400 9749.97177486 0 75.46594589 0 2697.07963549 0 140.03412531 0 408.14606562 0 26061
0.15550000 0.15549900 9469.29794489 0 71.70347915 0 2377.53116021 0 91.94813003 0 45.79322305 0 26128
0.15650000 0.15649500 9527.72637042 0 163.92234530 0 2775.36130355 0 29.63279453 0 428.82671145 0 26331
0.15750000 0.15749700 9326.03295391 0 77.83580194 0 2433.06478333 0 -243.27209562 0 195.99808687 0 27345
0.15850000 0.15849900 9107.02617897 0 152.58603290 0 2809.48891656 0 6.48013164 0 396.09880749 0 26980
0.15950000 0.15949700 9040.15735257 0 215.45093720 0 3005.63673459 0 -229.78520013 0 196.88427351 0 27777
0.16050000 0.16050000 8940.12584730 0 -3.55398551 0 2768.93950052 0 265.03856963 0 575.08521648 0 28224
0.16150000 0.16150500 8946.94693342 0 -50.51363647 0 2848.29701468 0 386.46055734 0 515.92033548 0 28075
0.16250000 0.16249700 8999.80757807 0 -72.03288770 0 2505.06883392 0 180.32400734 0 124.13489448 0 28590
0.16350000 0.16349900 9174.03919093 0 16.24438887 0 2259.55409828 0 393.93713321 0 1067.64860031 0 29163
0.16450000 0.16449100 8941.92262120 0 84.36530050 0 2262.88145736 0 17.77719229 0 728.58627313 0 28996
0.16550000 0.16550500 9059.62240322 0 5.52124221 0 2133.64683052 0 123.89865199 0 1266.48159712 0 30777
0.16650000 0.16650700 8937.57487200 0 7.74432845 0 2030.66506686 0 242.66762539 0 389.22781098 0 29211
0.16750000 0.16749900 8935.40099740 0 136.30193754 0 2030.28796616 0 -27.13960437 0 1119.58978474 0 30922
0.16850000 0.16850800 8669.24554423 0 256.60482347 0 2156.30614589 0 -282.54380578 0 889.11249392 0 30867
0.16950000 0.16949900 8541.17549307 0 160.79573688 0 2366.98343192 0 86.58043435 0 1347.72461477 0 30852
0.17050000 0.17049200 8146.58397924 0 90.97942489 0 2037.44178819 0 264.18343835 0 646.79535035 0 31257
0.17150000 0.17149500 8167.86798619 0 130.79072177 0 2319.01400512 0 110.23640468 0 1228.10605568 0 32608
0.17250000 0.17250900 7940.23226002 0 132.43998276 0 2017.32235693 0 -89.48044962 0 1071.48504534 0 32361
0.17350000 0.17350400 7774.36340966 0 115.85420684 0 2158.91257717 0 36.61581213 0 1033.51987818 0 32508
0.17450000 0.17449800 7880.71689720 0 -54.29706557 0 2033.02749181 0 -26.25485959 0 1031.74750491 0 32791
0.17550000 0.17549800 7743.78497967 0 -11.77341647 0 1698.29516791 0 -9.72050246 0 220.69818247 0 33633
0.17650000 0.17650100 8003.26353228 0 97.14990140 0 2312.95821158 0 -265.39792441 0 299.93258435 0 33984
0.17750000 0.17750300 7690.59159911 0 122.46788758 0 1754.01734138 0 -363.02042171 0 -561.69925089 0 34069
0.17850000 0.17849800 7664.58274227 0 72.22820368 0 2364.26608866 0 -30.03041395 0 -366.23908707 0 34536
