### header ###
fiducial parameters:
Omega_m = 0.31
Omega_nu = 0
Omega_de = 0.69
Omega_k = 0
H_0 = 100
w_de = -1
zeff = 0
beta = 0
fgrowth = 0
b_1 = 2
gamma = 0.55
Lx = 3500 Ly = 3500 Lz = 3500
nx = 700 ny = 700 nz = 700
xoffset = 1379.75464 yoffset = 22.6059522 zoffset = 368.141391
bins = 400 dk = 0.001
kx_ny = 0.628318531 ky_ny = 0.628318531 kz_ny = 0.628318531
############################
A(data) = 3.33173897 (not used)
A(ran) = 3.33242056 (used)
Ngal = 187562
weighted Ngal = 0
Nran = 9399747
weighted Nran = 0
SN(data) = 6641.95518
SN(ran) = 132.548303
SN(data+ran) = 6774.50349
############################
13 columns: k_central k_mean P_0(k) sigma^{lin}_{P_0(k)} P^img_1(k) sigma^{lin}_{P_1(k)} P_2(k) sigma^{lin}_{P_2(k)} P^img_3(k) sigma^{lin}_{P_3(k)} P_4(k) sigma^{lin}_{P_4(k)} N_modes
### header ###
0.00050000 0 0 0 0 0 0 0 0 0 0 0 0
0.00150000 0.00179520 7750.56170101 0 -11316.23733430 0 -20426.21377166 0 15789.09523958 0 -372.52114102 0 3
0.00250000 0.00253879 13424.00840234 0 -6861.46917125 0 793.46533880 0 -18235.03690257 0 9791.34193948 0 6
0.00350000 0.00331552 13790.79428542 0 2314.11169606 0 -8914.57172953 0 -1082.69269985 0 1830.77951546 0 7
0.00450000 0.00420575 14191.07558328 0 2256.03818884 0 5054.59118521 0 -9026.37099477 0 7126.12731282 0 24
0.00550000 0.00557378 17671.38227366 0 -6270.20855313 0 -4593.86286398 0 9796.90972035 0 1960.12505427 0 45
0.00650000 0.00659388 33297.65874205 0 -13418.13006796 0 -26979.66931246 0 5759.53657205 0 -8763.22125597 0 40
0.00750000 0.00754703 39684.85724059 0 -8550.18154499 0 -15486.19465093 0 -6530.47458072 0 -16122.49661984 0 57
0.00850000 0.00846663 56118.90558271 0 -10799.38755651 0 -37248.67583091 0 -14267.27210632 0 -22314.93369998 0 75
0.00950000 0.00948925 64872.07821425 0 -12596.16146213 0 -32308.43488623 0 -6124.98042029 0 -12957.95630658 0 112
0.01050000 0.01054430 81905.38392748 0 -14384.61697003 0 -37912.59488023 0 -8486.07442663 0 -51778.14383308 0 105
0.01150000 0.01145670 96378.50864915 0 -11175.71186897 0 -46576.92702421 0 -16364.83927316 0 -34432.84274970 0 144
0.01250000 0.01249090 103473.88007284 0 -3828.04898830 0 -40128.17238261 0 -15192.94340361 0 -54015.90372936 0 169
0.01350000 0.01339930 103276.23494322 0 2830.76183231 0 -39915.44322514 0 -27725.99595511 0 -18715.39664240 0 180
0.01450000 0.01448870 101567.19240547 0 5209.01392032 0 -20713.36486065 0 -20876.29454382 0 -33931.40973567 0 267
0.01550000 0.01550050 93721.16877233 0 6243.06839420 0 -16996.92658724 0 -4881.84579274 0 -43006.11616673 0 238
0.01650000 0.01653350 87565.88720197 0 3744.45463690 0 -10621.29620712 0 -2945.93282142 0 -21969.88656292 0 315
0.01750000 0.01747870 82448.51984203 0 1002.22939335 0 -6747.36293704 0 -8818.74378790 0 -13416.68821236 0 297
0.01850000 0.01844180 73754.90693811 0 7561.86716733 0 2408.03195182 0 -5513.32309099 0 -21175.86777339 0 388
0.01950000 0.01947590 75149.62495435 0 4394.48750764 0 8385.65472946 0 -4453.00466274 0 -2912.10467073 0 399
0.02050000 0.02045430 64448.39449082 0 -121.18907257 0 8825.39850606 0 -7517.01436687 0 -11952.98295110 0 462
0.02150000 0.02154770 67405.41850919 0 2559.82607326 0 17469.63340118 0 2253.43175756 0 -8922.42429697 0 571
0.02250000 0.02255340 69275.17249072 0 896.71550943 0 23469.63821426 0 -8646.06494261 0 -21680.18449863 0 510
0.02350000 0.02348930 66576.01880140 0 145.61632473 0 28716.88349046 0 -3158.32924298 0 -7082.59436480 0 555
0.02450000 0.02439640 71731.09623097 0 -1581.49377285 0 25493.11618549 0 2722.73357403 0 -11067.23996281 0 592
0.02550000 0.02547300 70759.06373042 0 -778.43343957 0 31341.17160038 0 -339.98955125 0 -3684.88381809 0 837
0.02650000 0.02652900 72485.18671147 0 1077.71275242 0 18839.06348837 0 14431.53273312 0 -14001.97067531 0 723
0.02750000 0.02749970 71641.92300750 0 2004.22365333 0 40283.33822791 0 761.66909538 0 18469.17207015 0 826
0.02850000 0.02848090 63951.06521967 0 4964.79685472 0 17834.64469274 0 2678.16914469 0 -3735.90332405 0 831
0.02950000 0.02946900 62418.15088945 0 2845.50203305 0 39755.39725318 0 4305.84666163 0 23234.17210305 0 996
0.03050000 0.03053250 56948.52711444 0 1967.06814356 0 27954.25278830 0 3111.25820313 0 15950.80489109 0 1041
0.03150000 0.03150510 56993.22463814 0 352.25974243 0 30530.73783937 0 12292.59540165 0 27813.39458706 0 1036
0.03250000 0.03246190 53631.03919525 0 -228.91343205 0 21059.85385332 0 6993.98679238 0 28106.97857028 0 1059
0.03350000 0.03345080 55576.98969982 0 819.89011552 0 22423.29469416 0 3771.79443738 0 22884.46666327 0 1302
0.03450000 0.03451200 53318.82200116 0 2617.99940125 0 22807.93740432 0 -2489.90716769 0 25767.62330996 0 1339
0.03550000 0.03553350 50226.48538003 0 2427.04226339 0 28052.29896932 0 -3710.01647038 0 21779.56162329 0 1365
0.03650000 0.03647120 47858.95847946 0 2150.70509143 0 26335.04894583 0 -3516.87436672 0 16628.14428871 0 1308
0.03750000 0.03744890 47135.81243843 0 1024.54820897 0 32598.80242234 0 -202.62396793 0 15058.85083251 0 1579
0.03850000 0.03847530 46617.07715717 0 441.71357318 0 34887.13817670 0 3007.17841097 0 8989.95859518 0 1662
0.03950000 0.03950240 47595.87528785 0 -224.69323161 0 34755.04202104 0 3834.51515612 0 14542.55561457 0 1683
0.04050000 0.04050350 47500.49099409 0 358.67045427 0 30782.28618616 0 3363.28347138 0 9591.21238175 0 1822
0.04150000 0.04152450 45566.07533435 0 1465.50203516 0 30925.47353876 0 81.03505770 0 14962.69015497 0 1887
0.04250000 0.04250150 44458.28658316 0 1823.89188215 0 33841.57104039 0 3222.32544937 0 14573.72187800 0 1920
0.04350000 0.04349210 44650.16429037 0 630.01436937 0 28047.86249054 0 4850.18042546 0 15876.93751941 0 2005
0.04450000 0.04448520 42706.65384913 0 -981.27368584 0 26314.75205541 0 6055.10587952 0 12739.45972670 0 2151
0.04550000 0.04548030 42143.77560401 0 108.81662055 0 22191.93232582 0 6494.93838570 0 19933.32097928 0 2274
0.04650000 0.04648670 42882.22749682 0 155.18913682 0 16115.39825380 0 -296.41667492 0 13543.01694560 0 2311
0.04750000 0.04749250 40934.16966484 0 456.16429368 0 19103.03397574 0 2824.87240673 0 11960.19222912 0 2568
0.04850000 0.04851840 40639.92020980 0 1122.47349595 0 14519.04227704 0 -69.16337323 0 12910.92963152 0 2493
0.04950000 0.04949480 40094.12240798 0 127.44561677 0 15013.26601305 0 259.58059162 0 10368.25054874 0 2644
0.05050000 0.05050630 38787.69031945 0 665.06366085 0 15753.82523329 0 2420.09917410 0 10450.60268608 0 2829
0.05150000 0.05149060 38373.32320146 0 1010.03205041 0 14608.43732444 0 -1757.21160610 0 8962.78516266 0 2784
0.05250000 0.05249300 37479.59455137 0 962.39979599 0 16540.63474479 0 -641.70449095 0 9922.99444726 0 3055
0.05350000 0.05348950 36325.99915679 0 1009.28561285 0 20536.23844539 0 -1631.52616228 0 6626.33579594 0 3009
0.05450000 0.05448610 35716.53788448 0 688.18437000 0 21009.72164311 0 -1227.10784796 0 12070.10599087 0 3336
0.05550000 0.05550870 35819.90784004 0 46.76259366 0 19949.73595077 0 2177.31287291 0 3927.02682987 0 3349
0.05650000 0.05647670 36142.32893533 0 311.90331322 0 24773.74115143 0 -1701.01251116 0 5648.60242017 0 3324
0.05750000 0.05747970 35015.01967751 0 998.57817132 0 22968.98158401 0 -547.21747503 0 4506.83024153 0 3639
0.05850000 0.05849280 35595.97657366 0 -255.59330631 0 25146.18354495 0 1769.60047309 0 8949.95264779 0 3846
0.05950000 0.05951020 36143.21623108 0 -1078.36602392 0 21215.79608241 0 3399.41859104 0 3551.05743572 0 3787
0.06050000 0.06049470 36698.99611016 0 143.52119763 0 20012.84486140 0 1648.04095454 0 1656.55899379 0 3930
0.06150000 0.06148310 35611.94789726 0 1098.42001713 0 20871.85806504 0 -1400.77380977 0 2926.71177711 0 4083
0.06250000 0.06249100 34885.03084928 0 366.01171753 0 17718.40894872 0 1209.10683531 0 2287.79228571 0 4303
0.06350000 0.06350600 33972.11442847 0 -436.85230156 0 17662.50931611 0 2175.20554549 0 553.78457274 0 4470
0.06450000 0.06451750 34670.19436439 0 168.44089893 0 13193.42241779 0 2005.53241457 0 -2930.42732808 0 4479
0.06550000 0.06550280 34185.95270563 0 703.14972205 0 13674.55854140 0 1185.22748828 0 -431.66162139 0 4636
0.06650000 0.06648880 32434.09814766 0 989.06525170 0 11479.27792944 0 633.50144169 0 19.49876788 0 4653
0.06750000 0.06749660 31221.83032122 0 54.35607074 0 11804.47182396 0 2518.08989914 0 936.61941781 0 5220
0.06850000 0.06852730 31304.01609060 0 480.00703976 0 9717.70748294 0 1595.61286656 0 2060.25638031 0 5029
0.06950000 0.06949320 30364.14806121 0 388.08763594 0 9241.04111170 0 694.95332750 0 1373.97747795 0 5040
0.07050000 0.07048030 29709.21288142 0 208.22834975 0 9435.53634138 0 731.91806869 0 4247.44041850 0 5475
0.07150000 0.07148790 29263.56858804 0 699.26891223 0 9161.60595916 0 -1075.38138283 0 -118.98303350 0 5509
0.07250000 0.07249820 28303.18184429 0 1081.34179207 0 9735.14284455 0 -945.79405592 0 1070.61993198 0 5916
0.07350000 0.07351270 27327.82198466 0 860.70128382 0 11575.10587107 0 -700.17395390 0 -697.85811198 0 5721
0.07450000 0.07449140 25940.75689432 0 643.74527119 0 10055.17933249 0 200.40129206 0 790.73246787 0 6028
0.07550000 0.07549160 25287.81812998 0 380.89388560 0 10282.95924421 0 1466.92170837 0 -734.52006349 0 6183
0.07650000 0.07648840 25241.90057461 0 -67.90474420 0 8950.72903158 0 1803.90554525 0 -817.77613339 0 6330
0.07750000 0.07749960 24792.70709821 0 137.89685166 0 7834.17823480 0 1122.99478220 0 571.58594385 0 6583
0.07850000 0.07848650 24512.65437527 0 154.99282263 0 7257.11434878 0 38.90625521 0 336.12648735 0 6549
0.07950000 0.07947320 23872.24866348 0 341.49573580 0 6549.98399615 0 821.12234751 0 1925.80889091 0 6828
0.08050000 0.08048110 24234.37624384 0 36.50212736 0 5870.73691265 0 -635.34479862 0 -663.24470455 0 7147
0.08150000 0.08149960 24149.41767521 0 -46.35665585 0 6981.46483103 0 526.10981812 0 653.25042698 0 7386
0.08250000 0.08250610 24127.78984116 0 -31.35259553 0 6566.29914686 0 -29.18315741 0 -566.52835804 0 7227
0.08350000 0.08350160 24076.54851126 0 124.03618283 0 6711.44964132 0 173.84896656 0 -539.50132931 0 7798
0.08450000 0.08449610 23963.86195027 0 513.66771338 0 5480.40441845 0 -645.61524700 0 -296.69506396 0 7371
0.08550000 0.08548940 23272.54764449 0 814.50090293 0 8581.34780842 0 -621.85679401 0 -1165.51843130 0 8256
0.08650000 0.08650700 21686.28465695 0 1223.89140084 0 8678.00758982 0 -931.33335334 0 -997.80955137 0 8037
0.08750000 0.08749060 20556.42442384 0 1162.26871060 0 9252.77559807 0 -378.03013854 0 -928.53171699 0 8155
0.08850000 0.08849210 18956.51926405 0 685.26738521 0 10605.97926413 0 68.06944847 0 593.62858866 0 8718
0.08950000 0.08949900 18371.45862504 0 313.77328902 0 9764.63433723 0 1342.64484657 0 50.41969403 0 8571
0.09050000 0.09049190 18302.91502790 0 -66.54108153 0 9337.95599063 0 1089.91750555 0 813.07235676 0 8932
0.09150000 0.09150830 17974.94833414 0 420.60702539 0 8409.82244761 0 643.07092642 0 928.37422199 0 9285
0.09250000 0.09250820 17403.19713146 0 129.38546712 0 8166.98069043 0 507.45775221 0 1737.44709314 0 9204
0.09350000 0.09350330 17547.82633966 0 -232.30733832 0 7864.24646973 0 921.00412162 0 2834.83230159 0 9349
0.09450000 0.09448040 17537.40061453 0 -343.28807322 0 6470.21610770 0 1364.61650772 0 780.31117921 0 9564
0.09550000 0.09549270 17826.54811897 0 353.24464072 0 7114.92520391 0 -547.43929897 0 2265.14406154 0 10155
0.09650000 0.09649430 17055.04445925 0 586.33169019 0 6465.81290251 0 -395.79490870 0 527.91435586 0 9913
0.09750000 0.09749140 16713.21376931 0 356.74945896 0 7667.75482459 0 -236.04618081 0 2545.70697954 0 10476
0.09850000 0.09850240 16573.79742367 0 -127.27924882 0 7001.00752005 0 750.71653840 0 2060.75548418 0 10575
0.09950000 0.09950330 16566.25540974 0 -371.69041037 0 5885.82094050 0 1946.15014611 0 1585.94134282 0 10882
0.10050000 0.10051200 16964.09664428 0 -15.03356290 0 5427.78778013 0 384.11476919 0 1738.55621283 0 10875
0.10150000 0.10150300 16901.43138152 0 218.09396943 0 3927.78103126 0 222.70679824 0 1517.59738723 0 11118
0.10250000 0.10250800 16296.51749996 0 284.30286961 0 5186.47660812 0 170.66357480 0 3301.66078114 0 11575
0.10350000 0.10349800 15944.48290883 0 111.98337911 0 3979.76547136 0 -478.32228695 0 609.27494020 0 11364
0.10450000 0.10450100 16179.17263625 0 -27.86341589 0 4757.85730206 0 146.74208122 0 794.77742739 0 12093
0.10550000 0.10551000 15995.28059085 0 18.41648888 0 4231.93492517 0 -245.15427175 0 -1025.02402132 0 12067
0.10650000 0.10649700 15881.81764607 0 229.29829659 0 4550.70701666 0 -1062.35699025 0 -4.97004299 0 12054
0.10750000 0.10749900 15839.33836176 0 220.57839755 0 5117.04571523 0 -125.64995199 0 -1911.76743557 0 12807
0.10850000 0.10850100 15515.47541087 0 273.55549977 0 4900.50118601 0 86.87290922 0 -1250.64336788 0 12736
0.10950000 0.10950300 15067.83470204 0 330.13280452 0 4987.81108839 0 433.82107743 0 -1774.03695187 0 12933
0.11050000 0.11050200 15056.29985721 0 48.12292897 0 4763.46944772 0 408.90803085 0 -780.92674065 0 13428
0.11150000 0.11150900 14662.45145358 0 239.17168011 0 4703.26643068 0 155.49969033 0 -675.07457521 0 13453
0.11250000 0.11250000 14053.32291718 0 279.85419052 0 4606.71756125 0 214.32185335 0 -452.25353764 0 13668
0.11350000 0.11349100 14056.65027627 0 123.51711481 0 4469.25326627 0 268.14854126 0 660.73143932 0 13791
0.11450000 0.11448600 14228.89656487 0 -146.18863050 0 3885.62339166 0 1168.46868969 0 1282.41964714 0 14205
0.11550000 0.11549300 14050.66102992 0 -92.39355250 0 3817.55671599 0 666.16945318 0 1256.69916142 0 14776
0.11650000 0.11649800 14233.33304365 0 83.25695719 0 2270.04637059 0 524.22542376 0 1434.77941962 0 14553
0.11750000 0.11747300 13822.07146081 0 332.00278033 0 3816.70269382 0 -466.08426024 0 1735.46176888 0 14568
0.11850000 0.11849100 13578.06512795 0 320.98256704 0 3447.84275692 0 -598.82259619 0 2204.80795014 0 16015
0.11950000 0.11950300 13506.97055551 0 162.75333314 0 4595.99237380 0 -74.07799351 0 955.64747529 0 15270
0.12050000 0.12050700 13457.06016925 0 -51.66390450 0 4370.24215111 0 -334.26760275 0 1452.41442276 0 15999
0.12150000 0.12150000 13167.24719299 0 51.05200317 0 4402.49535184 0 352.40392799 0 1038.09610604 0 15670
0.12250000 0.12250700 13274.94271536 0 74.04982186 0 4717.62953073 0 -174.78728183 0 1772.42872831 0 16887
0.12350000 0.12352200 13559.43191708 0 -257.02407072 0 3604.06226593 0 1195.49793666 0 422.85077453 0 16407
0.12450000 0.12449800 13629.97192967 0 -50.16415285 0 4171.76518173 0 501.51065241 0 2024.96419162 0 16306
0.12550000 0.12549900 13630.08284164 0 118.34085320 0 2815.01233264 0 -35.41563371 0 1220.95223365 0 17523
0.12650000 0.12650100 13234.12711059 0 240.85532381 0 3488.00398106 0 214.73000940 0 1852.13006958 0 17154
0.12750000 0.12750600 13088.72151860 0 276.18522257 0 3144.82016509 0 -403.56761952 0 1313.08680670 0 18007
0.12850000 0.12850300 12672.46889713 0 199.98648129 0 3269.15248288 0 -132.16492107 0 1382.02968693 0 17496
0.12950000 0.12949900 12518.52308349 0 179.59087923 0 3925.24114716 0 -204.70024000 0 889.04594674 0 18405
0.13050000 0.13049000 12331.96915082 0 305.13546484 0 3906.92958100 0 -337.49514106 0 547.82416350 0 18100
0.13150000 0.13148800 11990.24937285 0 219.35503852 0 4425.96432458 0 -51.80132443 0 1172.04005511 0 19059
0.13250000 0.13249300 11803.91726412 0 109.68617040 0 4549.26516106 0 -332.32775240 0 553.09691853 0 18957
0.13350000 0.13349100 12035.27963246 0 23.26966393 0 4886.68155461 0 355.45289804 0 929.88706126 0 19468
0.13450000 0.13450700 11820.55405954 0 -145.74498262 0 4734.62124445 0 342.29097462 0 1154.08340725 0 19953
0.13550000 0.13551000 12133.54763742 0 -30.24214489 0 4113.39221219 0 373.35741727 0 1027.54615951 0 19956
0.13650000 0.13649900 12140.86782740 0 163.98223776 0 4521.72571903 0 137.11492227 0 1832.24355345 0 19723
0.13750000 0.13749600 11752.01046240 0 193.98614374 0 4007.73747006 0 -213.68410952 0 580.54541274 0 20946
0.13850000 0.13851100 11629.45273612 0 235.53709487 0 4515.90284064 0 -155.90784638 0 1338.48564771 0 20955
0.13950000 0.13949800 11200.55615013 0 257.77494475 0 4348.10412201 0 -176.85689918 0 308.26540062 0 20506
0.14050000 0.14048300 11040.38817500 0 113.07918937 0 4262.36916960 0 467.50282433 0 1024.03801391 0 21447
0.14150000 0.14148400 10827.96957105 0 -22.25825768 0 4137.67084231 0 301.35780316 0 503.12553068 0 21771
0.14250000 0.14249400 11036.38425290 0 -31.60680577 0 3256.13141767 0 413.09052122 0 401.03106278 0 22470
0.14350000 0.14350900 10666.93648256 0 104.63180103 0 3314.74839354 0 246.95880949 0 284.30286961 0 22519
0.14450000 0.14449900 10666.07136920 0 244.94132076 0 2920.56725400 0 -144.67579123 0 762.11496150 0 22218
0.14550000 0.14550500 10434.46499452 0 92.68990928 0 3130.53470342 0 -70.51084274 0 193.09884799 0 23559
0.14650000 0.14650700 10214.92584213 0 164.41812180 0 3229.47927140 0 -57.54334801 0 -39.95182235 0 23044
0.14750000 0.14750500 10188.09623671 0 156.82065189 0 3408.82392605 0 -262.90462334 0 -141.21201043 0 23649
0.14850000 0.14849900 9947.77218124 0 79.06093556 0 3427.00239785 0 84.39724315 0 -132.08617358 0 23640
0.14950000 0.14949500 10116.40273964 0 -99.63266583 0 3663.42235200 0 349.20079032 0 306.24347542 0 24457
0.15050000 0.15050000 9950.36752133 0 -25.39983922 0 2738.52743849 0 244.48103609 0 -283.19042256 0 24591
0.15150000 0.15149900 10196.92482948 0 157.97191813 0 3234.12648292 0 210.87360022 0 248.18549587 0 25020
0.15250000 0.15250500 9819.76867726 0 138.15749479 0 2890.96484934 0 -5.76552582 0 108.13351373 0 25297
0.15350000 0.15350100 9697.96515237 0 94.93044198 0 3179.93489463 0 223.45878139 0 433.59481702 0 25452
0.15450000 0.15450400 9761.72844363 0 -64.18730771 0 2453.22857939 0 157.70018381 0 647.06264820 0 26061
0.15550000 0.15549900 9798.61776468 0 -121.34878581 0 2560.54700106 0 532.09351887 0 481.80048631 0 26128
0.15650000 0.15649500 9946.82942950 0 100.00100448 0 2231.23827247 0 -178.13682331 0 85.87403602 0 26331
0.15750000 0.15749700 9565.73590236 0 323.49915963 0 2534.18322591 0 -601.34806174 0 97.64212872 0 27345
0.15850000 0.15849900 9467.42353261 0 162.95408380 0 2932.74538825 0 -218.16162573 0 467.41409475 0 26980
0.15950000 0.15949700 9109.63261026 0 95.01817334 0 2961.95960101 0 -8.27795921 0 74.94953976 0 27777
0.16050000 0.16050000 9074.49569832 0 193.52142259 0 3458.63449155 0 81.20708217 0 -202.35667008 0 28224
0.16150000 0.16150500 8810.30338702 0 178.52279696 0 3006.69039830 0 230.01478791 0 252.72845014 0 28075
0.16250000 0.16249700 8604.33985969 0 125.79191931 0 3521.62139901 0 272.87450028 0 695.72971129 0 28590
0.16350000 0.16349900 8635.97195339 0 67.96297298 0 3160.60293835 0 217.55382814 0 1158.58643321 0 29163
0.16450000 0.16449100 8447.85416195 0 -11.85704410 0 2997.86180553 0 397.08925138 0 1233.33000945 0 28996
0.16550000 0.16550500 8437.23988647 0 57.81208771 0 2933.23340091 0 195.45018174 0 1620.41278294 0 30777
0.16650000 0.16650700 8507.40279836 0 -40.34189975 0 2396.10891510 0 226.82163231 0 1527.90110919 0 29211
0.16750000 0.16749900 8447.69888519 0 -31.60347841 0 2556.16597826 0 201.59803221 0 1656.84736491 0 30922
0.16850000 0.16850800 8552.79906747 0 95.04601225 0 2692.94261903 0 -399.92527044 0 1364.49450456 0 30867
0.16950000 0.16949900 8489.85652479 0 83.61586832 0 2697.78947209 0 -156.56999084 0 1294.35377505 0 30852
0.17050000 0.17049200 8465.25624996 0 9.19596649 0 2641.75674511 0 -46.93073621 0 826.71785637 0 31257
0.17150000 0.17149500 8280.76527992 0 36.45010965 0 2907.15799689 0 -94.85635278 0 679.17942720 0 32608
0.17250000 0.17250900 8442.26419868 0 169.30933965 0 2750.52811358 0 -211.38712264 0 164.18298842 0 32361
0.17350000 0.17350400 8348.77649961 0 47.02301497 0 2885.37488608 0 13.53636223 0 -161.85827354 0 32508
0.17450000 0.17449800 8086.22568545 0 41.58422472 0 2616.13608016 0 71.73298173 0 -79.74792430 0 32791
0.17550000 0.17549800 8263.70701902 0 -8.86349677 0 2410.87129824 0 198.25736369 0 -466.29055650 0 33633
0.17650000 0.17650100 7986.70437523 0 149.80103334 0 2468.57879596 0 -204.45290630 0 -900.90576363 0 33984
0.17750000 0.17750300 7944.23618212 0 148.39023309 0 2173.18694764 0 9.11558858 0 -827.44100241 0 34069
