### header ###
fiducial parameters:
Omega_m = 0.31
Omega_nu = 0
Omega_de = 0.69
Omega_k = 0
H_0 = 100
w_de = -1
zeff = 0
beta = 0
fgrowth = 0
b_1 = 2
gamma = 0.55
Lx = 3500 Ly = 3500 Lz = 3500
nx = 700 ny = 700 nz = 700
xoffset = 1379.75464 yoffset = 22.6059522 zoffset = 368.141391
bins = 400 dk = 0.001
kx_ny = 0.628318531 ky_ny = 0.628318531 kz_ny = 0.628318531
############################
A(data) = 3.36051177 (not used)
A(ran) = 3.35897978 (used)
Ngal = 188321
weighted Ngal = 0
Nran = 9399747
weighted Nran = 0
SN(data) = 6574.46965
SN(ran) = 133.604707
SN(data+ran) = 6708.07436
############################
13 columns: k_central k_mean P_0(k) sigma^{lin}_{P_0(k)} P^img_1(k) sigma^{lin}_{P_1(k)} P_2(k) sigma^{lin}_{P_2(k)} P^img_3(k) sigma^{lin}_{P_3(k)} P_4(k) sigma^{lin}_{P_4(k)} N_modes
### header ###
0.00050000 0 0 0 0 0 0 0 0 0 0 0 0
0.00150000 0.00179520 78426.40818073 0 -76243.32788541 0 -114578.71919331 0 137689.44627432 0 135014.24957041 0 3
0.00250000 0.00253879 104041.30570871 0 -56063.33868600 0 -7250.90327849 0 -140172.76527103 0 -59816.82155722 0 6
0.00350000 0.00331552 125453.63780104 0 -3838.46362223 0 -80403.52494872 0 -8910.06870357 0 28147.01779126 0 7
0.00450000 0.00420575 130486.82297614 0 20485.10802746 0 -5340.78843127 0 -88233.46634629 0 -415.68807954 0 24
0.00550000 0.00557378 89892.15484989 0 21028.68758989 0 19655.26467179 0 -18439.22583839 0 31101.04718645 0 45
0.00650000 0.00659388 68823.76077493 0 6303.07176969 0 35643.89054447 0 39922.76341513 0 -26195.63260019 0 40
0.00750000 0.00754703 69238.23880488 0 -5292.68591010 0 9447.08227741 0 26930.64622195 0 21257.05533505 0 57
0.00850000 0.00846663 74324.43990140 0 -2118.07479001 0 9939.19868600 0 15715.56060381 0 -1381.81895419 0 75
0.00950000 0.00948925 60379.03433052 0 6400.75194121 0 726.64975014 0 7759.25719942 0 27881.93818420 0 112
0.01050000 0.01054430 67063.14417137 0 -969.75658693 0 -16803.38520050 0 4155.18384229 0 32223.91996549 0 105
0.01150000 0.01145670 60456.33997325 0 -4538.58433839 0 -5577.62985090 0 12063.45127270 0 27018.37758981 0 144
0.01250000 0.01249090 66677.50325348 0 -407.57597809 0 -15360.30956556 0 1241.49313040 0 17542.72438906 0 169
0.01350000 0.01339930 61877.23321429 0 2460.94805246 0 -12271.96577533 0 -10740.39347995 0 25247.66799703 0 180
0.01450000 0.01448870 62908.82544244 0 2284.99730408 0 -4814.86605437 0 -945.08754668 0 17225.29433241 0 267
0.01550000 0.01550050 62156.73137738 0 -2332.25689427 0 10521.79707929 0 -5969.19346796 0 -7971.58707379 0 238
0.01650000 0.01653350 66391.57219615 0 -3102.54052233 0 9670.95808781 0 -4238.54527855 0 6031.27089728 0 315
0.01750000 0.01747870 73848.84937626 0 -1021.75877294 0 20478.78604520 0 -13132.86448245 0 -9891.79491024 0 297
0.01850000 0.01844180 73639.22575394 0 204.57047299 0 16317.36895023 0 -13264.29516629 0 -17997.57437591 0 388
0.01950000 0.01947590 76952.72084222 0 4637.79509510 0 31233.80881392 0 -13754.41515943 0 -35405.76254599 0 399
0.02050000 0.02045430 70098.36112822 0 3937.38600782 0 37694.54194823 0 -17377.02190666 0 -39666.55676562 0 462
0.02150000 0.02154770 66305.50450783 0 4675.18352001 0 47563.82172867 0 -408.68066131 0 -35027.33090612 0 571
0.02250000 0.02255340 64915.33388234 0 -337.13800452 0 51321.85199063 0 5216.17883355 0 -36461.53358350 0 510
0.02350000 0.02348930 64873.63098182 0 -1295.11906764 0 34010.15723400 0 21028.79850186 0 -23322.23620681 0 555
0.02450000 0.02439640 64361.55041872 0 -3327.84709713 0 24586.41083497 0 17559.13936055 0 -18609.14297564 0 592
0.02550000 0.02547300 67999.68484167 0 -1530.38553731 0 15935.27721536 0 10473.63910215 0 -5810.74462836 0 837
0.02650000 0.02652900 67458.32351863 0 1106.55984657 0 5538.48901687 0 7837.67196184 0 -2748.19896222 0 723
0.02750000 0.02749970 65415.32504077 0 3453.51035856 0 13499.87218947 0 -8995.19364014 0 3044.25628236 0 826
0.02850000 0.02848090 60732.06712938 0 3191.60283382 0 4398.58015932 0 -3945.22748406 0 -4051.13732372 0 831
0.02950000 0.02946900 55282.62933281 0 1414.23852287 0 18463.18282380 0 -564.74378445 0 -1425.56263495 0 996
0.03050000 0.03053250 59472.43989197 0 742.30941111 0 20382.84719160 0 -349.61781932 0 -966.49577503 0 1041
0.03150000 0.03150510 56874.54883079 0 -1163.53310705 0 13972.68991537 0 4062.83853650 0 -1011.10235091 0 1036
0.03250000 0.03246190 59167.43197590 0 907.77343278 0 21313.62043949 0 3559.84166370 0 2622.18078250 0 1059
0.03350000 0.03345080 57247.32396022 0 342.79118760 0 13378.42358289 0 -1516.80991225 0 4203.33072824 0 1302
0.03450000 0.03451200 56388.86531643 0 1752.40911782 0 22825.68331944 0 2186.16364807 0 10419.75806737 0 1339
0.03550000 0.03553350 56724.37402411 0 1486.66403894 0 23865.92668122 0 -952.29682469 0 11463.97207765 0 1365
0.03650000 0.03647120 52561.62598550 0 993.64480692 0 19971.25287285 0 3294.05222003 0 9769.38136952 0 1308
0.03750000 0.03744890 54157.42740242 0 1879.56969083 0 30241.70124690 0 -851.60982968 0 6283.80636059 0 1579
0.03850000 0.03847530 51642.60940638 0 178.07138524 0 19932.43368353 0 2714.90318899 0 9321.91811985 0 1662
0.03950000 0.03950240 51426.22015392 0 197.85808060 0 26875.74479706 0 3760.70324043 0 10812.95209038 0 1683
0.04050000 0.04050350 50564.32323907 0 1218.06852244 0 24134.22273539 0 -2005.25513465 0 4581.46290580 0 1822
0.04150000 0.04152450 49391.09642589 0 1785.33888156 0 26463.48500649 0 -1827.15269405 0 7755.67474280 0 1887
0.04250000 0.04250150 46363.64330690 0 3056.55641978 0 25816.86822441 0 268.30603625 0 4598.96481458 0 1920
0.04350000 0.04349210 42859.82327899 0 2571.53837723 0 32818.85176979 0 -4470.10728844 0 1362.15426200 0 2005
0.04450000 0.04448520 41834.55303309 0 1222.90428431 0 31305.12521030 0 1337.05488331 0 984.92823523 0 2151
0.04550000 0.04548030 40149.57839272 0 249.64620651 0 34505.26826577 0 3406.16203878 0 657.21109341 0 2274
0.04650000 0.04648670 39142.16497391 0 829.45738201 0 27652.35040737 0 1604.00890265 0 -590.33450317 0 2311
0.04750000 0.04749250 39925.86895027 0 -304.85485756 0 25544.80116327 0 3923.77710916 0 -3950.34052585 0 2568
0.04850000 0.04851840 38582.72499984 0 1049.16622972 0 27697.26975501 0 -77.51693003 0 -2660.06831127 0 2493
0.04950000 0.04949480 37087.40982728 0 1997.50238798 0 23939.35040501 0 -1140.26377585 0 -4343.20181295 0 2644
0.05050000 0.05050630 34831.12763211 0 -193.58796977 0 22180.17565706 0 5335.84175743 0 -1363.18574332 0 2829
0.05150000 0.05149060 35745.92955640 0 -1540.80017124 0 19474.69998548 0 3287.77460256 0 -3010.97160032 0 2784
0.05250000 0.05249300 36745.35731340 0 31.66814009 0 16418.52066639 0 2823.98511097 0 -4664.75779488 0 3055
0.05350000 0.05348950 36136.33968897 0 1653.08744915 0 16426.94997607 0 -1553.71032449 0 -5822.14637882 0 3009
0.05450000 0.05448610 32992.31809006 0 1425.71791171 0 16567.03179353 0 -2940.33176696 0 -3041.58330390 0 3336
0.05550000 0.05550870 32704.94517713 0 844.69225014 0 18606.14835246 0 -278.09956316 0 -4100.27132620 0 3349
0.05650000 0.05647670 32389.40062396 0 -381.04805323 0 17572.55970886 0 1762.91248133 0 -8875.28670994 0 3324
0.05750000 0.05747970 32270.83572858 0 -331.82310294 0 16782.20101433 0 1683.42187280 0 -5149.90893179 0 3639
0.05850000 0.05849280 32911.68508825 0 -150.84360585 0 15810.27942575 0 1557.76970257 0 -5399.69377826 0 3846
0.05950000 0.05951020 33321.28299155 0 -368.82666332 0 13705.94662877 0 988.52621952 0 -4262.55771994 0 3787
0.06050000 0.06049470 33212.36743751 0 611.12606097 0 14080.16361380 0 -628.97956069 0 -8023.00586284 0 3930
0.06150000 0.06148310 33245.86285230 0 628.45383796 0 15098.00275774 0 -679.22490111 0 -6625.91433046 0 4083
0.06250000 0.06249100 31406.16601450 0 978.60181649 0 15218.23133266 0 -1371.14922272 0 -7920.53429424 0 4303
0.06350000 0.06350600 31466.05847802 0 73.05915615 0 17192.35347747 0 188.36734337 0 -7060.84452759 0 4470
0.06450000 0.06451750 31834.39712867 0 -366.53633115 0 15315.50112989 0 1566.59829535 0 -8329.35581375 0 4479
0.06550000 0.06550280 30832.86204424 0 208.21393119 0 13941.52365195 0 1547.16651829 0 -6826.40989769 0 4636
0.06650000 0.06648880 31239.35441239 0 488.14465097 0 14566.73442392 0 541.80497092 0 -4650.91598109 0 4653
0.06750000 0.06749660 30715.62809250 0 65.64380370 0 12250.22702931 0 3410.69833834 0 -1536.95152590 0 5220
0.06850000 0.06852730 30016.66086082 0 196.53046432 0 11984.37103846 0 2324.00504374 0 -1499.00854114 0 5029
0.06950000 0.06949320 30262.44178519 0 772.03825541 0 10133.28354140 0 6.62006927 0 -677.78859110 0 5040
0.07050000 0.07048030 28599.31680281 0 1197.47216971 0 11146.76384493 0 -803.06587887 0 -258.19641024 0 5475
0.07150000 0.07148790 26670.33582957 0 962.57725514 0 10676.16435842 0 -369.94465597 0 420.95085249 0 5509
0.07250000 0.07249820 25889.51556442 0 185.78309448 0 10500.76816988 0 1342.65593776 0 467.45513218 0 5916
0.07350000 0.07351270 26460.82311922 0 -369.69954052 0 9202.90957659 0 2412.84553130 0 -1662.00477149 0 5721
0.07450000 0.07449140 25868.77502613 0 131.31866275 0 7994.94513457 0 1336.14540516 0 -1211.45816906 0 6028
0.07550000 0.07549160 24850.82497022 0 765.96027948 0 6997.70234336 0 -616.99330415 0 -942.27481913 0 6183
0.07650000 0.07648840 24322.77308351 0 640.63197221 0 7654.97776571 0 -827.51198607 0 -920.65807628 0 6330
0.07750000 0.07749960 23879.79067740 0 447.94793499 0 6979.00258531 0 208.12076513 0 -1391.27974519 0 6583
0.07850000 0.07848650 23390.11433214 0 -15.10909395 0 7785.55442738 0 481.63300924 0 -1832.76483971 0 6549
0.07950000 0.07947320 23902.08398327 0 -203.69981403 0 7020.71657703 0 472.69017714 0 -1049.31928824 0 6828
0.08050000 0.08048110 23961.75462285 0 -318.84972987 0 7548.19172149 0 540.67255971 0 -1706.74665998 0 7147
0.08150000 0.08149960 24272.75178528 0 299.13623641 0 6797.88333914 0 -488.77130359 0 9.09286272 0 7386
0.08250000 0.08250610 24046.38045556 0 171.07505821 0 8086.54733016 0 643.08201761 0 -126.10025458 0 7227
0.08350000 0.08350160 23700.55693472 0 609.57772987 0 9168.36049810 0 -278.15058267 0 1862.72216267 0 7798
0.08450000 0.08449610 23153.31727729 0 393.48683061 0 9816.57441254 0 50.68421908 0 2551.24148682 0 7371
0.08550000 0.08548940 23084.21912031 0 228.92452325 0 9825.69137643 0 577.62731882 0 2277.31110459 0 8256
0.08650000 0.08650700 22189.04861461 0 517.86794967 0 10138.14148566 0 157.17224283 0 3188.41966030 0 8037
0.08750000 0.08749060 22005.37839315 0 471.69307853 0 10295.91376225 0 -410.42530659 0 1778.68416339 0 8155
0.08850000 0.08849210 21171.20947068 0 439.16037964 0 10468.17114205 0 480.93426383 0 3880.04451959 0 8718
0.08950000 0.08949900 20425.32647591 0 304.00859923 0 9763.28121120 0 618.43294152 0 2068.31968050 0 8571
0.09050000 0.09049190 20199.84244195 0 28.46766430 0 8997.64479467 0 933.44844460 0 1845.02061234 0 8932
0.09150000 0.09150830 19942.97032063 0 294.90716302 0 7795.08176556 0 307.05756927 0 -68.05048252 0 9285
0.09250000 0.09250820 19737.67226512 0 298.10031862 0 7464.63064368 0 -124.35228194 0 397.24785550 0 9204
0.09350000 0.09350330 18928.34762381 0 320.41802512 0 7144.28360223 0 -63.36345361 0 407.69021742 0 9349
0.09450000 0.09448040 18574.42752919 0 344.85969583 0 7307.09128223 0 396.50585442 0 -693.59465588 0 9564
0.09550000 0.09549270 18650.29131631 0 -114.08294269 0 6873.44766395 0 1154.29413999 0 874.74052091 0 10155
0.09650000 0.09649430 18254.55740920 0 62.98125096 0 6620.31327600 0 465.34780476 0 -297.90733179 0 9913
0.09750000 0.09749140 18560.67444497 0 227.38284687 0 6182.49936767 0 543.34442906 0 1696.77567393 0 10476
0.09850000 0.09850240 17953.20958812 0 34.18994554 0 5920.46983976 0 479.87949100 0 1150.35676508 0 10575
0.09950000 0.09950330 18214.07454034 0 170.28536499 0 6531.63915640 0 -328.92497318 0 2507.58653563 0 10882
0.10050000 0.10051200 17903.29920185 0 361.63180386 0 6508.15909246 0 -415.14793825 0 1414.19415808 0 10875
0.10150000 0.10150300 17350.84668186 0 454.62372643 0 7554.13660306 0 -685.09325341 0 1302.74981114 0 11118
0.10250000 0.10250800 16968.75494699 0 224.61115676 0 7149.33009684 0 -237.12535427 0 951.13113989 0 11575
0.10350000 0.10349800 16781.42463054 0 89.14349906 0 7459.09613641 0 689.37223720 0 185.14756890 0 11364
0.10450000 0.10450100 16395.78371265 0 191.43405933 0 6930.70042260 0 712.46300012 0 355.32867663 0 12093
0.10550000 0.10551000 16384.24886782 0 295.28426371 0 6409.62489877 0 -395.34682434 0 -869.44003789 0 12067
0.10650000 0.10649700 15808.94848212 0 272.43085240 0 6566.25478207 0 51.68442322 0 -48.28652412 0 12054
0.10750000 0.10749900 15224.33149098 0 336.33722010 0 6557.39291571 0 -446.44729604 0 -1669.43587345 0 12807
0.10850000 0.10850100 15040.43944558 0 212.58053543 0 6099.89213280 0 224.80636182 0 -803.12909870 0 12736
0.10950000 0.10950300 14850.33632988 0 -124.56301469 0 5461.21664773 0 1007.64078834 0 -2492.59123736 0 12933
0.11050000 0.11050200 14900.13580418 0 -27.93695052 0 4853.92925003 0 993.97754282 0 -1656.14861951 0 13428
0.11150000 0.11150900 14783.12367638 0 186.08477504 0 4248.38317024 0 7.99247180 0 -1665.96432880 0 13453
0.11250000 0.11250000 14192.18470298 0 269.70241795 0 4057.38166760 0 40.11974307 0 -1604.27509138 0 13668
0.11350000 0.11349100 14330.27010498 0 73.27643270 0 4105.08490567 0 233.91999836 0 -1179.52661305 0 13791
0.11450000 0.11448600 14096.68949725 0 -6.30416980 0 3864.53902626 0 49.89075485 0 -1533.69071400 0 14205
0.11550000 0.11549300 14080.71817365 0 112.60670438 0 3633.90867692 0 385.55107919 0 -1022.17580195 0 14776
0.11650000 0.11649800 13854.34684393 0 159.62561560 0 3755.60128983 0 -299.13179993 0 -1446.60263556 0 14553
0.11750000 0.11747300 14143.05070050 0 -68.85703437 0 3559.13182709 0 583.11524307 0 -782.09575280 0 14568
0.11850000 0.11849100 13932.53978242 0 -104.33100777 0 3952.98023073 0 244.63853109 0 -681.99326387 0 16015
0.11950000 0.11950300 14223.68370231 0 55.54848532 0 3222.20344620 0 204.64478401 0 -740.25310320 0 15270
0.12050000 0.12050700 14006.85080197 0 197.16820815 0 3547.10896960 0 52.38250315 0 -379.95113386 0 15999
0.12150000 0.12150000 13799.44541904 0 147.11585456 0 3438.55942507 0 -41.88712531 0 -165.32094523 0 15670
0.12250000 0.12250700 13568.63761055 0 159.91731408 0 3732.09904350 0 17.79981833 0 638.94500115 0 16887
0.12350000 0.12352200 13573.96138508 0 226.02861173 0 4151.75666243 0 -30.87301218 0 133.16201968 0 16407
0.12450000 0.12449800 13366.44509018 0 -38.98577910 0 3746.31795799 0 159.42264669 0 296.20483306 0 16306
0.12550000 0.12549900 13175.56559070 0 140.44560872 0 4227.22116647 0 231.57975580 0 738.70699034 0 17523
0.12650000 0.12650100 13128.20617973 0 163.83583396 0 3786.10208144 0 150.69720206 0 1067.11622286 0 17154
0.12750000 0.12750600 13031.38003038 0 -5.93845976 0 4012.34031679 0 361.73162463 0 1425.13007827 0 18007
0.12850000 0.12850300 13175.89832661 0 -52.29521543 0 3515.54342309 0 520.27806676 0 829.99863242 0 17496
0.12950000 0.12949900 12897.95293109 0 130.58775287 0 3778.94825941 0 101.50585809 0 1594.20428455 0 18405
0.13050000 0.13049000 12829.85298183 0 211.36826760 0 3365.69026112 0 21.96001540 0 1672.28631107 0 18100
0.13150000 0.13148800 12580.30105049 0 264.20672986 0 3843.42138727 0 -299.38911570 0 1661.03983736 0 19059
0.13250000 0.13249300 12293.48269741 0 340.37885226 0 3789.75108524 0 -409.29289538 0 976.77731460 0 18957
0.13350000 0.13349100 12062.34215301 0 212.88332510 0 4463.92949174 0 -246.48077890 0 1319.17587382 0 19468
0.13450000 0.13450700 11551.03797370 0 165.26659837 0 4606.41809893 0 -129.99215559 0 916.10181257 0 19953
0.13550000 0.13551000 11846.06381252 0 -7.37402666 0 4762.77070231 0 -42.92792323 0 564.23802587 0 19956
0.13650000 0.13649900 11571.88942396 0 117.04540139 0 4858.33245521 0 -331.13655785 0 -339.42168197 0 19723
0.13750000 0.13749600 11536.73032963 0 258.92953835 0 4709.26676823 0 -536.65310994 0 -1019.38414767 0 20946
0.13850000 0.13851100 11326.99579534 0 167.63567803 0 5253.75580881 0 -309.25584451 0 -764.83008651 0 20955
0.13950000 0.13949800 10970.62454620 0 103.75304550 0 4940.65131896 0 135.21389112 0 -1619.95804386 0 20506
0.14050000 0.14048300 11154.63859477 0 -32.15171627 0 4908.10974712 0 580.94913231 0 -1101.34809312 0 21447
0.14150000 0.14148400 11039.86688875 0 -67.33177296 0 4402.53971663 0 737.74427445 0 -1335.23592701 0 21771
0.14250000 0.14249400 10965.75551074 0 21.98796521 0 3506.63719194 0 687.66308375 0 -443.13990111 0 22470
0.14350000 0.14350900 11063.02530797 0 64.06308631 0 3519.18133569 0 347.25539437 0 -382.07509807 0 22519
0.14450000 0.14449900 10911.61937843 0 13.91867579 0 2956.76892084 0 209.51381947 0 -49.22650306 0 22218
0.14550000 0.14550500 10686.59008355 0 228.74262762 0 2858.51200707 0 328.13527995 0 681.83909623 0 23559
0.14650000 0.14650700 10393.29447145 0 138.91391442 0 2990.08687647 0 -169.88386366 0 34.35032424 0 23044
0.14750000 0.14750500 10386.59538850 0 87.33474666 0 3090.83930955 0 111.72717246 0 798.07262201 0 23649
0.14850000 0.14849900 10280.37499532 0 201.83760206 0 3469.83660046 0 -125.09982862 0 358.39206523 0 23640
0.14950000 0.14949500 10130.95439004 0 143.70531150 0 3359.02445175 0 -339.13663821 0 997.72747651 0 24457
0.15050000 0.15050000 9949.35822240 0 118.77340988 0 3570.56685115 0 -37.79347543 0 232.39939525 0 24591
0.15150000 0.15149900 9781.78132771 0 174.13733769 0 4024.74027498 0 -52.55929683 0 645.76497816 0 25020
0.15250000 0.15250500 9704.96369765 0 125.90726776 0 3733.68508466 0 100.97647526 0 366.69604438 0 25297
0.15350000 0.15350100 9481.72008548 0 26.64205328 0 3944.56201224 0 317.02855533 0 255.25502481 0 25452
0.15450000 0.15450400 9450.37636290 0 112.12090995 0 3749.73404665 0 71.51304330 0 689.15484974 0 26061
0.15550000 0.15549900 9277.33150811 0 69.87110250 0 3433.74584559 0 374.01290701 0 501.17569826 0 26128
0.15650000 0.15649500 9148.89544745 0 169.87166334 0 3402.59067337 0 -76.42699811 0 752.71849945 0 26331
0.15750000 0.15749700 8941.24605819 0 159.88625873 0 3182.96279140 0 167.18870280 0 397.82792510 0 27345
0.15850000 0.15849900 8758.94005395 0 61.61570279 0 3247.82411115 0 342.95533731 0 634.56508748 0 26980
0.15950000 0.15949700 8717.11515026 0 59.92207702 0 2734.51242519 0 -89.38717265 0 276.94164220 0 27777
0.16050000 0.16050000 8541.74114411 0 175.10116270 0 3025.76725705 0 100.60935664 0 224.62335707 0 28224
0.16150000 0.16150500 8288.75094172 0 252.95027408 0 2754.23257336 0 -182.46904483 0 204.46510662 0 28075
0.16250000 0.16249700 8014.99801865 0 95.09581172 0 2728.90027953 0 247.06417586 0 522.15136993 0 28590
0.16350000 0.16349900 8027.45343282 0 -95.34414362 0 2506.46632474 0 701.69677525 0 821.73901806 0 29163
0.16450000 0.16449100 8105.94583362 0 -120.86742786 0 2111.24261269 0 618.43626888 0 544.16295939 0 28996
0.16550000 0.16550500 8031.36862534 0 48.67227595 0 1659.91962647 0 200.14619453 0 1113.48962642 0 30777
0.16650000 0.16650700 8086.34768862 0 98.43293106 0 1673.09596844 0 -123.92970734 0 906.07647965 0 29211
0.16750000 0.16749900 8058.73060822 0 -47.90165959 0 1542.75222191 0 -3.15982655 0 1220.27567064 0 30922
0.16850000 0.16850800 8060.22791980 0 13.67344942 0 1769.28991957 0 -104.48062802 0 425.62024641 0 30867
0.16950000 0.16949900 8119.27745236 0 75.19021874 0 1635.24171326 0 -262.35449997 0 566.58270490 0 30852
0.17050000 0.17049200 8050.50094008 0 91.50071114 0 1988.85125436 0 -90.75837733 0 249.56967725 0 31257
0.17150000 0.17149500 7921.11103648 0 113.71471495 0 1837.76696953 0 -114.08183357 0 174.84273781 0 32608
0.17250000 0.17250900 8127.21874937 0 -94.08984016 0 2156.99380010 0 66.86017527 0 347.98519513 0 32361
0.17350000 0.17350400 7980.38239297 0 -40.07937112 0 1698.30625911 0 318.18536717 0 54.33377743 0 32508
0.17450000 0.17449800 8172.74811284 0 33.37163703 0 1898.48018163 0 -81.90604940 0 457.71817038 0 32791
0.17550000 0.17549800 8128.00622435 0 79.37958565 0 1724.28184236 0 50.64673083 0 -18.28871830 0 33633
0.17650000 0.17650100 8017.87063866 0 91.18050829 0 2003.75782306 0 -99.12779455 0 655.15034901 0 33984
0.17750000 0.17750300 7880.88326515 0 171.67398284 0 1984.37041079 0 -198.31947439 0 315.97821898 0 34069
