### header ###
fiducial parameters:
Omega_m = 0.31
Omega_nu = 0
Omega_de = 0.69
Omega_k = 0
H_0 = 100
w_de = -1
zeff = 0
beta = 0
fgrowth = 0
b_1 = 2
gamma = 0.55
Lx = 3500 Ly = 3500 Lz = 3500
nx = 700 ny = 700 nz = 700
xoffset = 1379.75464 yoffset = 22.6059522 zoffset = 368.141391
bins = 400 dk = 0.001
kx_ny = 0.628318531 ky_ny = 0.628318531 kz_ny = 0.628318531
############################
A(data) = 3.33802214 (not used)
A(ran) = 3.34026316 (used)
Ngal = 187788
weighted Ngal = 0
Nran = 9399747
weighted Nran = 0
SN(data) = 6658.21633
SN(ran) = 132.860246
SN(data+ran) = 6791.07657
############################
13 columns: k_central k_mean P_0(k) sigma^{lin}_{P_0(k)} P^img_1(k) sigma^{lin}_{P_1(k)} P_2(k) sigma^{lin}_{P_2(k)} P^img_3(k) sigma^{lin}_{P_3(k)} P_4(k) sigma^{lin}_{P_4(k)} N_modes
### header ###
0.00050000 0 0 0 0 0 0 0 0 0 0 0 0
0.00150000 0.00179520 1908.27370853 0 -7512.25624338 0 -1143.34712860 0 -6777.23153042 0 -12621.11665526 0 3
0.00250000 0.00253879 11802.25358457 0 -10211.65393903 0 -10147.36936152 0 -470.84792932 0 12652.50474262 0 6
0.00350000 0.00331552 15502.60962241 0 -6485.81033061 0 -2795.29218447 0 -14922.20728611 0 2734.42369561 0 7
0.00450000 0.00420575 26688.19265666 0 -8613.97810984 0 -14458.15160579 0 -9964.19824392 0 -554.47222696 0 24
0.00550000 0.00557378 41943.69041106 0 -9381.91040414 0 -6181.15733284 0 -14389.16436078 0 -7861.35166732 0 45
0.00650000 0.00659388 48621.92191753 0 -764.06479393 0 -30652.96282974 0 -6241.82618014 0 -11083.73257268 0 40
0.00750000 0.00754703 57530.59313028 0 -2099.34175836 0 10106.43175358 0 -21316.39323873 0 12981.02599623 0 57
0.00850000 0.00846663 57199.74272531 0 1372.29161601 0 5814.82618883 0 -13540.13323439 0 -21643.47263673 0 75
0.00950000 0.00948925 71551.08610450 0 -2964.31093476 0 25683.44112512 0 12919.24802923 0 -6788.63328089 0 112
0.01050000 0.01054430 70892.82356562 0 -4609.87855238 0 38583.72320757 0 -13265.40428598 0 3239.82735815 0 105
0.01150000 0.01145670 70287.35512422 0 7321.09946398 0 35672.06218472 0 -2564.95020625 0 -11963.85232411 0 144
0.01250000 0.01249090 76393.50269209 0 5844.32877271 0 65653.78577516 0 -1882.93032351 0 8721.21889313 0 169
0.01350000 0.01339930 58418.11071007 0 5814.59327370 0 46371.85079264 0 -6264.18603319 0 -9362.48971828 0 180
0.01450000 0.01448870 64776.13936064 0 2784.20098752 0 82670.12195706 0 14208.37785052 0 28930.16720777 0 267
0.01550000 0.01550050 63682.32551761 0 -6611.35158887 0 34941.92868962 0 25268.96309517 0 -18206.64343839 0 238
0.01650000 0.01653350 76669.67349610 0 -12282.94606031 0 52460.14153343 0 23162.96661864 0 23853.17180473 0 315
0.01750000 0.01747870 88363.89882240 0 -1241.90350469 0 19042.14330449 0 5339.03602215 0 -15482.20182002 0 297
0.01850000 0.01844180 89053.99309652 0 1548.30891158 0 26892.38159248 0 2096.28058800 0 36668.60623052 0 388
0.01950000 0.01947590 78857.41209414 0 4764.93348571 0 20686.96781192 0 -7036.53262388 0 -15159.55890080 0 399
0.02050000 0.02045430 85334.44928796 0 5305.47406018 0 45320.40532195 0 -16725.74682186 0 -10977.98910097 0 462
0.02150000 0.02154770 68515.64732371 0 6607.31439318 0 40430.07476354 0 -9090.55575151 0 -17416.06291992 0 571
0.02250000 0.02255340 65675.30269724 0 6238.53209465 0 59455.24853670 0 -4184.84170293 0 -17035.08030474 0 510
0.02350000 0.02348930 64459.04203989 0 -3210.96806369 0 49379.67249303 0 15282.56027496 0 -6282.65287611 0 555
0.02450000 0.02439640 67810.57993371 0 -5599.11349939 0 43204.42676817 0 22798.62079889 0 -21991.51439697 0 592
0.02550000 0.02547300 71356.32468608 0 223.51978298 0 35881.13124719 0 4186.69393282 0 2315.23190696 0 837
0.02650000 0.02652900 68096.95463891 0 3801.68521315 0 25859.23659675 0 204.85329851 0 -13021.50886509 0 723
0.02750000 0.02749970 63236.23757635 0 4734.86525079 0 34250.28164793 0 -1185.84859531 0 13394.94946634 0 826
0.02850000 0.02848090 61419.49951623 0 1875.17757684 0 32700.61961032 0 2583.60559951 0 -439.97114614 0 831
0.02950000 0.02946900 58895.47582673 0 319.85348319 0 31825.74599505 0 8205.18986392 0 5812.47485508 0 996
0.03050000 0.03053250 56145.85719129 0 1795.64260352 0 27279.57527794 0 1527.90110919 0 1341.84628039 0 1041
0.03150000 0.03150510 54251.36984057 0 2447.40570099 0 21294.76540468 0 -2578.63674328 0 -6011.61729628 0 1036
0.03250000 0.03246190 50111.91331555 0 1965.87029428 0 29042.52103286 0 1825.71083845 0 5536.43714543 0 1059
0.03350000 0.03345080 49404.84951010 0 332.01276241 0 21723.10743082 0 1868.09030199 0 -9665.62322207 0 1302
0.03450000 0.03451200 49386.32721120 0 -596.40249702 0 20847.23560782 0 5894.89353960 0 540.71470626 0 1339
0.03550000 0.03553350 49116.25656551 0 -383.94729212 0 14436.30194781 0 4744.62550410 0 -5710.62439350 0 1365
0.03650000 0.03647120 51277.59811481 0 -2072.57870012 0 11188.68856940 0 5331.99311209 0 5594.96539173 0 1308
0.03750000 0.03744890 50468.60620941 0 -277.91323105 0 8949.34263196 0 7441.83823396 0 2872.36491206 0 1579
0.03850000 0.03847530 52393.70526371 0 678.33316887 0 4373.85788132 0 -3108.74050142 0 5144.64061324 0 1662
0.03950000 0.03950240 49805.68536781 0 1614.47899257 0 11493.36374957 0 -5287.51741232 0 2090.79044551 0 1683
0.04050000 0.04050350 48777.75323465 0 1666.14178796 0 13462.05120787 0 -5338.37055033 0 -3332.63849421 0 1822
0.04150000 0.04152450 47779.87824522 0 1203.41705128 0 19087.83903592 0 -1839.18664274 0 4294.23417843 0 1887
0.04250000 0.04250150 46656.00725845 0 78.79907240 0 15718.88796290 0 1312.46569967 0 -9424.71133316 0 1920
0.04350000 0.04349210 48286.63503378 0 100.28083538 0 18590.84250067 0 3242.56688380 0 1680.11669611 0 2005
0.04450000 0.04448520 45590.25414370 0 585.12274972 0 15084.13876155 0 1225.74363073 0 -5803.10279366 0 2151
0.04550000 0.04548030 45515.83221218 0 1851.18731784 0 19322.97241122 0 454.70025569 0 4726.24739076 0 2274
0.04650000 0.04648670 43264.76287957 0 1340.55970154 0 16811.14903836 0 269.88320446 0 1384.69157420 0 2311
0.04750000 0.04749250 41276.33309069 0 1046.54759812 0 18942.43344393 0 151.19076032 0 1865.05131403 0 2568
0.04850000 0.04851840 40210.02541609 0 463.55213997 0 20992.41937587 0 971.61768978 0 3945.69331433 0 2493
0.04950000 0.04949480 40123.62499186 0 852.09895146 0 19034.82311451 0 -575.50002725 0 -2206.53817686 0 2644
0.05050000 0.05050630 39600.00958393 0 388.76974455 0 21232.65470177 0 -1748.51610769 0 1257.20935647 0 2829
0.05150000 0.05149060 38641.06469579 0 1004.02394902 0 21567.71976157 0 -2127.79067853 0 -9104.20901495 0 2784
0.05250000 0.05249300 38632.08082626 0 848.87141315 0 25547.57396251 0 -1784.21867067 0 -2913.47997915 0 3055
0.05350000 0.05348950 36452.88244988 0 100.10770180 0 22372.05336426 0 261.08677616 0 -9306.30171454 0 3009
0.05450000 0.05448610 38946.51625974 0 -83.24475687 0 22952.45570056 0 2910.72936230 0 -7491.00551003 0 3336
0.05550000 0.05550870 37253.55595757 0 -517.84354903 0 18698.09437516 0 1238.39868645 0 -8411.06466167 0 3349
0.05650000 0.05647670 37828.96725524 0 298.46521900 0 20034.47269545 0 1393.38707261 0 -6948.95653277 0 3324
0.05750000 0.05747970 37550.13456396 0 841.01662747 0 15834.23641116 0 1199.72368269 0 -8242.57828883 0 3639
0.05850000 0.05849280 36830.87044187 0 -464.22981211 0 13477.57888360 0 3156.44373949 0 -10292.49767359 0 3846
0.05950000 0.05951020 36922.48372866 0 85.72086659 0 12940.21039146 0 610.05132398 0 -6514.31470677 0 3787
0.06050000 0.06049470 35317.03297041 0 1039.38823049 0 11553.92168490 0 -364.68742862 0 -10667.35794804 0 3930
0.06150000 0.06148310 34571.81544746 0 1572.94246000 0 12623.88945450 0 -1858.97333810 0 -7483.75186722 0 4083
0.06250000 0.06249100 32114.56076358 0 883.94399614 0 13481.90445041 0 -75.14285932 0 -9301.12212557 0 4303
0.06350000 0.06350600 31986.79017473 0 527.94430209 0 13128.98256352 0 1327.19480922 0 -6726.62239875 0 4470
0.06450000 0.06451750 31293.81218941 0 142.18359928 0 14513.94032644 0 2049.65319603 0 -5797.73465434 0 4479
0.06550000 0.06550280 30696.44032178 0 -215.99995145 0 9549.87549072 0 2702.98015227 0 -5513.92201563 0 4636
0.06650000 0.06648880 31648.17593191 0 300.73669613 0 12172.92138658 0 -191.57269929 0 -2530.84477563 0 4653
0.06750000 0.06749660 30374.57378634 0 786.25273342 0 9826.15720670 0 -125.51463938 0 -3718.37923288 0 5220
0.06850000 0.06852730 29228.52040568 0 818.88081660 0 12452.30863771 0 965.92346926 0 68.39231321 0 5029
0.06950000 0.06949320 28274.34473223 0 1051.83477170 0 9025.84970851 0 515.84158798 0 -2619.68526319 0 5040
0.07050000 0.07048030 26502.74784369 0 684.33350642 0 12429.12803609 0 452.96226513 0 491.88903906 0 5475
0.07150000 0.07148790 26761.28364455 0 616.42432575 0 9848.36178299 0 1517.30901611 0 -393.52897716 0 5509
0.07250000 0.07249820 25150.73093570 0 206.51365070 0 9294.06812431 0 326.64018660 0 505.99815069 0 5916
0.07350000 0.07351270 24368.46881494 0 608.59837718 0 10025.10000636 0 -135.80616103 0 -241.95557055 0 5721
0.07450000 0.07449140 24062.57360311 0 420.99854464 0 10210.32299540 0 133.32284204 0 364.33583767 0 6028
0.07550000 0.07549160 23708.54259652 0 20.72722886 0 9192.88313455 0 804.80719679 0 1381.06475280 0 6183
0.07650000 0.07648840 23959.75820740 0 -75.08740334 0 9241.47366838 0 460.78266809 0 729.03879396 0 6330
0.07750000 0.07749960 24092.96348275 0 214.04124607 0 8859.07138000 0 319.49856489 0 675.99958104 0 6583
0.07850000 0.07848650 23998.13374884 0 79.48140283 0 10013.44315837 0 -794.37814430 0 1736.55979738 0 6549
0.07950000 0.07947320 23717.41555408 0 464.80544523 0 9925.01304510 0 172.99827176 0 1631.38197672 0 6828
0.08050000 0.08048110 23013.45728378 0 596.97369366 0 10277.97929678 0 -632.14498830 0 376.49178953 0 7147
0.08150000 0.08149960 22780.32032392 0 150.64618255 0 10687.07809622 0 1642.71718000 0 2813.89212175 0 7386
0.08250000 0.08250610 22507.14414309 0 6.46985010 0 10765.03811957 0 1235.92534953 0 2101.81509528 0 7227
0.08350000 0.08350160 22204.35446640 0 420.83439493 0 9819.25848220 0 205.28474608 0 2454.23787831 0 7798
0.08450000 0.08449610 21782.99989434 0 320.99476736 0 9774.52768491 0 390.72955905 0 2646.88087810 0 7371
0.08550000 0.08548940 21248.40420144 0 341.79963459 0 8730.00312111 0 264.78679946 0 2287.09354030 0 8256
0.08650000 0.08650700 20694.17708993 0 118.83219322 0 9430.51202917 0 666.83381588 0 2052.04889457 0 8037
0.08750000 0.08749060 20620.30971826 0 272.98873961 0 8733.86285765 0 -87.11336637 0 1696.03256373 0 8155
0.08850000 0.08849210 20071.51729326 0 398.13847861 0 8527.56659441 0 266.57248217 0 1650.94684814 0 8718
0.08950000 0.08949900 19527.60499492 0 255.72196420 0 8148.31420597 0 -201.32297053 0 470.77361831 0 8571
0.09050000 0.09049190 19371.33002992 0 213.97802624 0 8306.81850155 0 249.26799669 0 1620.14659421 0 8932
0.09150000 0.09150830 19319.31231623 0 259.04821416 0 8546.07780212 0 -301.34449372 0 -872.02650502 0 9285
0.09250000 0.09250820 19132.09291175 0 -24.32510223 0 7713.10672891 0 332.52961218 0 99.23504642 0 9204
0.09350000 0.09350330 18967.94319691 0 253.24197256 0 9341.76027119 0 -574.52400192 0 -775.65176738 0 9349
0.09450000 0.09448040 18762.64514140 0 176.67833091 0 7497.15003314 0 60.10430538 0 -926.84030946 0 9564
0.09550000 0.09549270 19010.97704107 0 -33.00374202 0 8916.14667949 0 627.33806355 0 -1458.29275715 0 10155
0.09650000 0.09649430 18468.83933424 0 415.87662989 0 7890.11114101 0 -704.05143636 0 -2758.60250496 0 9913
0.09750000 0.09749140 18245.68445164 0 340.60511268 0 8537.11611499 0 -52.64702820 0 -1493.11911556 0 10476
0.09850000 0.09850240 17774.64131725 0 -5.11657988 0 8483.76745766 0 -55.51698632 0 -2987.23643885 0 10575
0.09950000 0.09950330 17764.88106394 0 312.34363374 0 8514.14624611 0 184.06174071 0 -1583.59000907 0 10882
0.10050000 0.10051200 17711.86514253 0 -36.90240866 0 8637.95727764 0 1035.13697470 0 -2427.35281691 0 10875
0.10150000 0.10150300 17389.88769512 0 151.38041979 0 7331.00390285 0 485.94748485 0 -1786.12635654 0 11118
0.10250000 0.10250800 17233.72364209 0 174.18281159 0 7651.77240979 0 225.15462541 0 -1216.95940275 0 11575
0.10350000 0.10349800 16950.67629597 0 197.93350074 0 7574.26712552 0 -88.50841712 0 -1130.98044401 0 11364
0.10450000 0.10450100 16891.11656836 0 85.22497917 0 6903.47153409 0 1161.92488349 0 -788.83920055 0 12093
0.10550000 0.10551000 16723.19584656 0 25.60058988 0 7092.29916213 0 186.38756471 0 -1218.86708862 0 12067
0.10650000 0.10649700 16597.97623302 0 306.15141848 0 6489.57024637 0 205.22485361 0 -407.63032496 0 12054
0.10750000 0.10749900 16100.97969777 0 252.05077801 0 6184.44032713 0 742.74862251 0 -162.97515708 0 12807
0.10850000 0.10850100 15811.38854545 0 255.69978180 0 6434.18080882 0 -183.34857675 0 245.88629074 0 12736
0.10950000 0.10950300 15462.34857749 0 267.43759553 0 5876.70397661 0 422.24630430 0 34.80839068 0 12933
0.11050000 0.11050200 15041.54856527 0 284.99939678 0 5962.97130647 0 193.28961658 0 916.93032498 0 13428
0.11150000 0.11150900 14803.08783088 0 200.63198896 0 5903.30066689 0 322.14492448 0 655.08491095 0 13453
0.11250000 0.11250000 14753.62109250 0 -137.10494020 0 5308.03612668 0 769.23772818 0 841.70871816 0 13668
0.11350000 0.11349100 14733.98967390 0 -143.66760143 0 5060.91316747 0 335.91020901 0 658.80600753 0 13791
0.11450000 0.11448600 14705.81803365 0 139.42743684 0 4891.71695803 0 428.84002088 0 825.86605244 0 14205
0.11550000 0.11549300 14694.72683670 0 88.39528691 0 4493.89790589 0 91.85707130 0 1100.02824068 0 14776
0.11650000 0.11649800 14572.94549421 0 169.64429380 0 4638.61584367 0 -628.42832821 0 120.20639252 0 14553
0.11750000 0.11747300 14298.43836974 0 343.51655188 0 4797.41960158 0 -196.13783595 0 393.63212529 0 14568
0.11850000 0.11849100 13925.88506425 0 81.45596863 0 5237.79557640 0 -92.80803053 0 -74.70608799 0 16015
0.11950000 0.11950300 14073.61980760 0 7.50144233 0 4892.07187633 0 -79.23296002 0 -1090.72383556 0 15270
0.12050000 0.12050700 14218.47083974 0 -200.48558516 0 4858.80937668 0 371.16246939 0 -817.96246550 0 15999
0.12150000 0.12150000 14227.89835715 0 160.58611325 0 4953.41728665 0 -130.09752196 0 -1384.17028794 0 15670
0.12250000 0.12250700 14152.81095381 0 273.12405221 0 5158.51570062 0 -516.36952896 0 -1245.29741095 0 16887
0.12350000 0.12352200 13866.10351270 0 257.70617933 0 5389.90025135 0 -383.60013765 0 -1709.49727683 0 16407
0.12450000 0.12449800 13556.99185375 0 119.39451691 0 5447.75193463 0 189.14927275 0 -849.07549117 0 16306
0.12550000 0.12549900 13524.60555866 0 54.75701751 0 5816.61187154 0 415.98088714 0 -999.90800583 0 17523
0.12650000 0.12650100 13555.88273406 0 -47.53664830 0 5112.79778680 0 1173.00498924 0 23.14455523 0 17154
0.12750000 0.12750600 13628.19733816 0 -226.23823535 0 4078.99841045 0 1143.03657509 0 905.39880752 0 18007
0.12850000 0.12850300 13848.57942152 0 -155.68713156 0 3755.78984018 0 769.99303869 0 670.87655717 0 17496
0.12950000 0.12949900 13785.24868695 0 100.95362739 0 3091.82642607 0 229.83954700 0 1210.37123176 0 18405
0.13050000 0.13049000 13468.92774998 0 284.29621490 0 4018.10773921 0 -404.41276872 0 1264.88446476 0 18100
0.13150000 0.13148800 13025.94534387 0 447.14160497 0 3432.20416922 0 -332.16693004 0 1429.53328346 0 19059
0.13250000 0.13249300 12887.08355808 0 57.64361243 0 3938.92768419 0 -9.79207396 0 671.45329941 0 18957
0.13350000 0.13349100 12560.33689598 0 127.76504325 0 3911.21078302 0 63.00642798 0 615.44053658 0 19468
0.13450000 0.13450700 12453.86140528 0 286.62647537 0 4073.70790951 0 -120.99497663 0 775.19813742 0 19953
0.13550000 0.13551000 12158.72465449 0 168.72261534 0 3813.07587242 0 58.26593949 0 758.92846062 0 19956
0.13650000 0.13649900 12019.64104476 0 2.90487321 0 4081.06137308 0 331.42492897 0 762.08834263 0 19723
0.13750000 0.13749600 11924.47857494 0 224.10983466 0 3560.89532741 0 217.40631522 0 598.12828726 0 20946
0.13850000 0.13851100 11809.90651047 0 173.74914579 0 4009.54533516 0 129.32002906 0 1318.37730764 0 20955
0.13950000 0.13949800 11225.51134327 0 187.14509347 0 4043.48439782 0 199.16795096 0 1548.32000277 0 20506
0.14050000 0.14048300 11274.53443378 0 241.65610823 0 3783.90602445 0 94.74322257 0 2193.63911481 0 21447
0.14150000 0.14148400 11050.24824909 0 -39.48832123 0 3287.88551453 0 632.70287551 0 1817.39244074 0 21771
0.14250000 0.14249400 10928.85509849 0 105.46896458 0 3418.65072655 0 317.47331233 0 2162.19557147 0 22470
0.14350000 0.14350900 10873.29929298 0 162.69344067 0 3303.56846701 0 -60.04286015 0 2190.73322121 0 22519
0.14450000 0.14449900 10408.79996479 0 270.90803106 0 3329.95442455 0 -262.41771979 0 1513.07217887 0 22218
0.14550000 0.14550500 10294.63827460 0 251.68033203 0 3637.33585678 0 -356.62634667 0 2118.54062028 0 23559
0.14650000 0.14650700 9949.19185445 0 1.64273936 0 3612.96849708 0 120.97390335 0 1444.82804405 0 23044
0.14750000 0.14750500 10204.65539376 0 -76.16646589 0 3492.60682780 0 357.08884959 0 1748.71574924 0 23649
0.14850000 0.14849900 10279.34351401 0 -20.59790550 0 3406.33949794 0 277.93541345 0 1187.45681887 0 23640
0.14950000 0.14949500 10121.59341981 0 161.46120869 0 3493.49412355 0 -467.35642053 0 1837.33441285 0 24457
0.15050000 0.15050000 10256.06309161 0 -1.69602147 0 3534.59809944 0 52.28756251 0 1130.28169860 0 24591
0.15150000 0.15149900 10205.29868318 0 72.16232197 0 3869.89607439 0 -244.47992697 0 1480.98534610 0 25020
0.15250000 0.15250500 10214.62637981 0 97.17141832 0 3542.69467322 0 60.27089516 0 1115.31967392 0 25297
0.15350000 0.15350100 10144.04200244 0 -32.86687665 0 4097.70925970 0 95.93585898 0 904.94739580 0 25452
0.15450000 0.15450400 10228.86747670 0 6.43647669 0 3808.02937781 0 1.79595316 0 852.04793196 0 26061
0.15550000 0.15549900 10088.94093600 0 206.52252365 0 3802.80542405 0 75.17391468 0 357.74101197 0 26128
0.15650000 0.15649500 9986.90192407 0 5.26743125 0 3491.79717042 0 159.43928349 0 1215.93901263 0 26331
0.15750000 0.15749700 9846.08808762 0 6.98803082 0 3281.00897242 0 393.77852909 0 218.49214340 0 27345
0.15850000 0.15849900 10009.99379612 0 79.82134802 0 3107.54265215 0 270.26917811 0 834.52605902 0 26980
0.15950000 0.15949700 9582.39488017 0 175.62355808 0 2871.35561314 0 -216.06317127 0 310.84964951 0 27777
0.16050000 0.16050000 9439.51808109 0 286.29041211 0 2974.81429827 0 -109.60908658 0 211.53796291 0 28224
0.16150000 0.16150500 9112.12812957 0 147.15911023 0 2767.87474561 0 65.73064777 0 57.99176510 0 28075
0.16250000 0.16249700 8981.31855276 0 140.99351385 0 2955.44906840 0 104.31315095 0 161.24936683 0 28590
0.16350000 0.16349900 8684.79540235 0 60.36738857 0 2817.98477342 0 347.29975916 0 426.41215787 0 29163
0.16450000 0.16449100 8682.29988304 0 41.97718583 0 2232.08120344 0 328.00662207 0 219.93399900 0 28996
0.16550000 0.16550500 8594.82361271 0 112.91614877 0 2510.50352043 0 107.87874894 0 490.64682500 0 30777
0.16650000 0.16650700 8378.94455531 0 68.21075032 0 2245.90083483 0 29.67194646 0 58.09136405 0 29211
0.16750000 0.16749900 8480.40682499 0 15.62716376 0 2073.99837333 0 65.15346188 0 1012.00628346 0 30922
0.16850000 0.16850800 8291.65683532 0 9.79834048 0 2124.47441064 0 157.62365455 0 30.45187943 0 30867
0.16950000 0.16949900 8364.30417534 0 94.43688371 0 2044.41815107 0 -43.06024121 0 614.36136312 0 30852
0.17050000 0.17049200 8283.58244395 0 134.89113728 0 2122.69981913 0 -163.56409963 0 -37.47471442 0 31257
0.17150000 0.17149500 8108.97373039 0 120.71880582 0 2312.20401019 0 -98.44036216 0 81.49534238 0 32608
0.17250000 0.17250900 8051.67660696 0 110.07380773 0 2395.09961618 0 25.03837711 0 527.81009861 0 32361
0.17350000 0.17350400 7856.09443997 0 -2.95138969 0 2053.33547342 0 195.75740790 0 39.33326630 0 32508
0.17450000 0.17449800 8097.00632888 0 -32.65370385 0 2175.43846062 0 313.58030220 0 490.34070796 0 32791
0.17550000 0.17549800 8028.25199900 0 5.64527506 0 1933.92764707 0 67.34120048 0 275.78815772 0 33633
0.17650000 0.17650100 7897.27605424 0 128.62793837 0 2092.65376660 0 0.48932365 0 653.10845966 0 33984
0.17750000 0.17750300 7848.84079717 0 103.19416009 0 2082.16149429 0 -180.98947916 0 549.77177769 0 34069
0.17850000 0.17849800 7744.21753635 0 74.08376093 0 2083.73644425 0 -52.72067375 0 749.69836652 0 34536
