### header ###
fiducial parameters:
Omega_m = 0.31
Omega_nu = 0
Omega_de = 0.69
Omega_k = 0
H_0 = 100
w_de = -1
zeff = 0
beta = 0
fgrowth = 0
b_1 = 2
gamma = 0.55
Lx = 3500 Ly = 3500 Lz = 3500
nx = 700 ny = 700 nz = 700
xoffset = 1379.75464 yoffset = 22.6059522 zoffset = 368.141391
bins = 400 dk = 0.001
kx_ny = 0.628318531 ky_ny = 0.628318531 kz_ny = 0.628318531
############################
A(data) = 3.40926251 (not used)
A(ran) = 3.41104213 (used)
Ngal = 191057
weighted Ngal = 0
Nran = 9399747
weighted Nran = 0
SN(data) = 6591.03259
SN(ran) = 135.675507
SN(data+ran) = 6726.7081
############################
13 columns: k_central k_mean P_0(k) sigma^{lin}_{P_0(k)} P^img_1(k) sigma^{lin}_{P_1(k)} P_2(k) sigma^{lin}_{P_2(k)} P^img_3(k) sigma^{lin}_{P_3(k)} P_4(k) sigma^{lin}_{P_4(k)} N_modes
### header ###
0.00050000 0 0 0 0 0 0 0 0 0 0 0 0
0.00150000 0.00179520 22015.02773450 0 -12214.51337514 0 14350.01243555 0 -34899.11666940 0 79766.44659601 0 3
0.00250000 0.00253879 20357.00470271 0 -6296.47250751 0 -13546.23339271 0 -796.60082017 0 -29824.33950574 0 6
0.00350000 0.00331552 32029.60219496 0 -6774.89128787 0 -15938.49366247 0 1290.73804485 0 2293.47097854 0 7
0.00450000 0.00420575 42460.76201279 0 -15009.38409412 0 -34993.83549134 0 5915.16824762 0 -4649.39648710 0 24
0.00550000 0.00557378 67183.92730613 0 -20690.29517100 0 -43508.99103637 0 -4802.32191063 0 -5902.92356619 0 45
0.00650000 0.00659388 71254.50749810 0 -14331.93378452 0 -46347.22833542 0 -33605.32854539 0 -10479.20688301 0 40
0.00750000 0.00754703 92943.23221838 0 933.29538608 0 -31251.00016919 0 -38254.09283427 0 -21173.98226991 0 57
0.00850000 0.00846663 92961.31086941 0 760.32262407 0 -37662.15565314 0 -20298.33227085 0 6804.60460449 0 75
0.00950000 0.00948925 84936.94078934 0 -450.46452757 0 -17320.90045010 0 -10064.35175236 0 -5803.45771196 0 112
0.01050000 0.01054430 95457.27383063 0 -4902.33123351 0 -17842.85217848 0 -8238.62982272 0 -12353.92972078 0 105
0.01150000 0.01145670 97309.94736886 0 2900.81383223 0 2143.66218136 0 -15333.02522107 0 -14738.09341677 0 144
0.01250000 0.01249090 96300.75935855 0 3992.01015279 0 6294.91973993 0 -14090.25660302 0 -8792.06945923 0 169
0.01350000 0.01339930 84392.14119524 0 6257.43149425 0 27921.86649321 0 -14459.14981352 0 -12168.04125993 0 180
0.01450000 0.01448870 82705.50287532 0 7681.70755035 0 33836.69091373 0 -6199.29143985 0 -9245.14485457 0 267
0.01550000 0.01550050 78192.82757300 0 8369.31739636 0 65634.04344459 0 -8686.74745301 0 -10800.92923289 0 238
0.01650000 0.01653350 70412.35291382 0 4839.63269716 0 56180.35081380 0 8409.61171487 0 569.53407241 0 315
0.01750000 0.01747870 68828.41907765 0 3015.30825833 0 68608.25881822 0 19357.57694570 0 2162.39521301 0 297
0.01850000 0.01844180 61455.65681828 0 6217.85810354 0 56644.40649412 0 -7583.00698871 0 12516.63758001 0 388
0.01950000 0.01947590 63413.58581555 0 211.49803461 0 70775.25687797 0 20066.74807857 0 18912.15447626 0 399
0.02050000 0.02045430 59679.17980309 0 -169.97481147 0 54225.74917562 0 17993.80336895 0 11400.64134308 0 462
0.02150000 0.02154770 66129.15447636 0 -4238.68946411 0 43691.44122616 0 15917.19856433 0 23326.67268559 0 571
0.02250000 0.02255340 66603.85770574 0 -3618.54736915 0 38603.68736208 0 6153.46261406 0 4219.13568389 0 510
0.02350000 0.02348930 71710.46660464 0 535.48077042 0 26960.14880583 0 2280.90465240 0 8388.26116074 0 555
0.02450000 0.02439640 69176.46083788 0 402.69917880 0 28588.55834177 0 -1274.82217723 0 -6928.00526174 0 592
0.02550000 0.02547300 66612.84157527 0 4912.35767555 0 29074.90732795 0 -6707.25716888 0 -1377.09410429 0 837
0.02650000 0.02652900 64517.82538372 0 1326.34078705 0 29153.54391431 0 5280.66305261 0 -7483.50786089 0 723
0.02750000 0.02749970 61991.02889498 0 -2502.51785862 0 21784.33083797 0 12637.08797887 0 -9490.16048635 0 826
0.02850000 0.02848090 67351.95893990 0 -3476.10312674 0 9343.41285953 0 12485.80405249 0 -6982.70704509 0 831
0.02950000 0.02946900 63501.98265523 0 210.37338724 0 6383.34985320 0 4262.46899037 0 -1604.41927694 0 996
0.03050000 0.03053250 61945.00042764 0 5520.82074013 0 5737.89764680 0 -8791.55926418 0 -531.99924370 0 1041
0.03150000 0.03150510 55761.76904098 0 5110.57954741 0 13840.37193578 0 -4706.37196583 0 -6699.83715812 0 1036
0.03250000 0.03246190 49824.31857868 0 2961.28303799 0 13416.13365251 0 -7383.09925492 0 -2990.24215323 0 1059
0.03350000 0.03345080 46821.70974086 0 2250.32622242 0 24464.62949248 0 1693.54813561 0 -4530.17721111 0 1302
0.03450000 0.03451200 46416.10466846 0 313.47049935 0 15600.54489146 0 2783.10295902 0 -4696.64498610 0 1339
0.03550000 0.03553350 45449.95050230 0 -1183.38634959 0 18161.50226681 0 8095.52010849 0 -4197.20838753 0 1365
0.03650000 0.03647120 46118.86059025 0 202.89570225 0 12868.67217114 0 1790.24119061 0 520.23702934 0 1308
0.03750000 0.03744890 45750.07829172 0 -4.51551465 0 12475.04559145 0 2961.38285877 0 -285.09034460 0 1579
0.03850000 0.03847530 45240.54870392 0 242.46798384 0 9623.89813915 0 1927.21747292 0 -907.65364786 0 1662
0.03950000 0.03950240 44294.46960424 0 1180.45827359 0 7574.37803749 0 -1193.17987649 0 4832.15723042 0 1683
0.04050000 0.04050350 42719.51963759 0 1489.37029100 0 9527.34926972 0 -2261.65033450 0 -2935.77328501 0 1822
0.04150000 0.04152450 41392.12518683 0 2440.89516838 0 11734.04272334 0 -2854.86300328 0 -537.13224965 0 1887
0.04250000 0.04250150 38322.63643141 0 1252.66196573 0 12387.75787147 0 -755.15412630 0 -6697.35273000 0 1920
0.04350000 0.04349210 37714.50610274 0 -341.65877639 0 13926.77236001 0 1595.18030988 0 -885.67976846 0 2005
0.04450000 0.04448520 38738.00175712 0 -1404.51154314 0 8889.99363709 0 6242.40292238 0 -7122.66685938 0 2151
0.04550000 0.04548030 39203.05564516 0 -522.07927715 0 7985.46216118 0 2457.08831592 0 357.76873996 0 2274
0.04650000 0.04648670 39157.47082570 0 938.71232667 0 3544.01452565 0 -1099.36276887 0 -2777.46863097 0 2311
0.04750000 0.04749250 38515.40143437 0 175.02241520 0 5095.73952589 0 2652.35992939 0 200.84050346 0 2568
0.04850000 0.04851840 37153.95700897 0 1439.83700542 0 3986.19836559 0 -765.37466428 0 1324.01163569 0 2493
0.04950000 0.04949480 35630.13746026 0 1250.59900309 0 4946.33001180 0 607.92403241 0 2197.63194571 0 2644
0.05050000 0.05050630 33834.80541025 0 1091.83184614 0 5956.37204429 0 -134.33768656 0 2243.29440355 0 2829
0.05150000 0.05149060 33080.38219383 0 817.05076911 0 9541.57927540 0 -274.88089781 0 6772.99469319 0 2784
0.05250000 0.05249300 31690.76612819 0 -30.84217865 0 7762.93947680 0 1224.45705189 0 5392.95033051 0 3055
0.05350000 0.05348950 33727.66444773 0 -602.21095686 0 8479.73026198 0 982.98949401 0 6290.74944988 0 3009
0.05450000 0.05448610 33749.73592965 0 -315.79632335 0 8136.55753720 0 19.27760942 0 4561.47656890 0 3336
0.05550000 0.05550870 33990.41490343 0 664.13421854 0 10187.49731208 0 -3060.92635138 0 5210.87724141 0 3349
0.05650000 0.05647670 33570.16945106 0 748.46169806 0 11436.02226134 0 -2265.36588548 0 2833.85627626 0 3324
0.05750000 0.05747970 33815.72855150 0 -16.96165658 0 12204.75312182 0 -274.20211655 0 849.66332461 0 3639
0.05850000 0.05849280 33932.62976733 0 -159.25295138 0 12365.13182970 0 711.08103698 0 -1686.49413436 0 3846
0.05950000 0.05951020 33710.58400443 0 298.46521900 0 11071.16624653 0 916.35136450 0 1816.31659463 0 3787
0.06050000 0.06049470 33085.81688033 0 780.95890512 0 12728.36852975 0 648.97033407 0 -1071.95531209 0 3930
0.06150000 0.06148310 32113.45164388 0 655.87904065 0 10294.99319290 0 1092.32318616 0 1598.11947707 0 4083
0.06250000 0.06249100 31394.74208164 0 493.73683247 0 12273.62945487 0 707.62502001 0 1239.87381564 0 4303
0.06350000 0.06350600 30470.95628782 0 553.97977781 0 11515.32431952 0 -588.07300811 0 2981.73520517 0 4470
0.06450000 0.06451750 30076.77514828 0 89.82682770 0 11886.87941729 0 1583.10199640 0 849.88514855 0 4479
0.06550000 0.06550280 29813.24830879 0 756.33533877 0 12508.20827033 0 -998.43287664 0 3558.92109435 0 4636
0.06650000 0.06648880 30003.90598433 0 328.52790832 0 12409.49661749 0 574.06149901 0 2965.91915832 0 4653
0.06750000 0.06749660 28701.68855064 0 83.98476153 0 12229.15375511 0 1375.27514799 0 4500.39734730 0 5220
0.06850000 0.06852730 29792.06412262 0 827.47205776 0 12903.72035350 0 -602.01353355 0 3064.23152807 0 5029
0.06950000 0.06949320 27694.82969168 0 707.29228411 0 11971.94889788 0 -107.02561407 0 3014.48750975 0 5040
0.07050000 0.07048030 27792.43222483 0 -16.72086670 0 13468.26227817 0 899.62140303 0 3928.13594956 0 5475
0.07150000 0.07148790 26926.65339105 0 232.41714117 0 12277.40046183 0 772.11367555 0 1207.58734133 0 5509
0.07250000 0.07249820 26597.57757759 0 556.86348902 0 11489.59274260 0 427.98156224 0 2521.27307266 0 5916
0.07350000 0.07351270 26353.46033276 0 45.60245446 0 10932.14918399 0 1027.83342151 0 923.78690294 0 5721
0.07450000 0.07449140 26198.73813534 0 15.27490735 0 10476.76681968 0 1589.42397867 0 2663.88368302 0 6028
0.07550000 0.07549160 26015.06791387 0 116.77255795 0 7799.64024750 0 2117.15422066 0 2002.70415935 0 6183
0.07650000 0.07648840 25556.89056794 0 -20.86531426 0 7710.63339200 0 1036.57328470 0 2685.45606109 0 6330
0.07750000 0.07749960 25133.65049240 0 403.88371863 0 7172.99871113 0 299.88821956 0 2839.87879620 0 6583
0.07850000 0.07848650 25013.31100551 0 253.79320505 0 6722.04173441 0 535.82903400 0 2729.86521367 0 6549
0.07950000 0.07947320 24250.68030335 0 604.26171918 0 7881.62637535 0 -612.54240682 0 4252.49800431 0 6828
0.08050000 0.08048110 23856.27733987 0 195.18177478 0 6967.48992287 0 28.71832535 0 2413.49991192 0 7147
0.08150000 0.08149960 23733.49778965 0 -95.42122744 0 7076.69384803 0 1023.63651258 0 4352.88442789 0 7386
0.08250000 0.08250610 23759.56210248 0 41.67406341 0 6851.32072604 0 729.61331796 0 2353.68508678 0 7227
0.08350000 0.08350160 23974.50949934 0 137.47982265 0 5657.40883055 0 365.39061050 0 3468.40583606 0 7798
0.08450000 0.08449610 23168.51221711 0 191.10021430 0 5190.80217493 0 528.12841596 0 3181.33238545 0 7371
0.08550000 0.08548940 22953.23208435 0 663.71164394 0 5842.48763402 0 -842.68696173 0 1331.94184151 0 8256
0.08650000 0.08650700 22140.91281986 0 499.16264601 0 5957.23715765 0 -435.56794095 0 1325.86386558 0 8037
0.08750000 0.08749060 21658.44575261 0 170.58704554 0 5453.59699543 0 527.48512654 0 444.29671295 0 8155
0.08850000 0.08849210 21253.39524006 0 515.30699229 0 6567.41935775 0 72.78109985 0 361.64400417 0 8718
0.08950000 0.08949900 20679.42579799 0 453.86619768 0 5069.63084828 0 -395.85923764 0 49.72483054 0 8571
0.09050000 0.09049190 19803.55397499 0 67.52098878 0 6275.33268612 0 1129.26130848 0 1559.46665571 0 8932
0.09150000 0.09150830 20057.09873723 0 340.01617012 0 5307.18210451 0 92.67127607 0 159.01005417 0 9285
0.09250000 0.09250820 19565.20415257 0 291.37128943 0 6303.63742073 0 326.82762783 0 2043.41994335 0 9204
0.09350000 0.09350330 19259.86350059 0 109.06273422 0 5529.73806248 0 584.92643554 0 2284.30964987 0 9349
0.09450000 0.09448040 19323.41605910 0 -173.00381736 0 7011.96562264 0 -20.54655326 0 3009.69611267 0 9564
0.09550000 0.09549270 19333.06540045 0 328.63216558 0 5948.80784797 0 -266.74106837 0 2179.08746442 0 10155
0.09650000 0.09649430 19031.49575542 0 528.83936169 0 7067.24414823 0 -622.08970915 0 2114.07086791 0 9913
0.09750000 0.09749140 18294.04207034 0 661.10854001 0 8150.70990451 0 -1212.36764721 0 3005.39272826 0 10476
0.09850000 0.09850240 17874.46208979 0 353.25018632 0 8159.29449094 0 478.64725902 0 1833.26394357 0 10575
0.09950000 0.09950330 17590.74927185 0 25.04336815 0 8836.75589174 0 230.44401723 0 3215.23817452 0 10882
0.10050000 0.10051200 17330.54979145 0 176.75929664 0 8170.47441747 0 1346.99259577 0 2388.22307407 0 10875
0.10150000 0.10150300 17041.40228701 0 105.36870016 0 6583.71232607 0 665.71804147 0 2582.70721256 0 11118
0.10250000 0.10250800 17026.42917112 0 -22.13314898 0 7089.31563015 0 756.61816429 0 3001.57735651 0 11575
0.10350000 0.10349800 16569.91550474 0 128.34511285 0 5383.65590747 0 321.84324392 0 2043.81922644 0 11364
0.10450000 0.10450100 16787.30296492 0 32.77925620 0 5992.05242487 0 -110.37704105 0 2490.67246028 0 12093
0.10550000 0.10551000 16287.64454240 0 257.83372810 0 4902.35341590 0 -330.45666747 0 37.63642408 0 12067
0.10650000 0.10649700 16419.62978609 0 297.81527486 0 5681.51000151 0 -823.79754421 0 367.29829638 0 12054
0.10750000 0.10749900 15898.67626543 0 193.03673729 0 5969.07146479 0 -266.01681320 0 -814.82698412 0 12807
0.10850000 0.10850100 15909.10199056 0 0.18955188 0 6149.51414794 0 242.89610405 0 -1079.81564337 0 12736
0.10950000 0.10950300 15799.74278865 0 31.94153809 0 5340.41133057 0 554.47333607 0 -1243.73355218 0 12933
0.11050000 0.11050200 15707.24220610 0 206.64674506 0 5339.01383975 0 240.30630956 0 -1035.49632948 0 13428
0.11150000 0.11150900 15543.86887506 0 118.27097866 0 5280.68523500 0 417.70889563 0 -49.87378532 0 13453
0.11250000 0.11250000 15290.87867267 0 189.41213412 0 5249.79625150 0 530.40987518 0 381.89209332 0 13668
0.11350000 0.11349100 15191.05790013 0 171.30575510 0 5069.53102750 0 246.34990278 0 739.22938572 0 13791
0.11450000 0.11448600 14562.07612120 0 362.88067263 0 5445.75551918 0 -61.70443237 0 759.98212433 0 14205
0.11550000 0.11549300 14317.62614046 0 355.19114579 0 5906.55038759 0 -624.85807191 0 1151.27733442 0 14776
0.11650000 0.11649800 14183.53356936 0 255.17516819 0 5922.47734641 0 -169.14075346 0 816.49842750 0 14553
0.11750000 0.11747300 13823.06966854 0 -6.04515708 0 6046.98712335 0 452.69718552 0 1169.31162066 0 14568
0.11850000 0.11849100 14067.18691337 0 -271.78201738 0 5843.17528823 0 916.35136450 0 1223.10392586 0 16015
0.11950000 0.11950300 14365.31828734 0 -6.87701903 0 5244.19519704 0 375.99268566 0 595.23792134 0 15270
0.12050000 0.12050700 14053.10109325 0 156.23725493 0 4838.47921268 0 326.02240693 0 1363.06374015 0 15999
0.12150000 0.12150000 13681.54599548 0 264.63152271 0 4825.87961294 0 176.87020861 0 1168.65724004 0 15670
0.12250000 0.12250700 13619.54620454 0 81.29448080 0 4319.46665149 0 173.04152743 0 1502.67972733 0 16887
0.12350000 0.12352200 13706.50118861 0 -60.53808209 0 4241.44008095 0 241.27900753 0 575.80836252 0 16407
0.12450000 0.12449800 13425.78299385 0 238.61490202 0 4075.54904820 0 -11.54371778 0 417.54252767 0 16306
0.12550000 0.12549900 13297.56875713 0 36.66627708 0 3339.40412435 0 -115.21091742 0 -190.95159226 0 17523
0.12650000 0.12650100 12845.15883361 0 29.24282805 0 3439.83491272 0 194.29336990 0 -364.96470854 0 17154
0.12750000 0.12750600 13257.30771221 0 103.47876020 0 3049.49132732 0 165.47067639 0 -980.50728413 0 18007
0.12850000 0.12850300 12914.47881454 0 149.83763429 0 3048.74821713 0 -156.45575151 0 -1132.33357003 0 17496
0.12950000 0.12949900 12810.44338717 0 225.48181572 0 2846.42260240 0 5.31245042 0 -1370.61684527 0 18405
0.13050000 0.13049000 12453.63958134 0 189.33782310 0 3088.66543494 0 -521.05112319 0 -1261.67910885 0 18100
0.13150000 0.13148800 12349.27141806 0 257.37011606 0 3623.62713735 0 -225.17126220 0 -1197.59417288 0 19059
0.13250000 0.13249300 12099.60857475 0 86.66639113 0 3726.39816827 0 -75.38065459 0 -1497.22285843 0 18957
0.13350000 0.13349100 11993.46581996 0 83.19673199 0 4239.83185740 0 120.33394129 0 -1412.00919228 0 19468
0.13450000 0.13450700 11965.62691562 0 22.35730207 0 4022.89913629 0 117.13967657 0 -860.43620421 0 19953
0.13550000 0.13551000 12161.83018963 0 -35.01413238 0 3765.07317203 0 595.29892292 0 -497.47900232 0 19956
0.13650000 0.13649900 11992.91126011 0 132.41114565 0 3647.10720129 0 486.43327928 0 160.89555765 0 19723
0.13750000 0.13749600 11746.68668786 0 9.05839128 0 3398.47583930 0 462.07922902 0 180.15874851 0 20946
0.13850000 0.13851100 11811.23745410 0 63.17601238 0 3227.12793765 0 396.65669470 0 1585.37569178 0 20955
0.13950000 0.13949800 11722.95152639 0 43.83917597 0 2627.37146267 0 390.68519426 0 945.00103534 0 20506
0.14050000 0.14048300 11616.80877160 0 11.78206761 0 2779.27649607 0 103.07315513 0 1028.11735615 0 21447
0.14150000 0.14148400 11606.71578238 0 169.96704763 0 2725.55073806 0 -386.15554943 0 838.76400537 0 21771
0.14250000 0.14249400 11083.78802866 0 371.45305875 0 2981.11409814 0 -580.04963624 0 352.15437606 0 22470
0.14350000 0.14350900 11138.77818313 0 258.22524735 0 3337.06388180 0 -303.56606047 0 64.84568117 0 22519
0.14450000 0.14449900 10798.74426709 0 -35.05971720 0 3289.40500851 0 -82.04979131 0 -470.45419183 0 22218
0.14550000 0.14550500 10803.38038742 0 85.29906837 0 3433.36874490 0 75.33052238 0 -531.51899487 0 23559
0.14650000 0.14650700 10577.69671191 0 256.36525362 0 3507.18066059 0 -268.78628508 0 -500.25512891 0 23044
0.14750000 0.14750500 10584.52888923 0 34.33446383 0 3762.79947665 0 228.16144890 0 -33.48476723 0 23649
0.14850000 0.14849900 10286.86334554 0 47.67606464 0 3499.47227871 0 598.33902001 0 66.06582374 0 23640
0.14950000 0.14949500 10561.54792916 0 -82.15061029 0 3150.48776673 0 576.60471047 0 835.09503742 0 24457
0.15050000 0.15050000 10485.38467971 0 -22.03809742 0 2771.17992230 0 694.81468754 0 1225.79908672 0 24591
0.15150000 0.15149900 10465.64234915 0 55.66937937 0 2600.88568436 0 443.76100814 0 2053.69039172 0 25020
0.15250000 0.15250500 10262.59580661 0 215.41655449 0 2552.42824489 0 78.43450475 0 1907.28659200 0 25297
0.15350000 0.15350100 10004.11546174 0 325.37246279 0 2285.67386709 0 -271.53579281 0 1594.04900779 0 25452
0.15450000 0.15450400 9495.96118236 0 335.86806246 0 3066.78250337 0 -524.93082388 0 2117.83078367 0 26061
0.15550000 0.15549900 9083.69030059 0 352.95516048 0 3212.40991930 0 -77.20560013 0 1373.65583323 0 26128
0.15650000 0.15649500 8940.83568390 0 50.07453598 0 3114.76302136 0 205.07290421 0 1731.19165806 0 26331
0.15750000 0.15749700 8731.95517178 0 -26.24687393 0 3089.02035325 0 305.10995509 0 998.97523617 0 27345
0.15850000 0.15849900 8841.53619762 0 40.91986202 0 2636.00041390 0 144.23990719 0 1371.40432025 0 26980
0.15950000 0.15949700 8744.98732819 0 27.99307198 0 2543.47764895 0 50.81110237 0 1257.98574026 0 27777
0.16050000 0.16050000 8769.92033893 0 30.15951548 0 2566.64715938 0 6.36265368 0 1342.53393460 0 28224
0.16150000 0.16150500 8792.83475182 0 -101.93697291 0 2384.57407028 0 222.30418779 0 954.84890911 0 28075
0.16250000 0.16249700 9056.50577687 0 -148.93370174 0 2010.83400671 0 322.19150751 0 854.21293360 0 28590
0.16350000 0.16349900 9020.39283961 0 29.14234181 0 1939.34015118 0 12.52772878 0 940.21074738 0 29163
0.16450000 0.16449100 8993.98469968 0 225.27551945 0 1957.27461665 0 -314.02505920 0 619.98349085 0 28996
0.16550000 0.16550500 8698.47084819 0 247.11297713 0 2394.31214120 0 -246.57616319 0 370.09327801 0 30777
0.16650000 0.16650700 8445.58046657 0 144.54158775 0 2607.08566345 0 -215.51748438 0 137.82143152 0 29211
0.16750000 0.16749900 8227.68281133 0 91.50481489 0 2463.11083587 0 192.28697237 0 799.37361941 0 30922
0.16850000 0.16850800 8169.35420658 0 -10.65530182 0 2379.52757567 0 454.96977177 0 492.27834007 0 30867
0.16950000 0.16949900 8296.85860669 0 -27.51171403 0 1922.28189028 0 420.29758099 0 1021.76431854 0 30852
0.17050000 0.17049200 8225.05419765 0 62.99655681 0 1857.85312721 0 358.48744952 0 1001.95544079 0 31257
0.17150000 0.17149500 8086.12586468 0 124.42437472 0 1734.64102031 0 -110.47763821 0 1143.39149339 0 32608
0.17250000 0.17250900 8059.61790397 0 47.66109153 0 1708.56561628 0 -22.63081099 0 1314.77266864 0 32361
0.17350000 0.17350400 8022.81731250 0 60.07380459 0 1670.00152449 0 -60.82334768 0 904.15881170 0 32508
0.17450000 0.17449800 7794.64920888 0 103.31771602 0 1801.86476501 0 -97.57657974 0 750.82745037 0 32791
0.17550000 0.17549800 7670.06179356 0 236.24027676 0 2065.63561083 0 -206.67890953 0 505.56115753 0 33633
0.17650000 0.17650100 7599.25559224 0 119.69287011 0 2092.62049301 0 -119.96682267 0 645.92247315 0 33984
0.17750000 0.17750300 7349.18237465 0 66.19692169 0 2104.14424664 0 47.85596386 0 285.58723022 0 34069
0.17850000 0.17849800 7339.74376605 0 10.39653310 0 1955.93258182 0 217.26212966 0 372.15180416 0 34536
