### header ###
fiducial parameters:
Omega_m = 0.31
Omega_nu = 0
Omega_de = 0.69
Omega_k = 0
H_0 = 100
w_de = -1
zeff = 0
beta = 0
fgrowth = 0
b_1 = 2
gamma = 0.55
Lx = 3500 Ly = 3500 Lz = 3500
nx = 700 ny = 700 nz = 700
xoffset = 1379.75464 yoffset = 22.6059522 zoffset = 368.141391
bins = 400 dk = 0.001
kx_ny = 0.628318531 ky_ny = 0.628318531 kz_ny = 0.628318531
############################
A(data) = 3.35821126 (not used)
A(ran) = 3.35344498 (used)
Ngal = 188514
weighted Ngal = 0
Nran = 9399747
weighted Nran = 0
SN(data) = 6646.69982
SN(ran) = 133.384558
SN(data+ran) = 6780.08438
############################
13 columns: k_central k_mean P_0(k) sigma^{lin}_{P_0(k)} P^img_1(k) sigma^{lin}_{P_1(k)} P_2(k) sigma^{lin}_{P_2(k)} P^img_3(k) sigma^{lin}_{P_3(k)} P_4(k) sigma^{lin}_{P_4(k)} N_modes
### header ###
0.00050000 0 0 0 0 0 0 0 0 0 0 0 0
0.00150000 0.00179520 6572.72094990 0 -11087.25957331 0 -11500.24029167 0 -8931.62999043 0 -18488.13801693 0 3
0.00250000 0.00253879 24628.11373550 0 -20895.59322651 0 -36897.75035947 0 25547.90669841 0 32818.62994585 0 6
0.00350000 0.00331552 41659.42303328 0 -26671.22312533 0 -23659.40859404 0 -44202.74540548 0 -41563.59509165 0 7
0.00450000 0.00420575 57674.22413076 0 -13274.27724354 0 -36231.39124682 0 -24824.31700951 0 -14237.21496259 0 24
0.00550000 0.00557378 62086.63501267 0 2896.25535029 0 -25063.11047981 0 -33824.49059709 0 -13537.24952318 0 45
0.00650000 0.00659388 60151.66479308 0 12936.21756056 0 14287.56899673 0 -42526.97645857 0 12177.80151324 0 40
0.00750000 0.00754703 49408.39869313 0 12100.38495854 0 14942.28235258 0 -3253.23661526 0 -6274.51193755 0 57
0.00850000 0.00846663 40625.72347771 0 272.73031472 0 39061.42106013 0 9156.68146771 0 4743.73820835 0 75
0.00950000 0.00948925 42087.32141154 0 -185.65776396 0 25116.68096107 0 16385.91254737 0 1462.42977361 0 112
0.01050000 0.01054430 47803.61340669 0 -7284.84234115 0 28110.08410542 0 23305.71032336 0 25637.74539369 0 105
0.01150000 0.01145670 49338.19141644 0 -3539.97732996 0 18521.52251975 0 13427.55758537 0 32217.04342338 0 144
0.01250000 0.01249090 69552.78515033 0 -9999.63461817 0 6064.14520503 0 15033.11925559 0 25180.45534352 0 169
0.01350000 0.01339930 76804.09880311 0 -4294.86637665 0 2096.73532708 0 15367.18610767 0 29183.93379395 0 180
0.01450000 0.01448870 82241.77993092 0 -3217.10149560 0 6468.19750986 0 -9669.66041776 0 37366.68616644 0 267
0.01550000 0.01550050 75666.58564410 0 5535.21711377 0 31712.39396224 0 -2614.32821506 0 1814.99674220 0 238
0.01650000 0.01653350 82932.31785291 0 4048.10942695 0 19016.63355151 0 -10904.90920428 0 26827.16535442 0 315
0.01750000 0.01747870 71820.71310231 0 -22.23895900 0 39999.18176210 0 10863.38376291 0 11408.29426897 0 297
0.01850000 0.01844180 72271.79208219 0 4072.15514193 0 31469.60766104 0 8663.78867533 0 37510.87172677 0 388
0.01950000 0.01947590 75151.39954586 0 -4520.09531308 0 25564.54349384 0 13516.06533701 0 25636.85809794 0 399
0.02050000 0.02045430 78915.41905418 0 -2291.11964479 0 24542.37878309 0 19414.58569802 0 24523.52374828 0 462
0.02150000 0.02154770 78686.60766113 0 -472.77447023 0 10682.75252941 0 3126.60841970 0 31447.09253123 0 571
0.02250000 0.02255340 71046.65846729 0 2313.01366757 0 5702.22835741 0 -7481.48926304 0 5550.82242787 0 510
0.02350000 0.02348930 80269.98693746 0 352.98177936 0 10252.85773569 0 -1760.50569159 0 9166.74118334 0 555
0.02450000 0.02439640 66415.52918156 0 2375.12437048 0 12691.54575588 0 -9566.20173263 0 -9331.66728196 0 592
0.02550000 0.02547300 69989.88922206 0 6430.25452510 0 15295.20423948 0 -13438.42695837 0 -7032.80598170 0 837
0.02650000 0.02652900 61184.03340502 0 1261.46837610 0 21801.30036930 0 -2577.92690668 0 -26168.79190358 0 723
0.02750000 0.02749970 60135.24982160 0 2000.28627841 0 22488.17819631 0 -3290.71376975 0 -29422.06179243 0 826
0.02850000 0.02848090 59540.09619336 0 1170.69802028 0 20065.08439903 0 -2452.84038749 0 -32770.16141519 0 831
0.02950000 0.02946900 58258.73020993 0 541.04855129 0 21679.51902681 0 -1801.01074285 0 -31259.65130281 0 996
0.03050000 0.03053250 58657.45874022 0 172.57458804 0 20473.46227066 0 3058.05373137 0 -22473.09416846 0 1041
0.03150000 0.03150510 59790.86815636 0 -1303.83674845 0 13620.10076439 0 8656.59048851 0 -25874.32062460 0 1036
0.03250000 0.03246190 57482.90098340 0 -1483.83578372 0 10405.80534161 0 5519.92235318 0 -16855.62473812 0 1059
0.03350000 0.03345080 60789.63044154 0 -517.87571350 0 7825.22763886 0 7970.20067417 0 -15944.48290883 0 1302
0.03450000 0.03451200 58850.77830302 0 844.21311043 0 4424.05663871 0 1868.05702840 0 -3938.35094195 0 1339
0.03550000 0.03553350 56634.09168095 0 2737.98396984 0 4640.37934399 0 -4790.85361298 0 -9312.15786653 0 1365
0.03650000 0.03647120 54752.69194263 0 1272.87012657 0 3811.97784392 0 469.99168892 0 -2362.12548765 0 1308
0.03750000 0.03744890 52817.49989910 0 1892.47984408 0 6449.12065110 0 -1639.01272022 0 -5030.49001424 0 1579
0.03850000 0.03847530 50325.86250468 0 1363.66266478 0 5257.83736929 0 742.42586868 0 -4315.64018854 0 1662
0.03950000 0.03950240 47102.98249547 0 2338.16850225 0 8166.02684749 0 572.60078837 0 -1687.84726038 0 1683
0.04050000 0.04050350 44874.42829266 0 2008.12775466 0 8855.14509628 0 -186.98316199 0 -795.88987445 0 1822
0.04150000 0.04152450 41612.17453428 0 -111.52974915 0 4297.97191180 0 3681.78937414 0 -3520.93374480 0 1887
0.04250000 0.04250150 41917.95883414 0 477.25087732 0 7574.06748397 0 3383.94637130 0 605.21888947 0 1920
0.04350000 0.04349210 41436.60088659 0 1503.88866780 0 4189.92147113 0 -3658.65313731 0 -124.87024084 0 2005
0.04450000 0.04448520 39210.48674711 0 1562.38364051 0 6052.10016515 0 -1550.81552209 0 -844.22198339 0 2151
0.04550000 0.04548030 37073.10218322 0 340.16257392 0 7786.59699989 0 -1942.93369900 0 -5429.01890299 0 2274
0.04650000 0.04648670 38055.33858495 0 -201.96293259 0 8234.02697598 0 -2462.84464714 0 -6665.48772117 0 2311
0.04750000 0.04749250 38069.75714099 0 1017.38551398 0 10439.17875323 0 -3638.81098597 0 -12216.50979059 0 2568
0.04850000 0.04851840 36025.64954343 0 1455.85269382 0 13006.64666118 0 -4163.24714247 0 -10203.43536209 0 2493
0.04950000 0.04949480 36325.88824482 0 1174.20283851 0 17269.54820823 0 -2251.67934844 0 -13352.13744612 0 2644
0.05050000 0.05050630 34695.70411737 0 17.92659072 0 14973.78135192 0 1784.66231854 0 -11711.52759354 0 2829
0.05150000 0.05149060 35471.64425587 0 -549.49117041 0 20378.85436069 0 2394.47850915 0 -8626.05642331 0 2784
0.05250000 0.05249300 37069.10935232 0 166.57979609 0 15735.41384635 0 1225.49962440 0 -7724.97430965 0 3055
0.05350000 0.05348950 36513.10764930 0 -454.94315290 0 15277.68014830 0 2059.10289583 0 -4326.45410556 0 3009
0.05450000 0.05448610 36236.71502135 0 208.42022745 0 16542.29842434 0 532.84550203 0 -3418.53981458 0 3336
0.05550000 0.05550870 36337.86673752 0 673.55286299 0 15677.40688631 0 -883.29072464 0 -3151.27524172 0 3349
0.05650000 0.05647670 36033.96794114 0 414.91391400 0 18037.50268492 0 1479.15529861 0 -1819.81032167 0 3324
0.05750000 0.05747970 35311.59828390 0 453.77857722 0 15024.24629803 0 -1042.46271028 0 -2795.05926933 0 3639
0.05850000 0.05849280 35822.01516746 0 -152.02260009 0 16707.44634689 0 2406.63446101 0 -3686.08166736 0 3846
0.05950000 0.05951020 35800.27642144 0 -246.69262076 0 13942.41094770 0 417.96288404 0 -2207.89130289 0 3787
0.06050000 0.06049470 34394.91085613 0 602.86422836 0 14067.07600140 0 1501.44860447 0 -1844.15549897 0 3930
0.06150000 0.06148310 34764.69136239 0 899.52601873 0 16168.41417521 0 552.19964070 0 -1803.80572448 0 4083
0.06250000 0.06249100 32981.33780508 0 489.14507693 0 13455.72922561 0 986.41556474 0 282.55489697 0 4303
0.06350000 0.06350600 33278.36005936 0 436.19459358 0 13383.19279757 0 2983.13269598 0 4310.71569709 0 4470
0.06450000 0.06451750 32576.28729253 0 -1.33511392 0 14719.12746999 0 1901.27516326 0 4645.51456817 0 4479
0.06550000 0.06550280 31968.26787583 0 335.02845886 0 11615.47782797 0 1182.75415136 0 4343.88946717 0 4636
0.06650000 0.06648880 31713.17034602 0 803.33539496 0 13125.32246853 0 -677.60669547 0 6065.24323353 0 4653
0.06750000 0.06749660 30045.27614895 0 803.11578926 0 12877.10148083 0 -1455.12067482 0 2981.79066115 0 5220
0.06850000 0.06852730 29586.98789105 0 1377.48229618 0 15799.41005274 0 -770.92359012 0 5986.28500246 0 5029
0.06950000 0.06949320 27750.28567642 0 418.27676491 0 13636.29391193 0 1734.27501081 0 2063.01808835 0 5040
0.07050000 0.07048030 28623.60652413 0 -16.63302442 0 14353.89435448 0 176.59292869 0 3074.89016833 0 5475
0.07150000 0.07148790 27786.88662635 0 12.53793268 0 13090.38519814 0 526.47582762 0 1107.64567475 0 5509
0.07250000 0.07249820 27946.93259831 0 360.09012748 0 13630.85922543 0 -363.91769955 0 1578.07768419 0 5916
0.07350000 0.07351270 27330.70569587 0 36.37579863 0 11202.88530149 0 832.66717441 0 183.24542862 0 5721
0.07450000 0.07449140 27778.12458076 0 -80.69322701 0 12258.32360308 0 981.35908806 0 -1207.67607090 0 6028
0.07550000 0.07549160 27226.33753259 0 146.31063366 0 11919.15480041 0 502.04302986 0 375.41150694 0 6183
0.07650000 0.07648840 27097.56873602 0 534.54910988 0 11287.84387011 0 271.75428939 0 -951.37070975 0 6330
0.07750000 0.07749960 26553.32370177 0 0.96489532 0 10811.75424111 0 1877.35145144 0 1368.98643932 0 6583
0.07850000 0.07848650 26496.42586143 0 132.32463431 0 10870.83704726 0 916.67633657 0 1369.20826326 0 6549
0.07950000 0.07947320 26294.67698894 0 478.89902919 0 10139.37260852 0 -609.09526281 0 2715.18046891 0 6828
0.08050000 0.08048110 25494.77986503 0 599.83854983 0 9910.40593872 0 265.14393600 0 2555.84433355 0 7147
0.08150000 0.08149960 24857.25786445 0 -22.33301235 0 10591.40543134 0 614.74068205 0 2889.06825466 0 7386
0.08250000 0.08250610 25255.21001095 0 -208.09414626 0 9210.83978241 0 765.23269696 0 269.96527932 0 7227
0.08350000 0.08350160 24593.95284890 0 564.63398160 0 8917.92127101 0 -376.99754811 0 -265.07406146 0 7798
0.08450000 0.08449610 23638.22440787 0 1268.55565095 0 9414.24124324 0 -1836.85749138 0 -855.26659731 0 7371
0.08550000 0.08548940 23062.25855035 0 486.24805629 0 9641.53314230 0 -257.02074336 0 -2518.16753752 0 8256
0.08650000 0.08650700 22185.38851962 0 150.00289313 0 10282.64869070 0 1007.99237929 0 -2083.89172101 0 8037
0.08750000 0.08749060 21927.62910254 0 236.14378334 0 8235.38010201 0 892.75040652 0 -4147.33127485 0 8155
0.08850000 0.08849210 21342.90119943 0 241.68272710 0 8820.00818435 0 1442.93144937 0 -1056.27679608 0 8718
0.08950000 0.08949900 20869.41800171 0 343.96796360 0 7323.75026005 0 500.36493176 0 -1202.70721467 0 8571
0.09050000 0.09049190 20456.60365130 0 393.16407678 0 6816.59418839 0 449.33211636 0 -934.92024643 0 8932
0.09150000 0.09150830 19871.54301228 0 464.79102667 0 7062.97403740 0 183.58481925 0 -447.00629236 0 9285
0.09250000 0.09250820 19281.04768676 0 265.37796026 0 6330.51139094 0 144.01808325 0 38.98100988 0 9204
0.09350000 0.09350330 19021.07003029 0 177.11754231 0 7176.29279662 0 610.99407572 0 736.13937825 0 9349
0.09450000 0.09448040 18703.30723773 0 327.85356355 0 6301.96265000 0 196.92087446 0 -244.93799340 0 9564
0.09550000 0.09549270 18537.05019547 0 48.15165517 0 6214.09818777 0 777.68700202 0 1112.92397538 0 10155
0.09650000 0.09649430 18657.72241827 0 -197.65511169 0 5293.30701713 0 846.03317585 0 634.09371161 0 9913
0.09750000 0.09749140 18276.85071507 0 -45.64216095 0 4646.98969737 0 1292.67900432 0 1303.39310057 0 10476
0.09850000 0.09850240 18063.12334988 0 645.11170666 0 4102.89993987 0 -447.47323176 0 -117.91827859 0 10575
0.09950000 0.09950330 17425.71226126 0 535.86119848 0 4339.33098522 0 -773.45903774 0 1108.92559888 0 10882
0.10050000 0.10051200 16638.23727794 0 277.08693688 0 4898.79314168 0 -119.02074357 0 864.97583112 0 10875
0.10150000 0.10150300 16727.63232534 0 98.27477059 0 5075.96392173 0 -4.04179854 0 192.55427022 0 11118
0.10250000 0.10250800 16684.15483330 0 -93.40784246 0 3869.59661207 0 717.21114154 0 -960.28803209 0 11575
0.10350000 0.10349800 16736.28345896 0 47.07769457 0 5175.35213759 0 -830.61308473 0 -1354.91171039 0 11364
0.10450000 0.10450100 16566.03358580 0 339.62686911 0 4639.00403556 0 -800.62026995 0 -1422.35727903 0 12093
0.10550000 0.10551000 16641.89737293 0 11.02842077 0 5632.87510290 0 251.72247858 0 -1861.79050212 0 12067
0.10650000 0.10649700 16485.73331990 0 -89.45183433 0 5338.34836794 0 -77.59368111 0 -1296.39455529 0 12054
0.10750000 0.10749900 16409.86953277 0 263.42369136 0 4975.27803584 0 325.26931466 0 -2137.77275579 0 12807
0.10850000 0.10850100 16042.08544197 0 569.73925955 0 5681.57654870 0 -85.41929694 0 -718.77389119 0 12736
0.10950000 0.10950300 15442.16259904 0 323.87404209 0 5622.95957283 0 435.42375539 0 -491.81472804 0 12933
0.11050000 0.11050200 15144.47487295 0 187.43790107 0 5860.43319068 0 600.67926256 0 79.48306651 0 13428
0.11150000 0.11150900 14717.68561438 0 296.76715674 0 5757.06323513 0 146.91732214 0 672.02227781 0 13453
0.11250000 0.11250000 14463.69720427 0 242.98372450 0 5202.58102609 0 134.03156952 0 569.58509192 0 13668
0.11350000 0.11349100 13965.36972538 0 162.60914758 0 5591.91531257 0 144.79113968 0 938.14334827 0 13791
0.11450000 0.11448600 14010.62180893 0 -54.92649100 0 5177.27091466 0 292.35729684 0 1059.35903971 0 14205
0.11550000 0.11549300 14057.53757202 0 -146.02780814 0 4711.52937241 0 951.62580728 0 1505.58562093 0 14776
0.11650000 0.11649800 14248.52798347 0 -92.56724064 0 3942.29940806 0 828.20962236 0 1419.96158049 0 14553
0.11750000 0.11747300 14337.47938300 0 -114.12176188 0 3512.53770871 0 204.04475026 0 566.86220307 0 14568
0.11850000 0.11849100 14172.33146044 0 219.70441123 0 3478.89810837 0 -145.15714918 0 1117.85955802 0 16015
0.11950000 0.11950300 14006.29624212 0 325.58652289 0 3563.66812665 0 -497.43685577 0 679.99463018 0 15270
0.12050000 0.12050700 13384.74556515 0 158.68397298 0 3457.71392220 0 -245.06997865 0 213.99355392 0 15999
0.12150000 0.12150000 13362.89590716 0 128.69226731 0 3396.76779497 0 190.61331075 0 -330.96686253 0 15670
0.12250000 0.12250700 13401.60418451 0 -125.84404793 0 3019.92219626 0 623.20659268 0 -560.90844854 0 16887
0.12350000 0.12352200 13465.48947893 0 -8.84402063 0 2333.78747945 0 583.13964371 0 -975.96876634 0 16407
0.12450000 0.12449800 13201.62990353 0 182.69419613 0 2014.67156086 0 171.83480520 0 -465.75485169 0 16306
0.12550000 0.12549900 12817.98540109 0 318.85305723 0 2112.77319786 0 -90.60653885 0 -813.33410901 0 17523
0.12650000 0.12650100 12707.18434358 0 109.68750134 0 1766.27311400 0 -7.35211045 0 206.75100231 0 17154
0.12750000 0.12750600 12449.97948635 0 113.47625422 0 2401.86524632 0 -24.38455105 0 -593.51434933 0 18007
0.12850000 0.12850300 12355.26066441 0 133.83858269 0 2066.23453547 0 -219.41714923 0 -38.45218161 0 17496
0.12950000 0.12949900 12350.71327366 0 10.77714971 0 2703.85635683 0 -57.01485247 0 -206.46041295 0 18405
0.13050000 0.13049000 12274.29492669 0 47.71322015 0 2299.10530659 0 172.58900659 0 -154.13547311 0 18100
0.13150000 0.13148800 12559.11686432 0 2.05487715 0 3057.74317785 0 -37.61623810 0 704.45182857 0 19059
0.13250000 0.13249300 12497.11707338 0 -2.06081094 0 2792.65247959 0 -3.92361074 0 -328.72200427 0 18957
0.13350000 0.13349100 12680.67638287 0 16.78375378 0 3445.43596718 0 -115.23864541 0 415.17566624 0 19468
0.13450000 0.13450700 12464.06530647 0 87.99056913 0 2760.62110281 0 -10.65907282 0 133.63339555 0 19953
0.13550000 0.13551000 12398.18359660 0 215.83247437 0 3771.39515429 0 -247.02979315 0 499.96564867 0 19956
0.13650000 0.13649900 12252.33435673 0 355.44291596 0 3549.29393540 0 -414.51019443 0 -119.80932767 0 19723
0.13750000 0.13749600 11666.60824590 0 287.24980064 0 3917.65476845 0 -143.12524190 0 -380.64766102 0 20946
0.13850000 0.13851100 11302.59516206 0 230.75789811 0 3911.85407244 0 228.81250216 0 32.50763278 0 20955
0.13950000 0.13949800 11126.13421861 0 157.62920015 0 3680.42515692 0 389.92433815 0 198.72652132 0 20506
0.14050000 0.14048300 10788.27417717 0 90.94038387 0 3639.53191377 0 443.12880991 0 396.95615702 0 21447
0.14150000 0.14148400 10781.57509422 0 104.51711806 0 2978.77385558 0 530.03055624 0 298.37981678 0 21771
0.14250000 0.14249400 10480.23836433 0 -44.61223240 0 2927.06669541 0 447.33237356 0 783.00190359 0 22470
0.14350000 0.14350900 10520.38849728 0 43.88853180 0 2247.18741368 0 162.58585606 0 625.39155848 0 22519
0.14450000 0.14449900 10523.51621482 0 103.93627207 0 2489.51897580 0 -87.83961794 0 867.02881167 0 22218
0.14550000 0.14550500 10395.10233656 0 88.63818412 0 2074.75257473 0 101.00974885 0 341.25505682 0 23559
0.14650000 0.14650700 10366.40941005 0 -9.18709353 0 2240.58815150 0 4.76762865 0 715.36445725 0 23044
0.14750000 0.14750500 10304.28761594 0 181.21352134 0 2458.81854265 0 -424.14844457 0 283.59414213 0 23649
0.14850000 0.14849900 10123.11291379 0 227.46713997 0 2604.82305927 0 -172.07326593 0 219.31843757 0 23640
0.14950000 0.14949500 10021.73937369 0 106.18678685 0 2873.42966697 0 -131.85214932 0 -16.09676504 0 24457
0.15050000 0.15050000 9698.18697631 0 162.41837899 0 2864.71198617 0 -81.31289219 0 -124.16594984 0 24591
0.15150000 0.15149900 9715.87743545 0 128.02235901 0 2928.34218306 0 346.80952825 0 703.01995504 0 25020
0.15250000 0.15250500 9500.81912662 0 -43.58485482 0 2539.03007898 0 524.36850020 0 228.24130552 0 25297
0.15350000 0.15350100 9661.71912075 0 -70.92842631 0 2357.88865042 0 428.18231290 0 686.13582593 0 25452
0.15450000 0.15450400 9620.71496563 0 90.88348603 0 2169.57121744 0 -225.90993592 0 354.64545890 0 26061
0.15550000 0.15549900 9440.31664727 0 264.76794443 0 2103.16822131 0 -529.89413452 0 4.10312176 0 26128
0.15650000 0.15649500 9158.54478880 0 147.75803486 0 2640.32598071 0 -440.10091314 0 -74.76209853 0 26331
0.15750000 0.15749700 9169.64707694 0 -69.26519041 0 2451.78672378 0 131.43401120 0 -465.60290229 0 27345
0.15850000 0.15849900 9356.21210081 0 -164.06098526 0 2322.82937687 0 532.18113933 0 -495.62788155 0 26980
0.15950000 0.15949700 9431.79860801 0 -26.48500193 0 2201.73568859 0 313.38620625 0 -802.29060421 0 27777
0.16050000 0.16050000 9521.88130962 0 197.16155343 0 2198.07559359 0 -127.30475857 0 -264.93763974 0 28224
0.16150000 0.16150500 8953.52401321 0 320.25387540 0 2408.66415005 0 -450.26266779 0 -626.62379046 0 28075
0.16250000 0.16249700 8888.96215577 0 355.38302350 0 3029.92645591 0 -306.64830410 0 -215.73376272 0 28590
0.16350000 0.16349900 8351.82657877 0 98.28863459 0 3054.20508603 0 22.02024060 0 199.84007749 0 29163
0.16450000 0.16449100 8376.50449198 0 -81.22360805 0 3263.00795977 0 576.18989970 0 258.30288573 0 28996
0.16550000 0.16550500 8559.64233599 0 -32.89649015 0 2433.06478333 0 571.67245518 0 386.86871339 0 30777
0.16650000 0.16650700 8495.66831199 0 -21.41211027 0 2220.64617938 0 207.23236026 0 561.77799839 0 29211
0.16750000 0.16749900 8416.33298022 0 143.22284443 0 2286.50570686 0 14.36886747 0 976.70633094 0 30922
0.16850000 0.16850800 8249.17755101 0 179.61306162 0 2199.42871962 0 -226.12399602 0 548.57836490 0 30867
0.16950000 0.16949900 8072.09550054 0 152.13018470 0 2409.83981693 0 -240.33736491 0 659.27627428 0 30852
0.17050000 0.17049200 7970.61104846 0 99.48992213 0 2520.87378957 0 -130.77408498 0 9.97668693 0 31257
0.17150000 0.17149500 7908.05669767 0 -26.73488660 0 2454.07151035 0 55.78927521 0 4.54294318 0 32608
0.17250000 0.17250900 8009.35259940 0 -37.45696851 0 2444.23361866 0 88.22736619 0 -157.41514005 0 32361
0.17350000 0.17350400 8017.03879889 0 30.13955132 0 1834.72798157 0 224.16418152 0 -503.20871466 0 32508
0.17450000 0.17449800 8076.93126241 0 45.94617065 0 1955.16728923 0 10.05974891 0 -383.14539858 0 32791
0.17550000 0.17549800 7785.80952491 0 162.44832522 0 1974.87634621 0 -117.99702609 0 -439.17036172 0 33633
0.17650000 0.17650100 7749.07548062 0 51.89925970 0 1759.10820078 0 443.31403290 0 217.63479388 0 33984
0.17750000 0.17750300 7772.50008857 0 -92.37569567 0 1396.79207007 0 512.41884461 0 143.85837002 0 34069
0.17850000 0.17849800 7738.46120514 0 -56.22782114 0 1146.77430846 0 509.74032054 0 513.56234701 0 34536
