### header ###
fiducial parameters:
Omega_m = 0.31
Omega_nu = 0
Omega_de = 0.69
Omega_k = 0
H_0 = 100
w_de = -1
zeff = 0
beta = 0
fgrowth = 0
b_1 = 2
gamma = 0.55
Lx = 3500 Ly = 3500 Lz = 3500
nx = 700 ny = 700 nz = 700
xoffset = 1379.75464 yoffset = 22.6059522 zoffset = 368.141391
bins = 400 dk = 0.001
kx_ny = 0.628318531 ky_ny = 0.628318531 kz_ny = 0.628318531
############################
A(data) = 3.33379473 (not used)
A(ran) = 3.33578446 (used)
Ngal = 186955
weighted Ngal = 0
Nran = 9399747
weighted Nran = 0
SN(data) = 6638.18893
SN(ran) = 132.682104
SN(data+ran) = 6770.87103
############################
13 columns: k_central k_mean P_0(k) sigma^{lin}_{P_0(k)} P^img_1(k) sigma^{lin}_{P_1(k)} P_2(k) sigma^{lin}_{P_2(k)} P^img_3(k) sigma^{lin}_{P_3(k)} P_4(k) sigma^{lin}_{P_4(k)} N_modes
### header ###
0.00050000 0 0 0 0 0 0 0 0 0 0 0 0
0.00150000 0.00179520 3993.31891403 0 -8868.23270868 0 -8307.39524379 0 3944.49546506 0 23020.88838573 0 3
0.00250000 0.00253879 10609.48408237 0 -9695.84673376 0 -12033.39412897 0 -7021.84787912 0 -6923.08077029 0 6
0.00350000 0.00331552 22921.17852517 0 -15370.40255479 0 -26389.17398694 0 -9097.09955770 0 1907.66369270 0 7
0.00450000 0.00420575 36328.32830815 0 -15428.52042679 0 -31685.10961774 0 -10141.83485424 0 -18164.82962589 0 24
0.00550000 0.00557378 52815.17074774 0 -5152.70391342 0 -28775.00136247 0 -37877.65760984 0 -13105.58013796 0 45
0.00650000 0.00659388 64164.57076092 0 -3892.98794643 0 -6657.61297134 0 -37226.71526095 0 -36335.53758616 0 40
0.00750000 0.00754703 62788.48595555 0 2230.21788235 0 10660.50358833 0 -23205.11316704 0 -21879.60421976 0 57
0.00850000 0.00846663 68672.58776052 0 1364.48341336 0 13459.38932061 0 -20914.33734935 0 -37699.97663473 0 75
0.00950000 0.00948925 61577.99272062 0 3648.59342168 0 24866.46355792 0 -4707.75836545 0 -16820.46564380 0 112
0.01050000 0.01054430 66089.78072719 0 1151.28842562 0 30323.33245644 0 7612.60939337 0 -12851.92446375 0 105
0.01150000 0.01145670 69734.12622044 0 -7503.20582667 0 23971.29305222 0 21034.01136443 0 -14563.07432892 0 144
0.01250000 0.01249090 79191.70077016 0 -5257.48245099 0 9766.45329353 0 15629.49291550 0 -3193.08905421 0 169
0.01350000 0.01339930 78030.34153771 0 -905.39215280 0 -7212.67192261 0 6309.68212307 0 17340.31004476 0 180
0.01450000 0.01448870 77531.90314686 0 1644.43631553 0 -1945.18521198 0 5727.25009773 0 20847.79016767 0 267
0.01550000 0.01550050 75110.80576503 0 -445.06200554 0 -11123.58324331 0 4669.90411026 0 -15217.01130099 0 238
0.01650000 0.01653350 74050.82007269 0 3239.87172294 0 -6770.68772422 0 2455.53554835 0 13165.58351345 0 315
0.01750000 0.01747870 73026.32621058 0 57.30388906 0 -15527.23207963 0 -2705.09857088 0 7515.00686022 0 297
0.01850000 0.01844180 67844.07534849 0 754.65724067 0 -2178.56617816 0 -5633.58493950 0 11554.03259687 0 388
0.01950000 0.01947590 62876.10641144 0 1885.71421394 0 -5733.17279690 0 -3471.68883035 0 -3159.20544753 0 399
0.02050000 0.02045430 62826.52876108 0 5945.00356741 0 -819.06382135 0 -4402.19588952 0 1701.75562136 0 462
0.02150000 0.02154770 58529.68815137 0 508.11324195 0 8373.90915189 0 389.93764759 0 15879.37758274 0 571
0.02250000 0.02255340 56545.36210537 0 -311.31547978 0 1784.35176503 0 9604.92110118 0 6206.82236257 0 510
0.02350000 0.02348930 59615.95998048 0 793.49528503 0 16082.67922280 0 -3040.16363069 0 29549.83238127 0 555
0.02450000 0.02439640 58560.52167889 0 253.49817921 0 -3847.76913647 0 12824.86194320 0 17262.67166612 0 592
0.02550000 0.02547300 61737.48413274 0 -4175.10363201 0 7221.61142735 0 9359.49509511 0 29732.61530698 0 837
0.02650000 0.02652900 62876.43914735 0 893.85508973 0 4291.45028799 0 -6731.95726448 0 21385.04774784 0 723
0.02750000 0.02749970 60611.39490659 0 6341.38076395 0 14350.78881934 0 -14586.80949039 0 19791.13183441 0 826
0.02850000 0.02848090 57954.60958961 0 1942.50114231 0 23209.43873385 0 -10172.43546662 0 13710.49401951 0 831
0.02950000 0.02946900 56254.32909745 0 -1305.76661671 0 25630.31429174 0 5760.61241815 0 5315.27867828 0 996
0.03050000 0.03053250 58210.70532714 0 1606.53769556 0 31135.98445684 0 -694.36438494 0 5480.84806633 0 1041
0.03150000 0.03150510 54761.23216428 0 3648.75978963 0 26314.19749557 0 -923.74364727 0 5149.50964870 0 1036
0.03250000 0.03246190 52209.36957043 0 1929.66862745 0 37458.96492505 0 3154.29204729 0 18119.91027825 0 1059
0.03350000 0.03345080 51293.45852645 0 767.55408449 0 32215.71247975 0 7595.18512296 0 12321.65433766 0 1302
0.03450000 0.03451200 52420.65687229 0 -531.81180247 0 31198.76063156 0 3522.24250604 0 15609.75058493 0 1339
0.03550000 0.03553350 51256.74666455 0 -74.53727997 0 26199.18178321 0 4397.42667483 0 13745.32037793 0 1365
0.03650000 0.03647120 52059.08385178 0 -311.38868168 0 29844.41457222 0 1485.57710164 0 18897.51409629 0 1308
0.03750000 0.03744890 52185.74532093 0 -111.65175232 0 25277.28149288 0 1761.64808488 0 8541.09785469 0 1579
0.03850000 0.03847530 53149.57033573 0 990.02353111 0 23492.04243209 0 -2422.90524693 0 3145.97364958 0 1662
0.03950000 0.03950240 48989.37327242 0 2847.25444217 0 26883.84137083 0 -4322.61655142 0 -158.44662136 0 1683
0.04050000 0.04050350 46965.78438922 0 2542.64580918 0 29006.69646672 0 -5545.36555898 0 -5809.85733260 0 1822
0.04150000 0.04152450 44923.78411908 0 1769.32319317 0 31505.98678703 0 2134.94450056 0 -4337.52312012 0 1887
0.04250000 0.04250150 42321.23475518 0 890.71184452 0 26479.23450616 0 5532.59959129 0 -11091.30786019 0 1920
0.04350000 0.04349210 40998.16587123 0 -441.94759744 0 23500.69356571 0 9241.21857085 0 3096.85073829 0 2005
0.04450000 0.04448520 43159.17468462 0 -1952.78268189 0 15937.16271884 0 9963.55495450 0 2432.74313862 0 2151
0.04550000 0.04548030 42296.16865008 0 -313.81987205 0 12385.65054405 0 4778.87512028 0 7975.87936701 0 2274
0.04650000 0.04648670 42436.47229147 0 1905.27908536 0 10911.74138160 0 160.05040844 0 9386.71289242 0 2311
0.04750000 0.04749250 39970.34465004 0 1443.85201872 0 12151.84811238 0 -2516.96968825 0 8455.37399348 0 2568
0.04850000 0.04851840 38035.59625439 0 1297.03784472 0 15033.45199150 0 -1556.97113639 0 8163.86406409 0 2493
0.04950000 0.04949480 36615.92304501 0 1084.61369517 0 14472.12651395 0 -809.97680369 0 5153.96830987 0 2644
0.05050000 0.05050630 36058.25766246 0 796.91026457 0 20811.63286561 0 36.20865429 0 9311.64767147 0 2829
0.05150000 0.05149060 35931.04163346 0 -27.71379564 0 16628.58793659 0 995.99281331 0 3369.69418322 0 2784
0.05250000 0.05249300 35289.52680198 0 1410.33442154 0 19778.26604595 0 -166.77500115 0 7155.94045022 0 3055
0.05350000 0.05348950 33975.55269952 0 1839.18664274 0 20440.18867982 0 -938.73783642 0 5750.96307680 0 3009
0.05450000 0.05448610 31006.66110042 0 805.35842928 0 20570.73206790 0 1370.65011886 0 8610.29583245 0 3336
0.05550000 0.05550870 31923.12670425 0 -428.34202614 0 21519.02940697 0 3322.25713387 0 7906.79230122 0 3349
0.05650000 0.05647670 31319.65467830 0 -513.24846614 0 15191.72337195 0 3798.23585090 0 4630.80764102 0 3324
0.05750000 0.05747970 31797.57435480 0 70.47790189 0 15638.03313715 0 2753.98856703 0 7839.84583644 0 3639
0.05850000 0.05849280 31827.18785065 0 -551.25023424 0 8819.25398295 0 1139.55393925 0 2924.22734899 0 3846
0.05950000 0.05951020 32639.83985105 0 -200.54880498 0 10345.12540311 0 2090.04733532 0 6162.31338922 0 3787
0.06050000 0.06049470 30824.65455850 0 -40.28710923 0 6222.63840942 0 1063.47276466 0 3504.31913178 0 3930
0.06150000 0.06148310 31795.13429147 0 321.91422758 0 6667.85014612 0 -14.87895162 0 3662.47960026 0 4083
0.06250000 0.06249100 31687.77150501 0 -284.55907626 0 4976.79752982 0 929.61976341 0 1328.42593208 0 4303
0.06350000 0.06350600 31657.71436128 0 -27.88737287 0 5856.06325909 0 1019.58268010 0 1134.71817738 0 4470
0.06450000 0.06451750 30781.39889040 0 550.37513880 0 5395.70094736 0 -2470.58630261 0 -769.73017733 0 4479
0.06550000 0.06550280 31043.04022641 0 1216.75976120 0 8490.53308780 0 -2321.79789555 0 796.67734943 0 4636
0.06650000 0.06648880 28814.37511163 0 1121.67492977 0 10138.34112720 0 -2369.75623115 0 -3734.65001880 0 4653
0.06750000 0.06749660 28738.17858860 0 634.28780755 0 12044.15259001 0 -355.16119956 0 -1418.74154883 0 5220
0.06850000 0.06852730 27994.40292125 0 -73.44512981 0 11911.28005057 0 126.76572640 0 -3886.79905854 0 5029
0.06950000 0.06949320 28177.62949484 0 -245.31842146 0 11959.74858124 0 -50.65205461 0 -3276.98286793 0 5040
0.07050000 0.07048030 29482.50881580 0 -70.30343736 0 10356.39405921 0 1626.60167084 0 -3028.42914432 0 5475
0.07150000 0.07148790 28465.66787958 0 -169.13853522 0 10023.84670111 0 -147.11918192 0 -5013.16556461 0 5509
0.07250000 0.07249820 28693.37015293 0 838.72296794 0 9682.60384460 0 340.51860135 0 -5073.76786474 0 5916
0.07350000 0.07351270 27062.07690579 0 1253.33852874 0 11517.98620679 0 -1912.25544824 0 -5324.16272704 0 5721
0.07450000 0.07449140 25628.31787629 0 1054.25930736 0 9643.85120246 0 426.88907934 0 -4872.04117464 0 6028
0.07550000 0.07549160 25257.09551443 0 88.91856958 0 10859.18019926 0 1947.12617144 0 -3244.11965137 0 6183
0.07650000 0.07648840 25293.47464042 0 -718.59754116 0 8319.54010445 0 1964.39516509 0 -4251.67725574 0 6330
0.07750000 0.07749960 25333.29203747 0 -157.65027342 0 7601.15218692 0 2222.99751314 0 -537.69568245 0 6583
0.07850000 0.07848650 25425.79262001 0 520.62522123 0 7403.21868618 0 -971.83951372 0 -1122.58440792 0 6549
0.07950000 0.07947320 24123.68609829 0 1133.04340664 0 8589.08946389 0 -706.64012173 0 -14.88538451 0 6828
0.08050000 0.08048110 23953.10348923 0 764.46296790 0 9690.75587436 0 -391.40612206 0 1037.09678920 0 7147
0.08150000 0.08149960 22466.77218620 0 461.27289900 0 10520.23322053 0 -454.20337006 0 1131.27990632 0 7386
0.08250000 0.08250610 22165.31345314 0 608.95329548 0 11584.42247651 0 793.99438889 0 1974.26633037 0 7227
0.08350000 0.08350160 21665.87685457 0 409.27736771 0 12936.32847253 0 -724.15644907 0 1496.04719156 0 7798
0.08450000 0.08449610 21642.14169310 0 285.57946638 0 11729.60624456 0 620.41715665 0 3650.32364840 0 7371
0.08550000 0.08548940 21465.01527783 0 -469.25745168 0 12147.30072163 0 1785.46088472 0 2691.58949300 0 8256
0.08650000 0.08650700 21511.26556911 0 -188.14884679 0 10004.80311595 0 1704.77242693 0 4189.85492395 0 8037
0.08750000 0.08749060 22218.88393440 0 -384.61830953 0 8103.66104705 0 2313.37967707 0 3223.32365709 0 8155
0.08850000 0.08849210 22241.17724027 0 227.18986005 0 6882.04334158 0 111.35007176 0 3465.32248331 0 8718
0.08950000 0.08949900 21341.01569595 0 643.33822426 0 7010.52376703 0 -260.84055159 0 2469.80991882 0 8571
0.09050000 0.09049190 20392.38562097 0 656.64766060 0 7497.72677538 0 -992.07651167 0 1781.82297213 0 8932
0.09150000 0.09150830 19684.32360780 0 631.22996456 0 7026.58382021 0 -810.70327709 0 -324.52287711 0 9285
0.09250000 0.09250820 18789.15310211 0 470.82020133 0 7360.14047723 0 -89.46037455 0 -735.45837876 0 9204
0.09350000 0.09350330 18721.71862466 0 -23.98715346 0 6872.31636186 0 912.21212980 0 -145.04401897 0 9349
0.09450000 0.09448040 18433.45841598 0 -440.11200434 0 6071.82031332 0 1713.81175244 0 -1143.02548389 0 9564
0.09550000 0.09549270 19119.55985919 0 -223.80260850 0 4796.05538435 0 1458.62549305 0 -297.31395275 0 10155
0.09650000 0.09649430 18857.03122743 0 14.31418787 0 3790.68274578 0 926.40775278 0 -203.70979611 0 9913
0.09750000 0.09749140 18802.46253844 0 414.34715383 0 3330.67535235 0 -401.01997158 0 1148.19398167 0 10476
0.09850000 0.09850240 18140.42899260 0 570.46129648 0 4580.17632695 0 -1205.22491638 0 -755.95047424 0 10575
0.09950000 0.09950330 17495.91953794 0 580.98018766 0 4360.55953618 0 -342.05695036 0 -64.35256655 0 10882
0.10050000 0.10051200 16856.06838600 0 164.09869533 0 4773.50698095 0 68.07443951 0 -1025.62960067 0 10875
0.10150000 0.10150300 16742.27270531 0 86.03818573 0 4267.51548498 0 599.29619030 0 -1051.50314492 0 11118
0.10250000 0.10250800 16487.95155929 0 130.25612608 0 4203.19763388 0 683.23880528 0 -717.84223064 0 11575
0.10350000 0.10349800 15980.86203482 0 467.46733249 0 3894.64053478 0 -194.92113165 0 -1129.93787149 0 11364
0.10450000 0.10450100 15729.53551197 0 200.04082816 0 3652.60843497 0 252.96025616 0 -574.32768773 0 12093
0.10550000 0.10551000 15505.38242165 0 93.28949939 0 3464.45736994 0 354.06206194 0 -1039.72096640 0 12067
0.10650000 0.10649700 15211.35479055 0 220.91002434 0 3464.31318438 0 -51.16091872 0 -442.31915253 0 12054
0.10750000 0.10749900 14944.61150394 0 255.14965843 0 3595.85478019 0 -345.47192990 0 -833.30048175 0 12807
0.10850000 0.10850100 14777.57807790 0 145.18820453 0 3084.69478644 0 176.33450380 0 -1155.66944841 0 12736
0.10950000 0.10950300 14469.46462668 0 197.60187395 0 4039.68011727 0 -448.24739730 0 -1226.73074726 0 12933
0.11050000 0.11050200 14500.07633026 0 233.53069734 0 3922.88981340 0 -361.37005161 0 -1521.63458292 0 13428
0.11150000 0.11150900 14338.14485481 0 -4.19738585 0 4307.34397322 0 245.38940512 0 -662.50381259 0 13453
0.11250000 0.11250000 14242.64964909 0 -55.68468522 0 3814.92810231 0 467.44071362 0 -1560.29849548 0 13668
0.11350000 0.11349100 14493.31070012 0 -39.97478113 0 3798.63513399 0 149.69566697 0 -703.77526555 0 13791
0.11450000 0.11448600 14364.09825567 0 20.29411762 0 3356.14074055 0 333.65315043 0 -1228.69388912 0 14205
0.11550000 0.11549300 14429.97996555 0 35.96742076 0 4154.51837047 0 51.24998103 0 -186.03708289 0 14776
0.11650000 0.11649800 14220.35634322 0 149.69012137 0 3319.86143533 0 -132.11944717 0 -1230.52393662 0 14553
0.11750000 0.11747300 14056.20662839 0 294.18512609 0 4046.57884177 0 -304.30695243 0 -720.56955597 0 14568
0.11850000 0.11849100 13756.30066291 0 126.42744489 0 3759.05065209 0 -189.86465496 0 -1073.68775705 0 16015
0.11950000 0.11950300 13599.58205003 0 51.72989713 0 3844.04249430 0 287.09341477 0 -1101.07081320 0 15270
0.12050000 0.12050700 13766.17182819 0 117.54561438 0 3892.82157848 0 221.10633852 0 -1312.65425002 0 15999
0.12150000 0.12150000 13430.55220854 0 -45.12253837 0 3150.09957484 0 596.83949018 0 -1058.40408766 0 15670
0.12250000 0.12250700 13276.27365899 0 102.81506297 0 3529.30759850 0 171.68396492 0 -163.95561889 0 16887
0.12350000 0.12352200 13498.87398174 0 31.03394544 0 2621.18257477 0 -196.00806895 0 -1110.15117614 0 16407
0.12450000 0.12449800 13336.27703448 0 122.84166092 0 3759.88249186 0 43.19111733 0 -787.98628750 0 16306
0.12550000 0.12549900 13328.06954874 0 109.99727847 0 3387.58428390 0 -318.05227281 0 -866.16702567 0 17523
0.12650000 0.12650100 13025.50169599 0 149.97849249 0 3547.41952312 0 -40.82059581 0 -33.89270146 0 17154
0.12750000 0.12750600 12908.93321607 0 262.94344253 0 4036.69658529 0 -438.49268959 0 -916.52216894 0 18007
0.12850000 0.12850300 12855.58455875 0 175.61357600 0 4351.97494974 0 -54.70023058 0 -516.76992117 0 17496
0.12950000 0.12949900 12641.96810552 0 -48.50746077 0 4408.35150383 0 789.19300973 0 407.09572927 0 18405
0.13050000 0.13049000 12665.25961911 0 -24.40440429 0 3897.61297556 0 820.66982667 0 483.88563134 0 18100
0.13150000 0.13148800 12792.69747205 0 27.01471749 0 3824.96563555 0 575.47229926 0 1687.99144594 0 19059
0.13250000 0.13249300 12514.19751668 0 146.28734215 0 3500.95849910 0 282.42402085 0 1989.82727969 0 18957
0.13350000 0.13349100 12420.25507853 0 354.20513838 0 3737.88864831 0 -86.00502306 0 2505.44593462 0 19468
0.13450000 0.13450700 12014.98274204 0 221.10633852 0 3728.69404604 0 -525.02509906 0 2367.56017416 0 19953
0.13550000 0.13551000 11718.07139974 0 171.03069342 0 4282.35550650 0 64.98409930 0 1995.78325245 0 19956
0.13650000 0.13649900 11806.02459154 0 -75.38143097 0 4229.94960092 0 79.76422836 0 2080.34253799 0 19723
0.13750000 0.13749600 11739.81014575 0 -40.63115816 0 3700.89950649 0 39.72855656 0 1162.73454087 0 20946
0.13850000 0.13851100 11817.78126030 0 67.54561124 0 3913.10737770 0 181.00500684 0 954.28547631 0 20955
0.13950000 0.13949800 11692.56164676 0 121.97876580 0 3572.50781061 0 -391.64236456 0 689.29792618 0 20506
0.14050000 0.14048300 11630.89459172 0 282.22659754 0 4024.03043838 0 -158.02515588 0 737.51801403 0 21447
0.14150000 0.14148400 11179.03922805 0 247.13183216 0 4173.24031092 0 -487.12093349 0 -347.76780767 0 21771
0.14250000 0.14249400 10929.79785023 0 181.30779651 0 4199.68172444 0 132.56087681 0 -136.09231391 0 22470
0.14350000 0.14350900 10607.72058205 0 230.35306942 0 4568.19783425 0 -221.11188412 0 -571.36966551 0 22519
0.14450000 0.14449900 10687.90993599 0 86.41894653 0 4381.30007447 0 173.78020114 0 -102.55807994 0 22218
0.14550000 0.14550500 10395.98963231 0 -100.33440586 0 4473.94484258 0 604.20182671 0 -196.55042848 0 23559
0.14650000 0.14650700 10416.13124597 0 46.93472904 0 3355.20908000 0 624.79817944 0 163.12045176 0 23044
0.14750000 0.14750500 10522.46255111 0 38.05933142 0 3355.74145746 0 350.23116251 0 269.36191820 0 23649
0.14850000 0.14849900 10384.82079698 0 130.78406705 0 3266.27986287 0 133.34835179 0 411.70190336 0 23640
0.14950000 0.14949500 10166.15784915 0 151.57895221 0 3432.08216605 0 -166.73396372 0 816.20783814 0 24457
0.15050000 0.15050000 9815.38765447 0 196.13339947 0 2978.75167319 0 -178.35199253 0 -173.36095390 0 24591
0.15150000 0.15149900 9897.42923829 0 99.14520773 0 3080.56886117 0 29.50890586 0 334.88205506 0 25020
0.15250000 0.15250500 9565.75808475 0 45.43908113 0 3158.73961726 0 146.92730421 0 -75.46350583 0 25297
0.15350000 0.15350100 9552.01609173 0 91.25859031 0 3328.54584254 0 314.64505710 0 270.69840744 0 25452
0.15450000 0.15450400 9569.61782129 0 19.69863125 0 2534.28304668 0 355.80559810 0 266.90743632 0 26061
0.15550000 0.15549900 9691.39916378 0 -221.23610553 0 2088.82730365 0 714.39286839 0 529.71556625 0 26128
0.15650000 0.15649500 9659.09050707 0 -1.33943949 0 2320.88841740 0 85.03509788 0 819.84464162 0 26331
0.15750000 0.15749700 9663.00569959 0 131.27762532 0 1753.08568083 0 -7.95346406 0 486.27023868 0 27345
0.15850000 0.15849900 9714.03629675 0 55.51887183 0 1904.65797833 0 7.85922216 0 929.73843922 0 26980
0.15950000 0.15949700 9434.01684740 0 121.83236200 0 1817.09297842 0 -231.48326239 0 331.33398115 0 27777
0.16050000 0.16050000 9520.82764591 0 130.87168751 0 2070.29391355 0 55.15408236 0 702.83362293 0 28224
0.16150000 0.16150500 9056.83851278 0 174.88044788 0 2338.44578217 0 -126.13796465 0 43.45031860 0 28075
0.16250000 0.16249700 8996.72422532 0 281.76853111 0 2248.78454604 0 -51.73411178 0 469.34618126 0 28590
0.16350000 0.16349900 8732.07717494 0 153.70402555 0 2629.46769889 0 -91.59620635 0 620.64341707 0 29163
0.16450000 0.16449100 8499.91624042 0 63.17423779 0 2383.76441290 0 163.33007538 0 611.00627604 0 28996
0.16550000 0.16550500 8413.00562114 0 66.62770378 0 2321.17678852 0 485.88204679 0 809.53981053 0 30777
0.16650000 0.16650700 8400.35056542 0 39.64526167 0 2124.54095783 0 62.18878494 0 961.61343013 0 29211
0.16750000 0.16749900 8351.64911962 0 43.22738555 0 2142.97452715 0 361.77709854 0 1088.89378807 0 30922
0.16850000 0.16850800 8234.40407668 0 139.31652487 0 1997.60220875 0 -55.96462703 0 1542.10893248 0 30867
0.16950000 0.16949900 8023.76006424 0 90.86762562 0 2177.20196094 0 -69.69286697 0 1851.08749707 0 30852
0.17050000 0.17049200 8052.98536820 0 1.93961743 0 2054.62205226 0 388.46917311 0 1464.08236195 0 31257
0.17150000 0.17149500 8253.89130972 0 -19.51363009 0 1994.47449121 0 -61.00269233 0 1600.39317245 0 32608
0.17250000 0.17250900 8138.80905018 0 25.35059430 0 1930.28973447 0 -48.38301754 0 1552.72320796 0 32361
0.17350000 0.17350400 7986.92619917 0 149.12225209 0 2403.71747621 0 -352.12332071 0 1121.36437625 0 32508
0.17450000 0.17449800 7966.26329926 0 128.42386034 0 2270.62311283 0 -432.41360454 0 810.81086170 0 32791
0.17550000 0.17549800 7946.13277680 0 9.59032509 0 2437.14634381 0 53.76923551 0 226.95694491 0 33633
0.17650000 0.17650100 7914.60050387 0 -8.13853177 0 2438.76565857 0 99.64098423 0 861.88471453 0 33984
0.17750000 0.17750300 7908.16760964 0 22.14379653 0 2021.64792374 0 317.12504874 0 374.95344051 0 34069
