### header ###
fiducial parameters:
Omega_m = 0.31
Omega_nu = 0
Omega_de = 0.69
Omega_k = 0
H_0 = 100
w_de = -1
zeff = 0
beta = 0
fgrowth = 0
b_1 = 2
gamma = 0.55
Lx = 3500 Ly = 3500 Lz = 3500
nx = 700 ny = 700 nz = 700
xoffset = 1379.75464 yoffset = 22.6059522 zoffset = 368.141391
bins = 400 dk = 0.001
kx_ny = 0.628318531 ky_ny = 0.628318531 kz_ny = 0.628318531
############################
A(data) = 3.36034383 (not used)
A(ran) = 3.35907757 (used)
Ngal = 188587
weighted Ngal = 0
Nran = 9399747
weighted Nran = 0
SN(data) = 6643.72011
SN(ran) = 133.608596
SN(data+ran) = 6777.32871
############################
13 columns: k_central k_mean P_0(k) sigma^{lin}_{P_0(k)} P^img_1(k) sigma^{lin}_{P_1(k)} P_2(k) sigma^{lin}_{P_2(k)} P^img_3(k) sigma^{lin}_{P_3(k)} P_4(k) sigma^{lin}_{P_4(k)} N_modes
### header ###
0.00050000 0 0 0 0 0 0 0 0 0 0 0 0
0.00150000 0.00179520 28619.83551716 0 -32167.57668499 0 -44524.39011698 0 37704.74584942 0 8551.95613650 0 3
0.00250000 0.00253879 42471.29864989 0 -22643.01130570 0 -11703.43101976 0 -53355.42295109 0 19019.73908666 0 6
0.00350000 0.00331552 48422.05854852 0 -353.52524801 0 -34888.02547245 0 -18861.91135409 0 -19590.60299358 0 7
0.00450000 0.00420575 43743.12620394 0 8699.86833900 0 -12838.94776332 0 -31775.83560878 0 4961.75786676 0 24
0.00550000 0.00557378 37097.72464045 0 -1993.09918279 0 -9051.11545516 0 -4491.51329855 0 -5698.04697616 0 45
0.00650000 0.00659388 48282.30946697 0 -9985.77062198 0 -24529.84573054 0 12732.13953671 0 3503.29874166 0 40
0.00750000 0.00754703 41640.45708650 0 -939.29572363 0 -11895.41963894 0 -11440.90238800 0 -9065.61164957 0 57
0.00850000 0.00846663 48540.17979602 0 4814.38913291 0 -14919.98904672 0 -11958.52854957 0 -2129.79818518 0 75
0.00950000 0.00948925 44801.22639280 0 -2458.60780991 0 5888.37191580 0 -7275.11536143 0 5792.38869741 0 112
0.01050000 0.01054430 48246.26307689 0 -4433.12923781 0 -13885.51310736 0 10208.17130319 0 3921.19286027 0 105
0.01150000 0.01145670 58427.42731551 0 -8348.02229822 0 -3703.88303847 0 467.63259133 0 2055.11006493 0 144
0.01250000 0.01249090 64246.42379440 0 -4784.54272192 0 -14154.25280941 0 4581.11907869 0 7670.35016468 0 169
0.01350000 0.01339930 75924.89962103 0 2680.80884957 0 11769.31272964 0 -7051.02881829 0 16599.75082453 0 180
0.01450000 0.01448870 68515.64732371 0 4080.83954914 0 24.25212216 0 -13009.75219633 0 4583.47041244 0 267
0.01550000 0.01550050 63303.00658198 0 3261.49955699 0 29146.66737220 0 -11004.39724091 0 -12133.99128529 0 238
0.01650000 0.01653350 64937.73810018 0 -1323.68999098 0 21034.67683624 0 4006.96108627 0 10514.13306220 0 315
0.01750000 0.01747870 65043.43720710 0 -1128.07455041 0 36182.92271616 0 13203.40449504 0 -961.60566629 0 297
0.01850000 0.01844180 68413.49739981 0 -1838.33262058 0 8537.17157097 0 1612.14984121 0 4864.96499099 0 388
0.01950000 0.01947590 70159.58453537 0 1540.65598568 0 28017.69443484 0 -4571.82465565 0 -8727.99561446 0 399
0.02050000 0.02045430 69102.37164227 0 3012.51327670 0 19380.86845929 0 -2420.62046036 0 -2448.72555343 0 462
0.02150000 0.02154770 64563.85385105 0 2446.54058763 0 31860.57235346 0 -2760.47691725 0 -4486.72190146 0 571
0.02250000 0.02255340 65885.25905547 0 2914.54473405 0 36618.47402031 0 -5643.86647907 0 -11170.16627049 0 510
0.02350000 0.02348930 60885.01473530 0 2489.62988777 0 34572.59183124 0 3087.85577757 0 -2628.80222708 0 555
0.02450000 0.02439640 61354.72692606 0 328.96268324 0 37181.01952953 0 10041.94753453 0 149.97405601 0 592
0.02550000 0.02547300 58113.99008975 0 393.02100034 0 34086.57558097 0 9722.14396172 0 15685.39254812 0 837
0.02650000 0.02652900 61511.66736287 0 -606.91251525 0 29155.31850582 0 15479.65084473 0 21457.14052800 0 723
0.02750000 0.02749970 60614.94408961 0 -1924.01211700 0 21868.95667069 0 12356.03704820 0 28827.57363600 0 826
0.02850000 0.02848090 63192.76008432 0 -275.22583403 0 22490.61825964 0 4387.83278947 0 35041.30581428 0 831
0.02950000 0.02946900 60627.58805413 0 2163.95907178 0 22206.57270579 0 2899.07251431 0 33784.78411201 0 996
0.03050000 0.03053250 58557.52705571 0 3986.60873987 0 29528.42637116 0 -5619.80967289 0 37289.26961174 0 1041
0.03150000 0.03150510 54652.20569828 0 2240.04468284 0 28040.87503647 0 -4516.21339415 0 25247.44617309 0 1036
0.03250000 0.03246190 52740.30516834 0 941.34981330 0 32986.21793174 0 6699.83715812 0 30543.82545177 0 1059
0.03350000 0.03345080 53047.30949987 0 -371.85234184 0 31975.58806582 0 2497.23844888 0 24960.18417213 0 1302
0.03450000 0.03451200 56021.41396153 0 -948.47812558 0 32291.35444293 0 2829.46416226 0 23337.09841072 0 1339
0.03550000 0.03553350 57910.79936166 0 1106.03412383 0 29923.60571843 0 5190.96854289 0 15295.64788735 0 1365
0.03650000 0.03647120 51714.03671472 0 673.52735324 0 23669.83431917 0 -1079.50287161 0 14674.42994628 0 1308
0.03750000 0.03744890 52062.85485874 0 2537.96532407 0 30155.07899874 0 -1634.14368476 0 12670.69430562 0 1579
0.03850000 0.03847530 49666.93449399 0 2066.20126188 0 28681.50257220 0 -775.66840417 0 10163.03013161 0 1662
0.03950000 0.03950240 46621.73545988 0 1156.43474100 0 29627.13802400 0 3123.22560463 0 698.17864757 0 1683
0.04050000 0.04050350 46242.86017213 0 751.18458691 0 25377.76773723 0 1813.10014752 0 702.57187069 0 1822
0.04150000 0.04152450 44870.87910964 0 107.92511014 0 23812.13437602 0 827.19810519 0 49.84982833 0 1887
0.04250000 0.04250150 46339.57540952 0 -83.36121444 0 22907.42544095 0 1133.84197282 0 -5330.81744521 0 1920
0.04350000 0.04349210 43373.67843360 0 567.34577925 0 19120.11441904 0 1202.01956046 0 -9122.37639555 0 2005
0.04450000 0.04448520 43452.09319602 0 2159.95514968 0 18808.22996086 0 -1793.10271942 0 -8952.93617977 0 2151
0.04550000 0.04548030 40126.28687913 0 1474.82973180 0 20704.38099113 0 -870.99502370 0 -8081.35664999 0 2274
0.04650000 0.04648670 38627.53343551 0 1324.00054450 0 22140.69099592 0 2076.78226377 0 -8302.87003544 0 2311
0.04750000 0.04749250 37772.40215081 0 614.54325875 0 21915.20696196 0 212.28107311 0 -7751.14953445 0 2568
0.04850000 0.04851840 36372.80400791 0 654.17432368 0 19325.30156258 0 3492.25190950 0 -6425.01948014 0 2493
0.04950000 0.04949480 36618.80675622 0 -306.73481544 0 20268.71877500 0 3705.34707646 0 -3076.49839189 0 2644
0.05050000 0.05050630 37095.72822499 0 -1093.62640181 0 15866.84453019 0 3843.41029607 0 2725.30673172 0 2829
0.05150000 0.05149060 38315.53806536 0 -1120.06670621 0 14112.43899692 0 3954.99882857 0 702.22471622 0 2784
0.05250000 0.05249300 38219.82103570 0 851.41018813 0 13704.94842104 0 945.58110494 0 5465.10965786 0 3055
0.05350000 0.05348950 37407.16903530 0 624.52089952 0 12704.07880843 0 -453.73753979 0 3922.74562784 0 3009
0.05450000 0.05448610 37008.77324092 0 900.40444153 0 14515.27127008 0 308.84547022 0 7216.99748942 0 3336
0.05550000 0.05550870 35510.57435715 0 621.57175025 0 14016.50014332 0 -392.01724702 0 5427.04466993 0 3349
0.05650000 0.05647670 35341.10086779 0 335.95124644 0 12876.76874492 0 1341.79082440 0 3122.06102896 0 3324
0.05750000 0.05747970 34417.31507397 0 537.97185326 0 16267.23674002 0 -134.35210511 0 5842.32126607 0 3639
0.05850000 0.05849280 34242.07416219 0 737.35053696 0 13360.34493186 0 648.21946004 0 4118.71598672 0 3846
0.05950000 0.05951020 33373.63344114 0 540.44962665 0 16399.44380764 0 -179.51989556 0 6034.44297960 0 3787
0.06050000 0.06049470 33137.94550599 0 556.63390124 0 15545.31073066 0 676.64176134 0 1702.82037626 0 3930
0.06150000 0.06148310 32443.08201718 0 491.98442335 0 17420.94304657 0 -1688.69019135 0 5029.75799525 0 4083
0.06250000 0.06249100 31424.79922537 0 560.92619446 0 15221.66960371 0 1244.46557118 0 2155.85140681 0 4303
0.06350000 0.06350600 31837.50266381 0 50.59804048 0 15977.75649967 0 1898.85728232 0 4084.36654977 0 4470
0.06450000 0.06451750 31243.90180314 0 -79.46576425 0 13810.42570402 0 1503.10119282 0 1833.84068581 0 4479
0.06550000 0.06550280 31607.80397501 0 573.93284112 0 13400.27324087 0 885.38363350 0 3424.78415846 0 4636
0.06650000 0.06648880 29911.73813769 0 337.69810996 0 14372.63847732 0 662.29086161 0 2981.28046609 0 4653
0.06750000 0.06749660 29522.21530087 0 623.67575031 0 11993.24399602 0 70.44407374 0 2222.52059167 0 5220
0.06850000 0.06852730 29120.15941150 0 517.35775461 0 14704.04344214 0 -98.72174583 0 4323.79221830 0 5029
0.06950000 0.06949320 28292.53429522 0 130.99258156 0 12371.45381196 0 266.78654227 0 293.52298164 0 5040
0.07050000 0.07048030 28814.70784754 0 91.26036491 0 14098.90773664 0 1308.93869904 0 3118.66712269 0 5475
0.07150000 0.07148790 28025.79100862 0 99.46873794 0 10829.78852735 0 52.21668976 0 1091.59116717 0 5509
0.07250000 0.07249820 27960.90750647 0 725.49737478 0 13849.68854122 0 378.18541530 0 3590.57537044 0 5916
0.07350000 0.07351270 28268.46639784 0 154.15765550 0 13517.17445671 0 325.74401789 0 2518.33390547 0 5721
0.07450000 0.07449140 26890.38517703 0 305.34508846 0 13464.15853529 0 701.75444947 0 2887.10511280 0 6028
0.07550000 0.07549160 27190.06931857 0 -14.91510892 0 12801.01586976 0 1029.69785172 0 5589.07596615 0 6183
0.07650000 0.07648840 26309.31736891 0 177.94272736 0 10956.25035495 0 2313.08021475 0 3522.40887400 0 6330
0.07750000 0.07749960 26637.17315070 0 363.15795256 0 11525.41730875 0 1164.18748767 0 5724.78785201 0 6583
0.07850000 0.07848650 25675.67728726 0 184.03401272 0 10031.83236291 0 281.82842357 0 3713.52128861 0 6549
0.07950000 0.07947320 26163.13539313 0 321.44396083 0 8880.67703165 0 1090.51088458 0 5236.15407926 0 6828
0.08050000 0.08048110 24702.31384308 0 580.55428570 0 8846.24995633 0 -975.63824867 0 3246.41552914 0 7147
0.08150000 0.08149960 23853.17180473 0 812.88047905 0 7991.69541386 0 470.98102369 0 2734.34605724 0 7386
0.08250000 0.08250610 23463.20532003 0 -6.86069279 0 8699.81288302 0 875.73429216 0 2377.55334261 0 7227
0.08350000 0.08350160 23105.51421845 0 -53.42851394 0 6419.44060807 0 1317.25709675 0 720.16694552 0 7798
0.08450000 0.08449610 23069.35691639 0 198.59453608 0 5888.67137811 0 -35.11328768 0 946.17004750 0 7371
0.08550000 0.08548940 22409.31978601 0 721.68865775 0 5883.72470427 0 -933.31313200 0 87.58895689 0 8256
0.08650000 0.08650700 21331.58817855 0 501.25666400 0 7241.95268255 0 -250.96273159 0 387.07833701 0 8037
0.08750000 0.08749060 20909.56813467 0 730.14791366 0 6570.21433939 0 -670.06800891 0 -511.64800642 0 8155
0.08850000 0.08849210 20414.45710290 0 114.38573237 0 7449.61316302 0 232.67889342 0 141.34732303 0 8718
0.08950000 0.08949900 20382.18171978 0 144.44398522 0 7382.22305036 0 697.05510932 0 -621.91557736 0 8571
0.09050000 0.09049190 19686.65275916 0 286.18393662 0 6982.18575883 0 446.63806463 0 -205.04739446 0 8932
0.09150000 0.09150830 19920.34427886 0 94.99765463 0 6565.50058068 0 -100.72348505 0 -425.33631177 0 9285
0.09250000 0.09250820 19673.56514676 0 -152.44184734 0 6970.18508373 0 718.40344521 0 410.34212261 0 9204
0.09350000 0.09350330 19526.93952310 0 60.03043801 0 5892.04310199 0 889.69921824 0 -286.62758449 0 9349
0.09450000 0.09448040 19606.79614113 0 347.92752091 0 6040.62077630 0 -79.46166050 0 4.45425797 0 9564
0.09550000 0.09549270 18591.06432461 0 628.58471408 0 6298.49110535 0 -244.89584686 0 442.96022372 0 10155
0.09650000 0.09649430 18253.11555360 0 411.36140361 0 6854.28207562 0 -89.58526143 0 1006.99638980 0 9913
0.09750000 0.09749140 17629.67937314 0 212.69699300 0 6044.76888396 0 587.08367334 0 664.75310733 0 10476
0.09850000 0.09850240 17679.14611153 0 15.03600297 0 6166.01784900 0 1382.20714608 0 1572.15498502 0 10575
0.09950000 0.09950330 17179.26586507 0 90.00728147 0 5158.59333900 0 468.38013800 0 1674.27163532 0 10882
0.10050000 0.10051200 17374.36001939 0 75.66780568 0 5369.88064086 0 558.35303677 0 1953.81416320 0 10875
0.10150000 0.10150300 16785.19563750 0 320.85390916 0 4929.28284209 0 -148.10962581 0 1784.06339391 0 11118
0.10250000 0.10250800 16739.94355395 0 193.10993919 0 4740.32211969 0 -229.55783060 0 1660.30781836 0 11575
0.10350000 0.10349800 16545.62578342 0 109.28799643 0 4827.80948121 0 220.63385353 0 1049.29266936 0 11364
0.10450000 0.10450100 16190.81839305 0 240.74773920 0 4731.34934135 0 -805.29299122 0 -123.50713274 0 12093
0.10550000 0.10551000 16310.71423206 0 106.47316155 0 5229.96519136 0 -216.41919869 0 -128.40611443 0 12067
0.10650000 0.10649700 15771.23841249 0 284.71989862 0 4548.83260437 0 -291.39679918 0 -1017.01839536 0 12054
0.10750000 0.10749900 15754.15796919 0 313.52928269 0 5607.54280907 0 -890.09850133 0 -1771.97398924 0 12807
0.10850000 0.10850100 15385.59749460 0 57.00575769 0 5189.28268095 0 132.48323843 0 -2395.31034892 0 12736
0.10950000 0.10950300 15151.01867915 0 39.49941243 0 6014.94465537 0 300.06456960 0 -2468.39024561 0 12933
0.11050000 0.11050200 15191.83428392 0 154.16541934 0 4639.61405140 0 389.86888217 0 -1734.03100448 0 13428
0.11150000 0.11150900 15282.44936299 0 -132.51983938 0 5106.67544608 0 1212.43419439 0 -1142.60401841 0 13453
0.11250000 0.11250000 15350.43840028 0 -214.83204841 0 3893.04340242 0 773.58215003 0 -1702.04399248 0 13668
0.11350000 0.11349100 15460.35216204 0 196.75450650 0 4366.79278886 0 -20.34469347 0 76.37276215 0 13791
0.11450000 0.11448600 15013.26601305 0 296.53978721 0 3835.63536701 0 -516.16434182 0 -483.36989068 0 14205
0.11550000 0.11549300 14913.99980037 0 107.63917909 0 4198.68351672 0 170.08461432 0 221.98143396 0 14776
0.11650000 0.11649800 14618.75213760 0 172.83523116 0 5010.55913333 0 -101.30754748 0 -161.54106531 0 14553
0.11750000 0.11747300 14651.80390451 0 195.76184438 0 4386.93440252 0 529.47821463 0 444.00168711 0 14568
0.11850000 0.11849100 14258.62097270 0 141.51812746 0 4696.60062132 0 438.70453145 0 1419.61775339 0 16015
0.11950000 0.11950300 14286.23805310 0 56.76363686 0 4221.36501448 0 625.76755006 0 946.10571856 0 15270
0.12050000 0.12050700 14305.64764776 0 82.55821178 0 4024.13025915 0 31.86001779 0 1541.29927511 0 15999
0.12150000 0.12150000 14034.91153025 0 196.20660137 0 4310.23877562 0 -173.31658911 0 1091.76418984 0 15670
0.12250000 0.12250700 13679.66049200 0 179.21932413 0 4254.67187891 0 -209.81328179 0 1443.18654690 0 16887
0.12350000 0.12352200 13524.71647063 0 63.18177980 0 3973.18839156 0 221.53113137 0 1101.43016798 0 16407
0.12450000 0.12449800 13772.82654636 0 -139.22890441 0 3425.12798557 0 567.45114562 0 645.52429918 0 16306
0.12550000 0.12549900 13667.68199929 0 -33.22778420 0 3255.08884515 0 340.84690077 0 191.26769137 0 17523
0.12650000 0.12650100 13362.67408322 0 363.50067054 0 3001.46644454 0 -40.04110649 0 127.33914128 0 17154
0.12750000 0.12750600 13170.35272814 0 229.91718538 0 2868.86009382 0 -360.40179011 0 -33.50728236 0 18007
0.12850000 0.12850300 12638.19709856 0 158.12719489 0 2819.53754100 0 244.72947890 0 284.05553592 0 17496
0.12950000 0.12949900 12644.85181673 0 1.75477154 0 2745.69235171 0 793.13260289 0 212.96539996 0 18405
0.13050000 0.13049000 12586.84485669 0 -129.89898954 0 1614.80063728 0 721.77073260 0 374.88911157 0 18100
0.13150000 0.13148800 12757.98202560 0 -36.75866675 0 1917.74559073 0 641.25307924 0 1197.67181126 0 19059
0.13250000 0.13249300 12636.86615493 0 235.40621875 0 1136.89205198 0 -400.76265581 0 354.91497498 0 18957
0.13350000 0.13349100 12427.79709245 0 306.01056028 0 2301.03517486 0 -660.22457162 0 1386.47725691 0 19468
0.13450000 0.13450700 12168.15217190 0 177.51793452 0 2428.38429822 0 -578.44474004 0 489.15062253 0 19953
0.13550000 0.13551000 11860.59328052 0 229.83732876 0 2903.74190823 0 -383.70994050 0 261.20212461 0 19956
0.13650000 0.13649900 11789.49870808 0 323.73651124 0 3875.44167286 0 -676.95120573 0 110.64311887 0 19723
0.13750000 0.13749600 11336.86696063 0 127.49552716 0 3339.23775640 0 252.11288871 0 -457.05824416 0 20946
0.13850000 0.13851100 11579.65326182 0 -51.43653497 0 3646.28645271 0 559.58415963 0 646.17646156 0 20955
0.13950000 0.13949800 11179.81561184 0 -33.38017725 0 3486.06302160 0 180.55803160 0 326.78880864 0 20506
0.14050000 0.14048300 11541.16680841 0 313.81099909 0 3772.81482750 0 -10.40369801 0 572.87141357 0 21447
0.14150000 0.14148400 10896.41334742 0 220.09814872 0 3497.30949530 0 -232.70329405 0 390.11732498 0 21771
0.14250000 0.14249400 10861.49825942 0 105.39787001 0 3700.97714486 0 39.66977321 0 758.40828348 0 22470
0.14350000 0.14350900 11077.22204007 0 -144.14119554 0 3537.75909057 0 548.49629004 0 535.58391855 0 22519
0.14450000 0.14449900 10688.09848634 0 -33.56906033 0 3262.90813900 0 110.56825329 0 470.36768050 0 22218
0.14550000 0.14550500 10942.69691228 0 229.83732876 0 3226.55119540 0 -492.31937750 0 128.86418086 0 23559
0.14650000 0.14650700 10626.83071439 0 205.21043506 0 3611.27154395 0 62.18667761 0 -68.58796193 0 23044
0.14750000 0.14750500 10669.69819060 0 38.48778435 0 3463.23733828 0 193.85637674 0 461.11762224 0 23649
0.14850000 0.14849900 10276.98108906 0 79.63091217 0 3485.34209380 0 240.88083356 0 263.62776938 0 23640
0.14950000 0.14949500 10491.46265564 0 123.17106947 0 3223.85603455 0 169.85391742 0 810.05000559 0 24457
0.15050000 0.15050000 10173.62222470 0 72.63968708 0 3488.65836168 0 124.65507162 0 584.79223205 0 24591
0.15150000 0.15149900 10115.69290304 0 194.58617750 0 3247.79083756 0 -16.57080280 0 813.36294612 0 25020
0.15250000 0.15250500 9716.85346078 0 166.55872281 0 3444.79267775 0 -182.82729049 0 684.56087596 0 25297
0.15350000 0.15350100 9659.65615812 0 202.95448560 0 3338.57228458 0 -166.63414295 0 106.93100616 0 25452
0.15450000 0.15450400 9430.55639395 0 120.41823439 0 3241.85704719 0 54.14189973 0 -215.20582175 0 26061
0.15550000 0.15549900 9102.29023788 0 185.72985674 0 3305.89761837 0 216.87171953 0 116.09599494 0 26128
0.15650000 0.15649500 8968.06457241 0 152.88882257 0 2918.53756496 0 45.46037623 0 -381.55824829 0 26331
0.15750000 0.15749700 8850.60879673 0 20.54078584 0 2856.61541239 0 254.67939168 0 -435.54464944 0 27345
0.15850000 0.15849900 8647.55116300 0 62.29015848 0 2791.80954862 0 235.68460779 0 -292.93292996 0 26980
0.15950000 0.15949700 8766.53752386 0 -67.78030097 0 2000.75210869 0 262.19700498 0 -150.48203283 0 27777
0.16050000 0.16050000 8795.00862643 0 -170.98300127 0 2266.09790448 0 426.41881259 0 -277.79233700 0 28224
0.16150000 0.16150500 9108.01329550 0 -111.69722623 0 1561.32997680 0 304.26924236 0 -78.77600271 0 28075
0.16250000 0.16249700 9057.09361031 0 5.69287848 0 1420.91542343 0 292.21311128 0 -40.18118830 0 28590
0.16350000 0.16349900 9120.47980087 0 170.70017575 0 1580.79502744 0 -280.02943143 0 344.75432946 0 29163
0.16450000 0.16449100 8824.99922297 0 279.16986367 0 2149.05250308 0 -412.85982432 0 529.88193420 0 28996
0.16550000 0.16550500 8680.45874434 0 124.61847067 0 2395.98691194 0 -204.41852359 0 292.37060627 0 30777
0.16650000 0.16650700 8550.27027457 0 86.34108632 0 2611.56650702 0 -271.91622086 0 -136.02576673 0 29211
0.16750000 0.16749900 8541.64132334 0 104.50325406 0 2839.21332438 0 -236.76710861 0 -0.42702328 0 30922
0.16850000 0.16850800 8488.08193328 0 85.84431161 0 2789.86858916 0 -29.22630217 0 -464.01242465 0 30867
0.16950000 0.16949900 8285.05757314 0 67.51910328 0 2931.32571504 0 55.27852559 0 -171.57527119 0 30852
0.17050000 0.17049200 8308.27144835 0 104.10452553 0 2748.82006925 0 -27.16178677 0 -694.56069913 0 31257
0.17150000 0.17149500 8181.11087534 0 65.25184080 0 2712.98441191 0 357.58129873 0 -474.63002748 0 32608
0.17250000 0.17250900 8039.23228398 0 82.31498183 0 2590.01631135 0 212.13799667 0 94.15294907 0 32361
0.17350000 0.17350400 7950.60252917 0 71.56339733 0 2341.76205006 0 -2.56486148 0 -377.76062246 0 32508
0.17450000 0.17449800 7969.45756398 0 17.97295192 0 2370.02241988 0 135.37471347 0 -199.01489244 0 32791
0.17550000 0.17549800 7860.55310114 0 36.19379209 0 2319.73493292 0 36.46020264 0 -325.63532416 0 33633
0.17650000 0.17650100 7804.64237733 0 95.39693772 0 2323.33957193 0 -79.61882276 0 -240.49375079 0 33984
0.17750000 0.17750300 7873.09724489 0 -8.25405768 0 2083.94717700 0 120.72989702 0 -383.07552404 0 34069
0.17850000 0.17849800 7779.65391060 0 -46.50427968 0 2320.72204945 0 300.89751849 0 -177.49464300 0 34536
