### header ###
fiducial parameters:
Omega_m = 0.31
Omega_nu = 0
Omega_de = 0.69
Omega_k = 0
H_0 = 100
w_de = -1
zeff = 0
beta = 0
fgrowth = 0
b_1 = 2
gamma = 0.55
Lx = 3500 Ly = 3500 Lz = 3500
nx = 700 ny = 700 nz = 700
xoffset = 1379.75464 yoffset = 22.6059522 zoffset = 368.141391
bins = 400 dk = 0.001
kx_ny = 0.628318531 ky_ny = 0.628318531 kz_ny = 0.628318531
############################
A(data) = 3.33438431 (not used)
A(ran) = 3.33347667 (used)
Ngal = 187298
weighted Ngal = 0
Nran = 9399747
weighted Nran = 0
SN(data) = 6622.73678
SN(ran) = 132.590311
SN(data+ran) = 6755.32709
############################
13 columns: k_central k_mean P_0(k) sigma^{lin}_{P_0(k)} P^img_1(k) sigma^{lin}_{P_1(k)} P_2(k) sigma^{lin}_{P_2(k)} P^img_3(k) sigma^{lin}_{P_3(k)} P_4(k) sigma^{lin}_{P_4(k)} N_modes
### header ###
0.00050000 0 0 0 0 0 0 0 0 0 0 0 0
0.00150000 0.00179520 18001.78903075 0 -32372.76382853 0 -45650.70116707 0 43325.20990293 0 27955.80555587 0 3
0.00250000 0.00253879 27792.76496073 0 -26291.79327773 0 -7377.47601806 0 -60756.91141055 0 -15279.34382784 0 6
0.00350000 0.00331552 40778.56017165 0 -1530.20807816 0 -33709.80762064 0 -27325.93648118 0 -41730.62851769 0 7
0.00450000 0.00420575 46894.35708087 0 9054.52045262 0 -10686.90063707 0 -38144.95545630 0 5995.76797585 0 24
0.00550000 0.00557378 28563.93588454 0 1327.74936907 0 2915.99768085 0 1949.28895485 0 11609.26675767 0 45
0.00650000 0.00659388 31770.40092228 0 -7776.21563955 0 4540.02619400 0 10921.02471345 0 -5116.10296349 0 40
0.00750000 0.00754703 43923.24724238 0 -9366.16090447 0 -13343.26448856 0 685.78867146 0 -28750.26799327 0 57
0.00850000 0.00846663 49756.88410124 0 839.32411082 0 1587.06155372 0 -20103.90358835 0 -12565.99340643 0 75
0.00950000 0.00948925 43602.71165058 0 3074.34669968 0 -9135.80783505 0 -15145.69490461 0 -834.72680968 0 112
0.01050000 0.01054430 51600.68468191 0 -8786.13566887 0 16543.85119191 0 -4541.65659995 0 -25887.85188488 0 105
0.01150000 0.01145670 63171.79772208 0 -5734.65901729 0 3927.24865381 0 -100.14441366 0 -26470.36154860 0 144
0.01250000 0.01249090 67789.95030738 0 -2055.43170964 0 11537.17397751 0 -13799.44541904 0 -30241.81215887 0 169
0.01350000 0.01339930 66186.71778852 0 247.89268827 0 14255.40452558 0 -8885.74570866 0 -6781.08017576 0 180
0.01450000 0.01448870 76923.10734637 0 -4354.65901940 0 9638.50524554 0 11128.13063406 0 -8037.54642204 0 267
0.01550000 0.01550050 74475.50200383 0 -2282.80124708 0 13988.88306292 0 6287.65500593 0 -22637.24388329 0 238
0.01650000 0.01653350 87226.94022324 0 2326.97748452 0 3303.67937898 0 -4620.50391905 0 -7703.60157313 0 315
0.01750000 0.01747870 78019.91581258 0 738.92881428 0 24366.80513540 0 -14782.56911653 0 -22412.86896903 0 297
0.01850000 0.01844180 77693.50188639 0 5586.84663556 0 17226.51436407 0 -8953.63492518 0 -7220.13629816 0 388
0.01950000 0.01947590 73489.38368317 0 1773.54893920 0 32505.30363206 0 -5491.91708088 0 -23320.01796742 0 399
0.02050000 0.02045430 70638.16968369 0 6106.76867490 0 35200.90813836 0 -1617.91726363 0 -19182.11420998 0 462
0.02150000 0.02154770 65933.39485022 0 2733.92459175 0 42136.67723796 0 1947.59200171 0 -13688.53344956 0 571
0.02250000 0.02255340 65521.68961950 0 1120.47708050 0 48114.72148108 0 11486.04355958 0 2494.56547041 0 510
0.02350000 0.02348930 65091.12935397 0 -2398.58225202 0 27034.01617751 0 17930.58354634 0 2219.76997482 0 555
0.02450000 0.02439640 64609.21684657 0 -1006.71578252 0 34610.74554875 0 13335.27882676 0 13532.81304440 0 592
0.02550000 0.02547300 66172.52105642 0 -1171.66295441 0 12033.61595291 0 13341.04624917 0 25859.79115660 0 837
0.02650000 0.02652900 65054.41749207 0 -597.77891456 0 15585.23903967 0 10427.24462531 0 19394.84336745 0 723
0.02750000 0.02749970 66566.92401990 0 2205.32923640 0 10055.64516276 0 -3252.29386352 0 27777.79184485 0 826
0.02850000 0.02848090 59747.61248826 0 1693.28194689 0 10511.85936683 0 -1710.38457258 0 10145.27312530 0 831
0.02950000 0.02946900 60354.85552117 0 1234.78295625 0 9845.62225735 0 -3278.19180840 0 19502.98253769 0 996
0.03050000 0.03053250 55669.15754646 0 1258.31847617 0 13542.90603363 0 -3458.56794436 0 5549.95731451 0 1041
0.03150000 0.03150510 59050.30893612 0 1702.16599564 0 15640.02955260 0 -521.89516328 0 3535.69612794 0 1036
0.03250000 0.03246190 55736.59202390 0 1986.16718470 0 16058.83314936 0 -5909.81119950 0 -3345.89247457 0 1059
0.03350000 0.03345080 55944.99561456 0 790.91879998 0 19671.56873131 0 -1521.32402940 0 -2619.20834172 0 1302
0.03450000 0.03451200 52860.64465523 0 -198.95389086 0 20810.63465789 0 2667.59923400 0 -3050.84445335 0 1339
0.03550000 0.03553350 54198.90847900 0 3.03083593 0 18150.18924592 0 -1380.79856407 0 -4933.45313214 0 1365
0.03650000 0.03647120 54997.58557124 0 540.22558448 0 19904.81660313 0 6710.07433290 0 -2298.85020906 0 1308
0.03750000 0.03744890 52675.97622604 0 2508.27418984 0 20519.15800209 0 -5727.48301287 0 -11468.18673249 0 1579
0.03850000 0.03847530 49614.36222045 0 4390.07321126 0 23656.30305889 0 -6114.45487439 0 -10885.79907194 0 1662
0.03950000 0.03950240 44826.84705775 0 1668.77040163 0 26978.22745686 0 -2338.87833885 0 -8754.19302166 0 1683
0.04050000 0.04050350 42420.61187984 0 804.09070547 0 25326.97005521 0 4242.69338621 0 -15010.93686169 0 1822
0.04150000 0.04152450 44185.55405021 0 -1338.54110370 0 23625.91317926 0 4668.36243389 0 -12524.73415378 0 1887
0.04250000 0.04250150 43140.31964981 0 1563.04911232 0 19412.36745863 0 888.50358721 0 -18277.18345098 0 1920
0.04350000 0.04349210 40940.04799922 0 1752.43130021 0 17758.55908168 0 -791.15726071 0 -8953.76801954 0 2005
0.04450000 0.04448520 40111.42467522 0 328.93495525 0 21914.31966621 0 1267.92345273 0 -10833.34880157 0 2151
0.04550000 0.04548030 38360.90106088 0 1351.70635447 0 18340.73600949 0 1124.13717549 0 -6781.76782998 0 2274
0.04650000 0.04648670 37806.78486135 0 -153.05962701 0 19193.31631890 0 3737.00135255 0 -5962.99348886 0 2311
0.04750000 0.04749250 37643.18970636 0 201.27527838 0 18029.84975903 0 2297.06452636 0 -6115.68599725 0 2568
0.04850000 0.04851840 37731.91928194 0 945.20733160 0 18328.42478088 0 -1332.38548939 0 -1770.82050475 0 2493
0.04950000 0.04949480 36680.03016338 0 719.93957599 0 18746.00834598 0 332.67823422 0 -1550.91534286 0 2644
0.05050000 0.05050630 35585.32902459 0 39.24941685 0 18162.72229847 0 1069.40544591 0 1553.08921746 0 2829
0.05150000 0.05149060 36456.43163290 0 -670.28428725 0 17436.47072230 0 2089.00476280 0 2220.94564170 0 2784
0.05250000 0.05249300 38243.88893307 0 -1041.15616728 0 15214.90397357 0 5000.57705608 0 -1070.20733945 0 3055
0.05350000 0.05348950 38080.29377809 0 -296.40669284 0 13207.73006185 0 1876.88562117 0 735.99741093 0 3009
0.05450000 0.05448610 38642.06290352 0 -208.92487691 0 10348.65240374 0 2600.69713401 0 3300.21892553 0 3336
0.05550000 0.05550870 36967.29216433 0 611.98230137 0 8825.33195888 0 2284.93075689 0 766.42056416 0 3349
0.05650000 0.05647670 36403.74844740 0 1405.28792693 0 7012.23181136 0 -1205.63529067 0 2344.75667323 0 3324
0.05750000 0.05747970 35661.30372368 0 888.23185288 0 9508.98224757 0 -291.24706802 0 2833.37935479 0 3639
0.05850000 0.05849280 33101.67729197 0 982.73772384 0 7641.39104945 0 949.72921260 0 -123.93525294 0 3846
0.05950000 0.05951020 32440.19830598 0 1047.20974258 0 9355.69081455 0 -1077.28241398 0 2421.36357055 0 3787
0.06050000 0.06049470 30609.70716164 0 1167.81430907 0 9160.55229545 0 -1050.20880223 0 -2071.61376599 0 3930
0.06150000 0.06148310 30459.64326693 0 689.28350762 0 11202.77438952 0 -481.99347314 0 396.44152548 0 4083
0.06250000 0.06249100 28953.23689743 0 10.71732379 0 9964.20933512 0 -810.64449375 0 -1751.86564917 0 4303
0.06350000 0.06350600 29232.40232461 0 371.50407826 0 10479.97217560 0 895.52542399 0 -2279.90644468 0 4470
0.06450000 0.06451750 29655.86422410 0 154.44159014 0 11860.48236855 0 314.11933437 0 -1899.58930132 0 4479
0.06550000 0.06550280 28505.59618860 0 228.72377259 0 9231.89087422 0 569.32223055 0 -2701.94867095 0 4636
0.06650000 0.06648880 28789.08718259 0 329.36196634 0 11654.40792925 0 1048.62941579 0 940.45586283 0 4653
0.06750000 0.06749660 28360.74515645 0 156.10416057 0 9830.06130803 0 185.39157523 0 -600.50291253 0 5220
0.06850000 0.06852730 27670.87270627 0 518.09864656 0 10043.15647499 0 458.28493054 0 372.31151740 0 5029
0.06950000 0.06949320 27027.25054737 0 1224.88960857 0 11160.51692915 0 -1615.68793304 0 271.13318236 0 5040
0.07050000 0.07048030 26466.03598179 0 283.20373200 0 11999.23324237 0 -56.92922843 0 315.52458902 0 5475
0.07150000 0.07148790 26334.27256204 0 -54.21953811 0 13361.01040368 0 511.74228159 0 -314.90126375 0 5509
0.07250000 0.07249820 26370.87351197 0 -110.55782756 0 11033.17889699 0 631.61704733 0 116.71266549 0 5916
0.07350000 0.07351270 26638.06044645 0 -178.90100677 0 11668.27192544 0 1303.16018543 0 677.82297381 0 5721
0.07450000 0.07449140 26704.71854011 0 -484.06198137 0 10568.61302161 0 888.76201209 0 321.66134829 0 6028
0.07550000 0.07549160 27563.95356769 0 462.26334289 0 11827.09786574 0 533.65515940 0 696.15783149 0 6183
0.07650000 0.07648840 26163.35721707 0 462.88001344 0 10787.36469902 0 -326.51929256 0 594.82089233 0 6330
0.07750000 0.07749960 25743.88814849 0 644.30426752 0 12495.12065793 0 -734.23612885 0 2682.70544425 0 6583
0.07850000 0.07848650 25518.07137862 0 599.32059094 0 11290.06210950 0 1224.54578146 0 1970.82805932 0 6549
0.07950000 0.07947320 24637.76307684 0 56.41481872 0 11866.13887899 0 949.81572394 0 3011.62598094 0 6828
0.08050000 0.08048110 24491.80292500 0 478.69716940 0 11030.26191219 0 1183.82999747 0 2889.93336803 0 7147
0.08150000 0.08149960 23341.53488950 0 693.98506601 0 10223.15551027 0 1260.37034761 0 4768.06120325 0 7386
0.08250000 0.08250610 22877.03556131 0 175.50266403 0 9032.48224428 0 1018.28944653 0 4367.03679520 0 7227
0.08350000 0.08350160 22289.42394700 0 25.12999040 0 9031.25112142 0 1370.28410936 0 3951.82674624 0 7798
0.08450000 0.08449610 22371.38789244 0 94.79579484 0 6991.08089878 0 1440.03664697 0 5311.34130337 0 7371
0.08550000 0.08548940 21370.18554393 0 404.05563218 0 6503.07932426 0 193.13544894 0 3673.94789790 0 8256
0.08650000 0.08650700 21431.74168699 0 565.19186881 0 6723.48359001 0 -759.59836891 0 3743.41206439 0 8037
0.08750000 0.08749060 20703.38278340 0 430.11883589 0 7598.11319896 0 -208.74519952 0 2353.80708994 0 8155
0.08850000 0.08849210 20041.01650165 0 502.32030979 0 6909.68260438 0 -832.02721235 0 2326.30092151 0 8718
0.08950000 0.08949900 19648.16630575 0 131.55601436 0 8549.93753866 0 -777.73913064 0 890.32587086 0 8571
0.09050000 0.09049190 19275.72391222 0 358.85124078 0 8051.86515730 0 -341.64657607 0 329.25438172 0 8932
0.09150000 0.09150830 19687.54005491 0 226.27150894 0 8745.80807676 0 441.29543506 0 110.11229418 0 9285
0.09250000 0.09250820 18517.52968884 0 152.91100497 0 8676.31063669 0 -362.25845648 0 -449.83787495 0 9204
0.09350000 0.09350330 18873.66802285 0 524.46610273 0 9219.79037835 0 -7.16135295 0 1014.87003052 0 9349
0.09450000 0.09448040 18366.46758641 0 -2.27645708 0 8488.89159066 0 801.40996317 0 42.46275843 0 9564
0.09550000 0.09549270 18254.77923314 0 18.96306307 0 8090.71762021 0 1320.35154070 0 1942.14622401 0 10155
0.09650000 0.09649430 18012.99113967 0 187.41460955 0 7351.92190030 0 747.73189730 0 704.53833990 0 9913
0.09750000 0.09749140 17626.68474996 0 298.80239138 0 7118.17492461 0 534.89959170 0 2891.13121730 0 10476
0.09850000 0.09850240 17203.44467442 0 370.80533285 0 6535.92035842 0 83.93085831 0 1815.85076436 0 10575
0.09950000 0.09950330 16570.69188852 0 202.29234114 0 5996.74400118 0 490.70449922 0 1757.06742054 0 10882
0.10050000 0.10051200 16483.95872839 0 338.31145315 0 5590.21835943 0 -203.80739864 0 1077.26577719 0 10875
0.10150000 0.10150300 15902.44727239 0 285.17131033 0 5983.90039511 0 -480.09244198 0 0.35810480 0 11118
0.10250000 0.10250800 15598.10482813 0 221.37474549 0 5907.70387208 0 208.36588059 0 125.76308220 0 11575
0.10350000 0.10349800 15334.79981258 0 8.75855186 0 5686.56758732 0 125.55567681 0 -1280.96670034 0 11364
0.10450000 0.10450100 15549.52538550 0 -177.36709424 0 5137.29824086 0 493.41186040 0 -885.05755231 0 12093
0.10550000 0.10551000 15578.58432150 0 -106.84981860 0 4823.57264398 0 661.29930860 0 -991.52860654 0 12067
0.10650000 0.10649700 15501.27867877 0 87.13077955 0 4525.88491789 0 93.00822663 0 -299.24714838 0 12054
0.10750000 0.10749900 15927.29155356 0 82.43265943 0 4728.84273084 0 -61.25568254 0 -656.96043236 0 12807
0.10850000 0.10850100 15476.98895746 0 63.20540405 0 4099.79440473 0 99.53395418 0 -304.76945534 0 12736
0.10950000 0.10950300 15471.66518292 0 101.47302814 0 5492.99292699 0 297.38382729 0 -309.20038852 0 12933
0.11050000 0.11050200 15525.34657615 0 251.86333678 0 4787.53734509 0 -1047.88963295 0 -1090.30458832 0 13428
0.11150000 0.11150900 15218.34224463 0 261.13890479 0 6133.11026766 0 -288.05834890 0 -1046.53428868 0 13453
0.11250000 0.11250000 15094.12083881 0 275.92014296 0 6300.28787926 0 -500.47140725 0 -1148.72635912 0 13668
0.11350000 0.11349100 14718.90564605 0 141.43827084 0 6666.58574967 0 -459.36188577 0 -903.21495084 0 13791
0.11450000 0.11448600 14553.42498758 0 223.29241344 0 7060.65597724 0 648.24496979 0 -1379.99999789 0 14205
0.11550000 0.11549300 14477.56120045 0 -6.70435128 0 6141.38430058 0 858.70154101 0 -200.32809016 0 14776
0.11650000 0.11649800 14444.62034552 0 50.41026651 0 6386.12265244 0 600.54173172 0 305.27410480 0 14553
0.11750000 0.11747300 14011.84184060 0 340.66944162 0 5071.25016303 0 683.45286539 0 352.80099285 0 14568
0.11850000 0.11849100 13722.58342419 0 383.32507597 0 6246.88376595 0 -480.38081310 0 904.49043849 0 16015
0.11950000 0.11950300 13102.58551478 0 285.34100565 0 5250.68354726 0 -78.67962021 0 408.15161122 0 15270
0.12050000 0.12050700 13028.93996705 0 159.42708317 0 6578.90983779 0 119.53315687 0 712.41752622 0 15999
0.12150000 0.12150000 12822.64370381 0 -39.40791005 0 5168.81942258 0 155.99103036 0 -132.47658371 0 15670
0.12250000 0.12250700 12837.94955560 0 -81.07343324 0 5790.92465941 0 665.75131506 0 -57.42356308 0 16887
0.12350000 0.12352200 13105.35831402 0 -4.70885639 0 4647.18933891 0 146.45038274 0 -657.93202121 0 16407
0.12450000 0.12449800 12634.98065145 0 244.80822640 0 4515.14863924 0 91.79740066 0 28.09056360 0 16306
0.12550000 0.12549900 12628.76958115 0 248.55372361 0 5178.35785196 0 102.27780539 0 137.67835508 0 17523
0.12650000 0.12650100 12263.98011353 0 96.08736473 0 4448.92310226 0 159.41377374 0 -188.51041981 0 17154
0.12750000 0.12750600 12182.90346384 0 69.58982975 0 4258.37633869 0 616.22246596 0 117.97817106 0 18007
0.12850000 0.12850300 12138.76049998 0 -11.51709891 0 4489.39487993 0 -21.86008371 0 316.87993329 0 17496
0.12950000 0.12949900 12013.09723856 0 132.46216515 0 4072.06641236 0 239.80166010 0 159.57126873 0 18405
0.13050000 0.13049000 11878.00645973 0 224.04772395 0 4199.70390684 0 -208.03203556 0 -72.43461085 0 18100
0.13150000 0.13148800 11805.80276760 0 7.62047305 0 4170.65606203 0 -92.93225193 0 541.25484755 0 19059
0.13250000 0.13249300 11776.52200765 0 -81.40350727 0 4113.58076254 0 529.47710551 0 37.46118316 0 18957
0.13350000 0.13349100 11940.89354643 0 -52.94593596 0 4002.89061699 0 436.93881289 0 248.02023704 0 19468
0.13450000 0.13450700 11734.81910713 0 134.54176458 0 3703.47266418 0 -163.17479862 0 24.61480430 0 19953
0.13550000 0.13551000 11688.23607995 0 156.22838197 0 3697.74960655 0 -178.28655446 0 211.51688964 0 19956
0.13650000 0.13649900 11498.90934804 0 149.87423524 0 4016.24441812 0 131.50166750 0 165.44405752 0 19723
0.13750000 0.13749600 11369.80781556 0 138.45252062 0 3676.99797706 0 -36.31890079 0 -536.90598923 0 20946
0.13850000 0.13851100 11306.58799296 0 43.67691176 0 3811.06836577 0 424.02644141 0 300.41061494 0 20955
0.13950000 0.13949800 10962.30614849 0 21.66332588 0 3130.86743933 0 547.25740334 0 131.75898327 0 20506
0.14050000 0.14048300 11037.24936627 0 143.68534734 0 2692.99807501 0 262.28462543 0 441.18785045 0 21447
0.14150000 0.14148400 10836.98671417 0 161.16507373 0 2871.49979870 0 117.79960279 0 173.02599975 0 21771
0.14250000 0.14249400 10415.14412944 0 227.26749843 0 2664.10550696 0 112.06989044 0 973.83260181 0 22470
0.14350000 0.14350900 10465.42052521 0 -16.58045214 0 2546.63864008 0 186.14134014 0 571.87209673 0 22519
0.14450000 0.14449900 10439.53367153 0 -31.55190434 0 2683.58164880 0 41.33733467 0 1023.06864330 0 22218
0.14550000 0.14550500 10237.64061348 0 197.16377167 0 2609.81409790 0 -109.57514751 0 625.06325905 0 23559
0.14650000 0.14650700 10366.22085970 0 84.66276640 0 2613.29673374 0 -104.26235326 0 617.99262100 0 23044
0.14750000 0.14750500 10022.49357508 0 74.88753997 0 3096.21854007 0 -124.82365781 0 523.19616068 0 23649
0.14850000 0.14849900 10303.73305610 0 32.15116171 0 2975.65722924 0 134.88115521 0 502.44785855 0 23640
0.14950000 0.14949500 10019.95369098 0 89.72123950 0 2928.79692213 0 -53.83323172 0 319.40428971 0 24457
0.15050000 0.15050000 9969.77711598 0 197.54530884 0 3313.58381786 0 -309.20926148 0 459.20549989 0 24591
0.15150000 0.15149900 9864.05582667 0 49.80901273 0 3251.24019981 0 8.99431744 0 30.43169345 0 25020
0.15250000 0.15250500 9759.94276092 0 54.12282287 0 3426.90257708 0 -36.53029900 0 153.28034182 0 25297
0.15350000 0.15350100 9718.72787306 0 157.94751750 0 3329.30004393 0 128.35509492 0 -244.16050050 0 25452
0.15450000 0.15450400 9584.82385231 0 8.75022237 0 3344.46171016 0 212.09917748 0 424.27599334 0 26061
0.15550000 0.15549900 9399.61195447 0 104.20079712 0 2965.37568967 0 225.02596752 0 29.46365378 0 26128
0.15650000 0.15649500 9475.09864090 0 50.99155615 0 2896.86536612 0 268.33265513 0 586.16864959 0 26331
0.15750000 0.15749700 9303.12963221 0 45.48810422 0 2595.65063940 0 206.20753366 0 7.11857421 0 27345
0.15850000 0.15849900 9404.14825402 0 -34.46145804 0 2398.95935272 0 352.22535972 0 638.34496740 0 26980
0.15950000 0.15949700 9140.32195221 0 128.44271538 0 2418.16930583 0 -108.63372672 0 156.79625126 0 27777
0.16050000 0.16050000 9073.41985222 0 248.39290125 0 2359.28614124 0 -471.78957195 0 -80.94288986 0 28224
0.16150000 0.16150500 8784.16143581 0 170.21438132 0 2751.39322695 0 -138.44253855 0 -247.13405040 0 28075
0.16250000 0.16249700 8681.42367848 0 -7.19681151 0 2612.94181544 0 95.51993909 0 -349.38490419 0 28590
0.16350000 0.16349900 8647.65098377 0 -16.02677959 0 2392.11608420 0 395.00854283 0 -354.70756960 0 29163
0.16450000 0.16449100 8725.42245677 0 73.90075618 0 2110.00039863 0 -4.19028748 0 -326.44387242 0 28996
0.16550000 0.16550500 8590.57568428 0 77.49818591 0 2356.24715327 0 137.71384691 0 -6.09319305 0 30777
0.16650000 0.16650700 8580.37178308 0 71.25472932 0 2210.06517749 0 -192.94357123 0 -604.62107396 0 29211
0.16750000 0.16749900 8636.69288119 0 61.53806441 0 2246.22247954 0 -164.79633162 0 -130.06757573 0 30922
0.16850000 0.16850800 8327.40376309 0 125.95495990 0 2674.95269758 0 -359.96923343 0 -1026.07879415 0 30867
0.16950000 0.16949900 8513.95769576 0 191.87659808 0 3026.02235458 0 -398.63980071 0 -387.36892637 0 30852
0.17050000 0.17049200 8239.36184171 0 79.80138387 0 3119.80951597 0 -193.74546477 0 -1618.37200270 0 31257
0.17150000 0.17149500 8208.51722300 0 142.31447540 0 3638.62243562 0 -196.41178852 0 -877.69410666 0 32608
0.17250000 0.17250900 8011.14937331 0 19.82141080 0 3304.07866207 0 41.50447901 0 -1347.92425631 0 32361
0.17350000 0.17350400 8117.76904957 0 43.17736425 0 3655.12613668 0 187.98691531 0 -1235.51497524 0 32508
0.17450000 0.17449800 7875.60385540 0 128.57137326 0 3177.68338165 0 68.77340674 0 -1403.05859634 0 32791
0.17550000 0.17549800 7800.77154959 0 101.27449572 0 3305.13232578 0 74.60249621 0 -1061.26007087 0 33633
0.17650000 0.17650100 7540.69407235 0 76.81796280 0 3026.27745211 0 574.01602510 0 -622.77292688 0 33984
0.17750000 0.17750300 7597.33681517 0 -43.76663954 0 2524.95535005 0 530.51635067 0 -619.50435114 0 34069
0.17850000 0.17849800 7656.81890440 0 -9.41360905 0 2257.79059796 0 477.71559848 0 -164.97157253 0 34536
