### header ###
fiducial parameters:
Omega_m = 0.31
Omega_nu = 0
Omega_de = 0.69
Omega_k = 0
H_0 = 100
w_de = -1
zeff = 0
beta = 0
fgrowth = 0
b_1 = 2
gamma = 0.55
Lx = 3500 Ly = 3500 Lz = 3500
nx = 700 ny = 700 nz = 700
xoffset = 1379.75464 yoffset = 22.6059522 zoffset = 368.141391
bins = 400 dk = 0.001
kx_ny = 0.628318531 ky_ny = 0.628318531 kz_ny = 0.628318531
############################
A(data) = 3.3845369 (not used)
A(ran) = 3.38843354 (used)
Ngal = 190198
weighted Ngal = 0
Nran = 9399747
weighted Nran = 0
SN(data) = 6558.39946
SN(ran) = 134.776241
SN(data+ran) = 6693.1757
############################
13 columns: k_central k_mean P_0(k) sigma^{lin}_{P_0(k)} P^img_1(k) sigma^{lin}_{P_1(k)} P_2(k) sigma^{lin}_{P_2(k)} P^img_3(k) sigma^{lin}_{P_3(k)} P_4(k) sigma^{lin}_{P_4(k)} N_modes
### header ###
0.00050000 0 0 0 0 0 0 0 0 0 0 0 0
0.00150000 0.00179520 48912.95492545 0 -38807.87629789 0 -45290.34817822 0 63661.80680326 0 60493.93913090 0 3
0.00250000 0.00253879 54369.49108807 0 -28915.52682780 0 696.87875929 0 -57838.26293362 0 -33554.53086337 0 6
0.00350000 0.00331552 78296.30844053 0 -3367.96395649 0 -24553.91362791 0 -24739.02570498 0 -30888.42894095 0 7
0.00450000 0.00420575 87633.87623927 0 8222.07066567 0 -3999.01978926 0 -35167.41272358 0 20012.62303746 0 24
0.00550000 0.00557378 67777.74999074 0 6520.92506015 0 13021.28704115 0 5251.72611977 0 31732.80176462 0 45
0.00650000 0.00659388 67217.42272092 0 -8537.83704279 0 28713.33430744 0 41478.74743499 0 7041.50148011 0 40
0.00750000 0.00754703 79935.36552554 0 -17177.93492144 0 -15138.81836251 0 54215.54527442 0 -2311.97109505 0 57
0.00850000 0.00846663 89344.02789671 0 -7388.02374636 0 -12995.77728817 0 -2504.80264520 0 27285.12087641 0 75
0.00950000 0.00948925 94867.66580087 0 -1071.53606484 0 -41075.36060199 0 5224.97415273 0 37153.95700897 0 112
0.01050000 0.01054430 89596.13080335 0 -6266.81464687 0 -57773.49034344 0 14031.80599510 0 29519.44250163 0 105
0.01150000 0.01145670 97266.24805289 0 -8504.20853364 0 -50922.45798853 0 -6393.05465053 0 17009.57055176 0 144
0.01250000 0.01249090 100142.52815747 0 -1670.60044913 0 -67655.08135249 0 -11042.72841756 0 -5657.57519850 0 169
0.01350000 0.01339930 93453.09454209 0 4796.90940652 0 -57329.17699370 0 -27780.67555606 0 2878.75344150 0 180
0.01450000 0.01448870 83361.87991072 0 10601.86443006 0 -35124.37887942 0 -39338.25733596 0 -9722.57651840 0 267
0.01550000 0.01550050 79773.54496206 0 9961.76927179 0 -14010.39998499 0 -20484.88620352 0 -23763.22219748 0 238
0.01650000 0.01653350 70180.54689760 0 880.29610146 0 -4568.28656382 0 -6219.96543096 0 -33319.28657609 0 315
0.01750000 0.01747870 70471.35808159 0 1892.09165219 0 13970.47167598 0 -12630.32234873 0 -28310.28021034 0 297
0.01850000 0.01844180 68469.39703243 0 6176.22175019 0 19827.84369631 0 -19480.57831986 0 -26469.69607678 0 388
0.01950000 0.01947590 64048.66775281 0 3777.68386296 0 46363.64330690 0 -1100.93882795 0 -11613.70323645 0 399
0.02050000 0.02045430 66060.49996725 0 508.49921560 0 48378.91379239 0 7198.00936025 0 -3710.24938551 0 462
0.02150000 0.02154770 69461.94824733 0 -2421.04192584 0 51788.34773427 0 15685.61437205 0 5854.89868341 0 571
0.02250000 0.02255340 71630.05542677 0 76.73622068 0 49973.49517764 0 12424.02608549 0 21709.35434660 0 510
0.02350000 0.02348930 68845.94316882 0 4150.72518112 0 49916.37551335 0 -4632.42695577 0 18266.09225403 0 555
0.02450000 0.02439640 70153.37346508 0 3936.18815855 0 57971.69003291 0 6855.00300342 0 20595.68726103 0 592
0.02550000 0.02547300 63751.97823444 0 2570.44034874 0 61776.74696994 0 4400.62093956 0 35450.46006970 0 837
0.02650000 0.02652900 59472.88353985 0 4353.86045322 0 57553.33008402 0 2909.06568276 0 25635.74897824 0 723
0.02750000 0.02749970 57020.61989460 0 2135.04432134 0 57069.86480905 0 7815.28992640 0 22261.47413069 0 826
0.02850000 0.02848090 57331.50614506 0 -869.92472320 0 64001.53016578 0 8228.58119828 0 29640.89110822 0 831
0.02950000 0.02946900 54593.75509036 0 -1405.72048361 0 39740.75687321 0 17140.55758772 0 23823.22557297 0 996
0.03050000 0.03053250 60271.67154406 0 -2372.00774413 0 42245.70370396 0 12101.27225430 0 36267.43763690 0 1041
0.03150000 0.03150510 59074.82048138 0 -1629.07500775 0 24418.37920121 0 7505.35751888 0 15513.03534754 0 1036
0.03250000 0.03246190 64982.43562388 0 1285.92446537 0 33318.39928034 0 2375.63456554 0 36448.11323519 0 1059
0.03350000 0.03345080 55903.73636191 0 2754.77604201 0 21443.16561985 0 -2566.13696432 0 14771.03427170 0 1302
0.03450000 0.03451200 53827.46429321 0 4110.74141612 0 31605.91847153 0 2332.38998864 0 31942.86903482 0 1339
0.03550000 0.03553350 52687.17833496 0 741.39882384 0 30292.27710499 0 6410.67856248 0 23408.41480710 0 1365
0.03650000 0.03647120 50370.11638051 0 -98.21121803 0 26174.55932599 0 6575.62684350 0 19925.44622945 0 1308
0.03750000 0.03744890 50235.58016152 0 1063.06682685 0 23365.71369885 0 350.53838867 0 16365.50474498 0 1579
0.03850000 0.03847530 45893.70929220 0 2877.38922428 0 21653.45471398 0 -2687.68539167 0 13659.14177764 0 1662
0.03950000 0.03950240 43297.26008662 0 2179.94148658 0 23988.70623143 0 928.28660154 0 17171.05837933 0 1683
0.04050000 0.04050350 42006.57749776 0 -8.12544416 0 22481.41256617 0 1341.66882124 0 9889.55448846 0 1822
0.04150000 0.04152450 42464.86575566 0 6.59030050 0 20400.48219474 0 3903.67986029 0 7758.70263957 0 1887
0.04250000 0.04250150 42113.27481240 0 56.62377687 0 19188.43619224 0 2811.89570630 0 3595.96569216 0 1920
0.04350000 0.04349210 40736.63544719 0 -43.67558081 0 14531.13168171 0 -1908.66190043 0 2892.47325213 0 2005
0.04450000 0.04448520 41656.20658616 0 392.69159179 0 17912.39398335 0 338.27596132 0 108.09325269 0 2151
0.04550000 0.04548030 40630.82542830 0 1070.29385079 0 17325.22601691 0 -3204.90117896 0 -578.35046487 0 2274
0.04650000 0.04648670 39961.91534035 0 1621.11152835 0 20261.39858501 0 330.53985145 0 -2800.63814140 0 2311
0.04750000 0.04749250 39847.45418785 0 -62.01032758 0 20129.19151739 0 1086.35057661 0 1244.76503350 0 2568
0.04850000 0.04851840 39177.32406824 0 -1031.44471523 0 18302.02773214 0 4410.56974322 0 2658.58209088 0 2493
0.04950000 0.04949480 40547.53053922 0 -184.03068536 0 17420.61031066 0 4823.10681371 0 4846.49814807 0 2644
0.05050000 0.05050630 40511.81688505 0 577.19365302 0 17256.57150780 0 634.65825353 0 9904.69397229 0 2829
0.05150000 0.05149060 39796.32376992 0 765.27151615 0 16329.23653096 0 1840.15157688 0 7272.20946783 0 2784
0.05250000 0.05249300 39835.14295924 0 854.18742385 0 18564.44545193 0 -510.43352035 0 9287.23594699 0 3055
0.05350000 0.05348950 37779.94416473 0 363.71473064 0 18006.66915741 0 -1163.95457253 0 6422.70141997 0 3009
0.05450000 0.05448610 36930.69121441 0 217.78674328 0 17703.10309694 0 -269.94975164 0 5147.38013888 0 3336
0.05550000 0.05550870 37077.20592609 0 1090.19367635 0 18293.70933443 0 -401.56122199 0 6848.22628209 0 3349
0.05650000 0.05647670 36299.38028411 0 144.29979966 0 15957.68143319 0 4394.98661151 0 3584.63048888 0 3324
0.05750000 0.05747970 35952.66946751 0 -365.73000113 0 11922.92580737 0 3058.55283523 0 3245.82769570 0 3639
0.05850000 0.05849280 34551.51855704 0 1284.20532985 0 14501.85092177 0 1892.93458315 0 4715.03419064 0 3846
0.05950000 0.05951020 33253.40486622 0 2152.67932448 0 11916.93656102 0 -697.90247677 0 4766.23115576 0 3787
0.06050000 0.06049470 31063.66985273 0 552.67323481 0 14109.11163783 0 -294.48347929 0 7986.70437523 0 3930
0.06150000 0.06148310 30943.99583766 0 -601.94809549 0 11092.19515595 0 2723.27704268 0 4433.98325998 0 4083
0.06250000 0.06249100 31559.33544435 0 -653.48999683 0 11091.75150807 0 635.52114865 0 4856.48022532 0 4303
0.06350000 0.06350600 31803.45268918 0 -234.61319817 0 9283.87531431 0 884.11147321 0 3016.83884351 0 4470
0.06450000 0.06451750 33036.35014195 0 -208.66312467 0 10369.10457091 0 164.30610071 0 3838.77417575 0 4479
0.06550000 0.06550280 33336.92157924 0 -133.13429169 0 8771.15146179 0 -688.49936000 0 2276.31289687 0 4636
0.06650000 0.06648880 33258.83955273 0 547.71990625 0 10649.68967130 0 744.90696944 0 1577.12384125 0 4653
0.06750000 0.06749660 32398.05175758 0 349.12537018 0 10133.64955089 0 473.88248081 0 1222.37190686 0 5220
0.06850000 0.06852730 32416.46314451 0 346.50008386 0 10607.54312290 0 1324.33328041 0 4295.87567558 0 5029
0.06950000 0.06949320 31499.44298083 0 446.42289541 0 9260.90544543 0 740.03127926 0 1967.01268757 0 5040
0.07050000 0.07048030 31638.30476662 0 366.76370068 0 8090.16306037 0 864.60316690 0 4232.96640649 0 5475
0.07150000 0.07148790 29942.23892930 0 637.13602693 0 9358.59670815 0 -1303.16018543 0 -31.55611900 0 5509
0.07250000 0.07249820 29021.55867063 0 1574.96105784 0 9544.88445210 0 -1826.34303668 0 2153.48898186 0 5916
0.07350000 0.07351270 27167.22145285 0 666.23378212 0 9669.88224170 0 250.46140948 0 -693.75769647 0 5721
0.07450000 0.07449140 26236.33729299 0 388.71539768 0 8828.51513241 0 686.29110268 0 -8.96290717 0 6028
0.07550000 0.07549160 26003.53306905 0 661.88936028 0 9231.05903445 0 -36.67570460 0 -1943.29970850 0 6183
0.07650000 0.07648840 25161.15666083 0 611.22255438 0 9486.82203607 0 -687.87603473 0 -3974.81879752 0 6330
0.07750000 0.07749960 24216.63032872 0 797.64006533 0 9672.23357545 0 -267.41652226 0 -1292.75664269 0 6583
0.07850000 0.07848650 23234.17210305 0 -115.84644300 0 8689.19860754 0 799.07970269 0 -2001.49521888 0 6549
0.07950000 0.07947320 23410.30031058 0 -258.54911030 0 8486.44043613 0 2288.76831104 0 -347.61142179 0 6828
0.08050000 0.08048110 24472.72606625 0 -447.19151535 0 7544.17670820 0 1600.65936117 0 -1914.85078832 0 7147
0.08150000 0.08149960 24176.48019577 0 286.22497404 0 6060.39638046 0 -24.26398974 0 87.27052863 0 7386
0.08250000 0.08250610 23536.85086776 0 681.49637824 0 7301.47913658 0 -827.40329234 0 16.01790663 0 7227
0.08350000 0.08350160 23221.41722655 0 531.64987099 0 7918.08313971 0 -913.54085520 0 976.17949908 0 7798
0.08450000 0.08449610 21798.97121795 0 868.24218862 0 8612.54734543 0 120.51805516 0 723.10833095 0 7371
0.08550000 0.08548940 21486.86493582 0 645.36236771 0 9199.23839040 0 415.49287448 0 510.44017507 0 8256
0.08650000 0.08650700 20791.11415126 0 27.22578297 0 9516.31352876 0 782.71131423 0 2158.55765887 0 8037
0.08750000 0.08749060 20856.77403719 0 99.53373236 0 8918.44255726 0 1708.42143072 0 2430.02579537 0 8155
0.08850000 0.08849210 20869.30708975 0 34.40267469 0 8286.86543824 0 598.93350816 0 3446.43417490 0 8718
0.08950000 0.08949900 20206.60807209 0 315.77081359 0 7583.37299821 0 502.67744633 0 2814.66850554 0 8571
0.09050000 0.09049190 20274.59710938 0 151.84735918 0 7699.71965420 0 -245.36056801 0 3539.91078278 0 8932
0.09150000 0.09150830 20057.76420904 0 154.41164391 0 7571.36123192 0 -294.56222679 0 2635.61222200 0 9285
0.09250000 0.09250820 19553.33657184 0 231.50211742 0 7674.29863079 0 374.03065292 0 1586.54026746 0 9204
0.09350000 0.09350330 19308.99750307 0 339.53703042 0 6907.08726429 0 -280.10596069 0 1011.82216959 0 9349
0.09450000 0.09448040 18769.63259548 0 497.94039611 0 7450.98847144 0 -360.38071684 0 -423.31882304 0 9564
0.09550000 0.09549270 18348.27802341 0 387.30903391 0 8148.18111160 0 -205.08399541 0 135.81392487 0 10155
0.09650000 0.09649430 17797.04553509 0 299.43237137 0 7664.86002219 0 51.40681056 0 -956.23309049 0 9913
0.09750000 0.09749140 17443.01452850 0 362.57011912 0 7769.20600308 0 160.95766835 0 -394.50722073 0 10476
0.09850000 0.09850240 16903.98235682 0 205.96241821 0 7010.44612865 0 757.87368779 0 -519.75123491 0 10575
0.09950000 0.09950330 17117.82063398 0 -16.77310623 0 7279.55184021 0 1105.29101364 0 1237.12319880 0 10882
0.10050000 0.10051200 16573.02103988 0 -132.04735439 0 6105.73719359 0 1636.27319457 0 1158.68625398 0 10875
0.10150000 0.10150300 17171.16929130 0 39.48177742 0 5717.20147329 0 475.05038385 0 2942.55000635 0 11118
0.10250000 0.10250800 16586.77412410 0 147.59388515 0 5331.64928498 0 726.27708592 0 2720.64842901 0 11575
0.10350000 0.10349800 16393.89820917 0 536.65089170 0 5399.52741030 0 -593.82601197 0 3415.98883928 0 11364
0.10450000 0.10450100 15834.34732313 0 395.88363827 0 5941.72057312 0 -370.79756901 0 3121.37337474 0 12093
0.10550000 0.10551000 15489.52201001 0 281.22728070 0 6595.60208920 0 -257.75608972 0 2776.94734471 0 12067
0.10650000 0.10649700 15467.00688020 0 -267.15255177 0 6352.00613063 0 651.54016441 0 3208.78309789 0 12054
0.10750000 0.10749900 15552.85274458 0 -215.65945170 0 5575.75543861 0 194.17802145 0 1340.10496247 0 12807
0.10850000 0.10850100 15652.34078121 0 264.57939408 0 5690.30532069 0 -603.28902120 0 844.69668662 0 12736
0.10950000 0.10950300 15470.55606323 0 495.63564538 0 6383.06148208 0 -1122.70641108 0 209.17775620 0 12933
0.11050000 0.11050200 14840.46516460 0 107.84957909 0 6202.94044364 0 -397.22567310 0 -571.69463758 0 13428
0.11150000 0.11150900 15214.12758979 0 -209.35299712 0 6177.80779136 0 544.04872006 0 -651.22184705 0 13453
0.11250000 0.11250000 15361.19686132 0 -100.47104941 0 6015.47703282 0 769.15232597 0 -1748.32755734 0 13668
0.11350000 0.11349100 15247.17935669 0 303.53167776 0 5909.48955479 0 30.83829673 0 -657.65917776 0 13791
0.11450000 0.11448600 14818.39368267 0 274.12891465 0 5459.05386432 0 -114.07074237 0 -893.03323204 0 14205
0.11550000 0.11549300 14464.25176412 0 365.53590518 0 6463.11774165 0 53.52545100 0 246.81240569 0 14776
0.11650000 0.11649800 14194.18111843 0 167.41496322 0 6665.86482187 0 345.16026727 0 960.04624400 0 14553
0.11750000 0.11747300 13971.13714780 0 61.48704491 0 6203.51718588 0 1102.44612162 0 905.33004210 0 14568
0.11850000 0.11849100 13882.74030812 0 39.68419177 0 5893.46277520 0 245.51029917 0 1685.77320655 0 16015
0.11950000 0.11950300 14146.26714761 0 -43.39974275 0 5285.11062259 0 285.86340102 0 876.90774080 0 15270
0.12050000 0.12050700 13990.21400655 0 202.01727945 0 6031.51490361 0 -151.11312194 0 1849.69000625 0 15999
0.12150000 0.12150000 13682.54420321 0 272.21790142 0 5427.41067943 0 -528.27481976 0 1145.41009124 0 15670
0.12250000 0.12250700 13442.75252518 0 -11.74247203 0 6120.33320877 0 272.40977913 0 1992.34498140 0 16887
0.12350000 0.12352200 13638.17941541 0 -167.13213769 0 5170.07272784 0 783.48769802 0 727.85425413 0 16407
0.12450000 0.12449800 13924.33229668 0 -140.62861347 0 5064.91708957 0 308.05023140 0 648.58436042 0 16306
0.12550000 0.12549900 13661.47092900 0 167.60795004 0 4889.69836018 0 -341.24507475 0 115.27524636 0 17523
0.12650000 0.12650100 13729.79270220 0 206.37722897 0 5394.01508542 0 -496.80465754 0 456.44490097 0 17154
0.12750000 0.12750600 13674.11489352 0 -15.50560425 0 4876.11164392 0 160.19459400 0 -252.85156243 0 18007
0.12850000 0.12850300 13698.07187893 0 -52.46435619 0 4506.77478555 0 650.29905947 0 -467.43849538 0 17496
0.12950000 0.12949900 13307.66174636 0 195.62985913 0 4514.02842835 0 413.69942793 0 -141.71111429 0 18405
0.13050000 0.13049000 13235.01440634 0 305.40165357 0 4267.24929625 0 219.93067165 0 263.08208249 0 18100
0.13150000 0.13148800 12763.30580014 0 329.91874442 0 4619.03988106 0 296.55420576 0 725.73361727 0 19059
0.13250000 0.13249300 12396.51991706 0 219.24190831 0 4202.45452368 0 175.01908784 0 1186.94662381 0 18957
0.13350000 0.13349100 12208.30230485 0 -48.00558410 0 4112.36073087 0 682.00546418 0 1768.56899177 0 19468
0.13450000 0.13450700 12195.88016427 0 -56.54192383 0 3953.49042578 0 340.12153649 0 1665.95323761 0 19953
0.13550000 0.13551000 12275.40404638 0 -5.72801539 0 3514.00174671 0 174.34474307 0 1599.20641437 0 19956
0.13650000 0.13649900 12185.67626307 0 17.97406104 0 3457.68064861 0 -82.68254410 0 1173.72591705 0 19723
0.13750000 0.13749600 12360.80626289 0 -16.37415588 0 3106.18952612 0 -48.91827870 0 817.90368215 0 20946
0.13850000 0.13851100 12240.46677600 0 36.43768751 0 2920.28997407 0 -28.03654947 0 661.09523058 0 20955
0.13950000 0.13949800 12216.95343847 0 178.50172368 0 3251.70603008 0 -262.72272771 0 14.36731470 0 20506
0.14050000 0.14048300 12008.66075978 0 290.57272325 0 3407.16024651 0 -194.73923602 0 405.42872237 0 21447
0.14150000 0.14148400 11695.55626993 0 170.80332388 0 3481.88164035 0 214.72668204 0 -181.99212336 0 21771
0.14250000 0.14249400 11497.91114031 0 230.68580533 0 3796.82726889 0 -393.60661554 0 260.10964171 0 22470
0.14350000 0.14350900 11180.14834775 0 199.43524880 0 3634.04177128 0 248.55039625 0 -273.48451611 0 22519
0.14450000 0.14449900 11164.62067202 0 91.61761236 0 4018.18537758 0 39.37031090 0 495.16426951 0 22218
0.14550000 0.14550500 10839.61532785 0 152.81783891 0 3535.06392972 0 143.48681492 0 76.70949089 0 23559
0.14650000 0.14650700 10764.39483014 0 163.10270584 0 3826.70695347 0 -35.94967484 0 234.50450444 0 23044
0.14750000 0.14750500 10610.77066121 0 81.69653669 0 3684.58435578 0 157.88651592 0 405.82800546 0 23649
0.14850000 0.14849900 10502.58712618 0 -4.07920914 0 3610.59498093 0 132.21372234 0 116.99549101 0 23640
0.14950000 0.14949500 10399.56099773 0 130.19623362 0 3434.44459100 0 287.82210640 0 137.85803247 0 24457
0.15050000 0.15050000 10167.44442800 0 136.69234767 0 3541.50791514 0 -38.66502168 0 -68.94986768 0 24591
0.15150000 0.15149900 10071.52775679 0 174.57765820 0 3242.79979893 0 -164.45139539 0 52.04189250 0 25020
0.15250000 0.15250500 9919.51181142 0 158.77048431 0 3435.40952514 0 -13.80865111 0 -183.18886352 0 25297
0.15350000 0.15350100 9698.12042913 0 101.22258892 0 3238.66278247 0 115.79764174 0 28.49672323 0 25452
0.15450000 0.15450400 9731.56038793 0 26.88472867 0 3109.90507710 0 364.64417295 0 90.88148962 0 26061
0.15550000 0.15549900 9556.28620256 0 48.67793246 0 2897.23137562 0 -6.28031263 0 -229.36928025 0 26128
0.15650000 0.15649500 9567.85432098 0 105.81001889 0 2911.10646300 0 133.06996275 0 28.09688558 0 26331
0.15750000 0.15749700 9404.38116916 0 100.76818258 0 2803.17802550 0 92.24237948 0 -205.28141872 0 27345
0.15850000 0.15849900 9277.81952078 0 127.74286085 0 3046.76289287 0 -193.40274678 0 311.90664058 0 26980
0.15950000 0.15949700 9134.33270586 0 162.56589191 0 2854.34171702 0 101.30821296 0 -42.17239089 0 27777
0.16050000 0.16050000 9161.88323908 0 -53.31937656 0 2871.08942441 0 397.56617285 0 252.26372899 0 28224
0.16150000 0.16150500 9007.92633424 0 -62.02175151 0 2581.55372808 0 478.99441348 0 472.35300475 0 28075
0.16250000 0.16249700 9169.53616497 0 3.94563786 0 1930.91084150 0 481.47995072 0 616.63727673 0 28590
0.16350000 0.16349900 9150.49257981 0 -11.93789892 0 2026.25077047 0 80.11925757 0 776.31945743 0 29163
0.16450000 0.16449100 8986.38722977 0 229.96155017 0 1923.41319237 0 -159.97055182 0 223.52532858 0 28996
0.16550000 0.16550500 8731.87753340 0 254.17696046 0 2206.67127123 0 -611.60630979 0 508.57574486 0 30777
0.16650000 0.16650700 8469.95891746 0 216.92273903 0 2407.92103985 0 -253.67120188 0 -135.69192170 0 29211
0.16750000 0.16749900 8380.19786056 0 40.08979684 0 2556.55417016 0 31.10448546 0 -13.23800903 0 30922
0.16850000 0.16850800 8334.06957245 0 -93.87322908 0 2575.90830883 0 79.70012124 0 -431.10595242 0 30867
0.16950000 0.16949900 8536.63919352 0 21.18751353 0 2419.21187835 0 163.87687139 0 -429.01304356 0 30852
0.17050000 0.17049200 8374.05333745 0 47.61240117 0 2380.00449713 0 -64.96457880 0 -1030.47867198 0 31257
0.17150000 0.17149500 8476.01471100 0 75.27329180 0 2449.33556926 0 -106.67524316 0 -349.22519095 0 32608
0.17250000 0.17250900 8359.66805501 0 25.11834464 0 2370.67680050 0 93.69177710 0 -474.39378499 0 32361
0.17350000 0.17350400 8355.04302588 0 146.89624886 0 2474.62349830 0 -64.58171068 0 -453.47135107 0 32508
0.17450000 0.17449800 8191.69187723 0 103.35220964 0 2763.87082351 0 23.10850884 0 -281.26277253 0 32791
0.17550000 0.17549800 8039.89775580 0 140.84489181 0 2859.47694121 0 28.04941526 0 -335.74827754 0 33633
0.17650000 0.17650100 8013.13469756 0 110.10552855 0 2699.85243473 0 90.53544427 0 198.10208693 0 33984
0.17750000 0.17750300 7812.33966801 0 45.23023389 0 3020.66530645 0 216.09089926 0 77.58580636 0 34069
0.17850000 0.17849800 7854.12020691 0 9.02561679 0 2828.90960242 0 136.56147154 0 563.34185715 0 34536
