### header ###
fiducial parameters:
Omega_m = 0.31
Omega_nu = 0
Omega_de = 0.69
Omega_k = 0
H_0 = 100
w_de = -1
zeff = 0
beta = 0
fgrowth = 0
b_1 = 2
gamma = 0.55
Lx = 3500 Ly = 3500 Lz = 3500
nx = 700 ny = 700 nz = 700
xoffset = 1379.75464 yoffset = 22.6059522 zoffset = 368.141391
bins = 400 dk = 0.001
kx_ny = 0.628318531 ky_ny = 0.628318531 kz_ny = 0.628318531
############################
A(data) = 3.33709694 (not used)
A(ran) = 3.33965687 (used)
Ngal = 187636
weighted Ngal = 0
Nran = 9399747
weighted Nran = 0
SN(data) = 6628.13995
SN(ran) = 132.836131
SN(data+ran) = 6760.97608
############################
13 columns: k_central k_mean P_0(k) sigma^{lin}_{P_0(k)} P^img_1(k) sigma^{lin}_{P_1(k)} P_2(k) sigma^{lin}_{P_2(k)} P^img_3(k) sigma^{lin}_{P_3(k)} P_4(k) sigma^{lin}_{P_4(k)} N_modes
### header ###
0.00050000 0 0 0 0 0 0 0 0 0 0 0 0
0.00150000 0.00179520 25649.94571034 0 -30511.10642077 0 -47091.66947458 0 60752.80766768 0 54558.37417209 0 3
0.00250000 0.00253879 45918.88630928 0 -30159.51547752 0 -20488.32447457 0 -46044.54957070 0 -25629.53790795 0 6
0.00350000 0.00331552 69717.04577714 0 -18903.72516658 0 -48248.59222825 0 -27970.11319994 0 4760.64119249 0 7
0.00450000 0.00420575 81263.20362418 0 -1735.30649213 0 -29318.58092490 0 -51345.91988801 0 -18348.38893538 0 24
0.00550000 0.00557378 65463.46083552 0 12241.46498372 0 -1251.74139638 0 -39994.30163544 0 7627.11667898 0 45
0.00650000 0.00659388 58639.71282510 0 3887.56435112 0 27854.87566364 0 -2905.98233001 0 -49129.45508988 0 40
0.00750000 0.00754703 57433.87789289 0 -3968.68536560 0 17831.65006957 0 7960.59569762 0 7988.95588821 0 57
0.00850000 0.00846663 63860.33922863 0 -2887.71512864 0 9763.42539676 0 13361.89769943 0 -28086.01620805 0 75
0.00950000 0.00948925 63448.52308594 0 101.70039768 0 3924.75313449 0 421.25807865 0 10422.95233209 0 112
0.01050000 0.01054430 71312.40354617 0 -403.29699431 0 11392.43385734 0 -1845.50862500 0 -1174.72412477 0 105
0.01150000 0.01145670 62220.17302393 0 4012.08521926 0 9296.63019080 0 397.75028672 0 -7031.47503807 0 144
0.01250000 0.01249090 58678.97566230 0 7699.53110385 0 19786.47353169 0 -6021.64373833 0 7760.02249201 0 169
0.01350000 0.01339930 51336.04872273 0 2116.93239672 0 27503.72836826 0 2953.38610577 0 6793.64650191 0 180
0.01450000 0.01448870 51840.58727190 0 -3919.28517440 0 13316.64561588 0 20975.33893257 0 22934.82069741 0 267
0.01550000 0.01550050 57492.66123672 0 -6293.67752588 0 -313.73003336 0 22933.82248969 0 14225.12555791 0 238
0.01650000 0.01653350 71767.14262105 0 -13829.72438671 0 -24219.07039205 0 27076.82819773 0 26508.62617807 0 315
0.01750000 0.01747870 78881.03634364 0 -11946.32823293 0 -27521.14154747 0 10890.08027396 0 24622.78996096 0 297
0.01850000 0.01844180 90949.14591906 0 1172.15096708 0 -43104.93873154 0 -22771.22554243 0 8296.08222291 0 388
0.01950000 0.01947590 87121.57385223 0 2314.45552317 0 -20946.83455641 0 -29742.93012014 0 -20225.46310690 0 399
0.02050000 0.02045430 82965.92417967 0 7744.26190114 0 -11197.78335090 0 -30785.50263327 0 -26373.75722318 0 462
0.02150000 0.02154770 74558.46415701 0 6507.80417416 0 13849.35580531 0 -15838.22924206 0 -31440.54872504 0 571
0.02250000 0.02255340 71967.11690202 0 2888.48042123 0 23912.95335628 0 -5228.60097413 0 -38272.39330923 0 510
0.02350000 0.02348930 66635.46761704 0 1579.02043593 0 21189.95359352 0 6290.68290270 0 -31514.63792065 0 555
0.02450000 0.02439640 66806.71569792 0 2159.74441694 0 25359.46726226 0 6030.59433426 0 -28439.38174282 0 592
0.02550000 0.02547300 64285.68663159 0 263.23735925 0 21344.45396701 0 6052.23325951 0 -2779.85323831 0 837
0.02650000 0.02652900 65040.66440786 0 411.94036409 0 22161.54244618 0 11702.32190007 0 212.52175208 0 723
0.02750000 0.02749970 61721.18007322 0 2643.85298134 0 18433.45841598 0 -2229.40822497 0 7321.62075023 0 826
0.02850000 0.02848090 61255.57162534 0 2721.79082229 0 20642.38120018 0 -240.13328689 0 2263.89075628 0 831
0.02950000 0.02946900 55997.45697613 0 2589.69466664 0 28740.61865193 0 -151.10203074 0 14760.27581066 0 996
0.03050000 0.03053250 54582.33115750 0 2592.77801939 0 28125.50086918 0 -3136.41303781 0 7128.00172511 0 1041
0.03150000 0.03150510 52300.31738540 0 1126.90997473 0 32013.29813544 0 -1209.76121593 0 -31.52672733 0 1036
0.03250000 0.03246190 52486.31675823 0 303.94316117 0 33262.27782378 0 -1836.80203540 0 2591.18088703 0 1059
0.03350000 0.03345080 52687.06742299 0 12.28815892 0 37523.84842720 0 1098.79933606 0 -5367.78440464 0 1302
0.03450000 0.03451200 53633.59017055 0 932.61327747 0 33544.32696217 0 364.43898580 0 -3537.81454656 0 1339
0.03550000 0.03553350 53313.38731466 0 -1072.31133951 0 31857.91046620 0 1117.19408620 0 -10230.88607454 0 1365
0.03650000 0.03647120 54928.93106213 0 326.82762783 0 31911.37003549 0 9374.47930218 0 213.27706260 0 1308
0.03750000 0.03744890 53241.62727040 0 -645.44000609 0 24156.73786520 0 5477.32106570 0 1713.56774611 0 1579
0.03850000 0.03847530 54337.65935282 0 511.11784720 0 27010.83557588 0 5151.56152013 0 6073.97200553 0 1662
0.03950000 0.03950240 52704.59151417 0 2209.85444475 0 23821.56189342 0 255.85727680 0 5677.30643787 0 1683
0.04050000 0.04050350 48936.24643904 0 2007.41791805 0 25579.96025759 0 1468.60757031 0 9935.47204382 0 1822
0.04150000 0.04152450 48720.30083446 0 589.79103452 0 21061.18479695 0 5083.60575643 0 14509.39293570 0 1887
0.04250000 0.04250150 46064.73554914 0 -145.94906064 0 21875.16774098 0 3433.41310969 0 10631.17846360 0 1920
0.04350000 0.04349210 47168.42055746 0 26.43032233 0 16522.44518180 0 1550.42733020 0 10539.80918314 0 2005
0.04450000 0.04448520 45390.94533454 0 2195.19188239 0 21928.07275042 0 -1291.31478709 0 12130.33119030 0 2151
0.04550000 0.04548030 44127.87982608 0 2183.43521362 0 22476.75426345 0 -3159.40508908 0 10455.34971838 0 2274
0.04650000 0.04648670 40527.56638471 0 923.34658242 0 21493.40874202 0 459.07573288 0 6198.01595220 0 2311
0.04750000 0.04749250 40407.11598586 0 897.48523849 0 22867.71895588 0 3605.85903984 0 7632.26299436 0 2568
0.04850000 0.04851840 39452.16392861 0 -285.68705099 0 19530.59961809 0 4720.13614124 0 5410.24150656 0 2493
0.04950000 0.04949480 39273.70656972 0 63.35391518 0 18865.34962514 0 4391.95871474 0 11215.08561813 0 2644
0.05050000 0.05050630 37873.99751485 0 564.01620193 0 11975.49808090 0 4307.47706758 0 9226.21218138 0 2829
0.05150000 0.05149060 38878.41631048 0 -608.10149156 0 11381.34266039 0 2298.75038829 0 14116.65365176 0 2784
0.05250000 0.05249300 36943.55700287 0 222.41731800 0 7540.48333961 0 2612.54253235 0 12133.21490151 0 3055
0.05350000 0.05348950 38257.97475320 0 157.71682060 0 8646.87459999 0 1556.23911740 0 11952.87203913 0 3009
0.05450000 0.05448610 36349.06884644 0 -265.78389807 0 5606.68878690 0 1384.02610238 0 11870.79718171 0 3336
0.05550000 0.05550870 37470.94341775 0 176.80033407 0 6898.65795461 0 -776.81856130 0 10508.27691021 0 3349
0.05650000 0.05647670 37514.64273373 0 545.55823197 0 7210.57568639 0 -2076.71571659 0 8412.63961164 0 3324
0.05750000 0.05747970 36918.82363367 0 774.52046529 0 7778.14550782 0 -2556.65399093 0 6610.03173643 0 3639
0.05850000 0.05849280 36180.48265283 0 948.63007498 0 11987.80930952 0 -1480.89661653 0 3487.68233635 0 3846
0.05950000 0.05951020 35681.37879016 0 791.19829814 0 12547.80384343 0 -1087.04932201 0 2356.44679482 0 3787
0.06050000 0.06049470 34264.47838002 0 683.02141782 0 14228.56382897 0 -1991.73496557 0 1459.22441769 0 3930
0.06150000 0.06148310 32794.56204847 0 1640.28820787 0 15456.80297901 0 -934.08175194 0 -838.39577763 0 4083
0.06250000 0.06249100 31606.14029547 0 1065.23959234 0 17375.58005105 0 -764.45076758 0 -1751.98765234 0 4303
0.06350000 0.06350600 31256.43485569 0 -27.24674533 0 15259.93423318 0 2261.80561126 0 -23.13279856 0 4470
0.06450000 0.06451750 30492.14047399 0 -7.52460075 0 15633.81848231 0 1633.71112808 0 -1162.75672326 0 4479
0.06550000 0.06550280 31372.11603986 0 469.58020551 0 14027.03678042 0 1013.85407687 0 484.24165876 0 4636
0.06650000 0.06648880 29704.55457870 0 330.49992314 0 11653.63154547 0 1776.78756871 0 612.37825710 0 4653
0.06750000 0.06749660 29602.07191890 0 -434.99119871 0 10177.10486054 0 2556.44325819 0 1229.03771623 0 5220
0.06850000 0.06852730 29701.89269143 0 -374.63734140 0 10468.86988746 0 1344.13106696 0 1542.24202685 0 5029
0.06950000 0.06949320 30695.66393799 0 212.95763612 0 8357.29453886 0 -774.61252222 0 233.02382964 0 5040
0.07050000 0.07048030 29572.45842305 0 558.10570308 0 8181.98707990 0 -1370.37283894 0 153.45558274 0 5475
0.07150000 0.07148790 28674.95876600 0 1148.99254785 0 10105.59991381 0 -2035.84465583 0 -3363.25019779 0 5509
0.07250000 0.07249820 28325.69697410 0 398.14735157 0 11059.79776966 0 -415.90103052 0 -1121.87457131 0 5916
0.07350000 0.07351270 27805.07618935 0 80.32943575 0 11538.83765705 0 1342.73357614 0 -3675.76685420 0 5721
0.07450000 0.07449140 27665.43801977 0 285.65821388 0 11156.52409825 0 117.18736872 0 -3156.14427718 0 6028
0.07550000 0.07549160 27388.04718409 0 53.53443487 0 9526.10705566 0 1237.74430583 0 -2567.29044880 0 6183
0.07650000 0.07648840 27339.46774146 0 -22.14302015 0 10452.97620223 0 737.94613423 0 -2603.59193641 0 6330
0.07750000 0.07749960 26962.03430931 0 432.87721657 0 8888.13031600 0 217.03476012 0 -640.20717936 0 6583
0.07850000 0.07848650 26399.15606419 0 820.19734168 0 8904.23473397 0 424.48561696 0 -3969.10683109 0 6549
0.07950000 0.07947320 25212.73072664 0 682.67204512 0 9099.15142914 0 -7.49931282 0 -540.00708790 0 6828
0.08050000 0.08048110 24095.07081017 0 469.96063357 0 8460.32066732 0 897.79579201 0 -1883.91744003 0 7147
0.08150000 0.08149960 23974.06585146 0 8.24524018 0 8600.12520485 0 1736.53761499 0 845.12037034 0 7386
0.08250000 0.08250610 23823.11466100 0 -136.47052373 0 5181.24156317 0 2178.84345808 0 129.16364318 0 7227
0.08350000 0.08350160 23717.19373014 0 -443.49814677 0 5144.45206289 0 1545.21446763 0 1950.61989848 0 7798
0.08450000 0.08449610 23941.34682046 0 409.58792122 0 3522.97452504 0 1183.65253831 0 3096.97274146 0 7371
0.08550000 0.08548940 23198.45844887 0 548.62383880 0 3430.08575060 0 227.57694282 0 1882.83050273 0 8256
0.08650000 0.08650700 22829.89797428 0 415.83004686 0 3457.02626799 0 -35.44657815 0 5030.09073115 0 8037
0.08750000 0.08749060 21800.74580946 0 158.41334777 0 3511.82787211 0 587.25115042 0 3540.95335530 0 8155
0.08850000 0.08849210 21840.11955862 0 181.67158777 0 3657.04491375 0 362.34718606 0 6020.90062813 0 8718
0.08950000 0.08949900 21808.73147126 0 300.20210044 0 4049.71765051 0 -82.05478235 0 3503.09910011 0 8571
0.09050000 0.09049190 21506.38544245 0 397.95769210 0 3748.39201182 0 -913.06615197 0 4078.72113053 0 8932
0.09150000 0.09150830 20621.52974992 0 508.24855455 0 4928.88355900 0 -996.19578221 0 2326.73347819 0 9285
0.09250000 0.09250820 20339.92425941 0 647.56840678 0 5431.12623041 0 -1869.53215759 0 2951.95534136 0 9204
0.09350000 0.09350330 19775.93689459 0 350.62933648 0 6705.70440130 0 269.86102207 0 1307.44138745 0 9349
0.09450000 0.09448040 19309.44115095 0 355.50946314 0 7237.09473829 0 -708.31932894 0 619.13057780 0 9564
0.09550000 0.09549270 18604.59558489 0 600.36759993 0 7206.29448437 0 -232.76318651 0 285.44969938 0 10155
0.09650000 0.09649430 18071.33083562 0 396.01007792 0 8325.69571876 0 219.74988514 0 453.35600262 0 9913
0.09750000 0.09749140 17695.22834710 0 280.88567183 0 8002.19877737 0 571.39850262 0 989.33698602 0 10476
0.09850000 0.09850240 17350.07029807 0 213.35248274 0 7461.33655819 0 366.71157206 0 1157.64368147 0 10575
0.09950000 0.09950330 17113.16233126 0 -89.76072417 0 7316.28588450 0 790.45518794 0 1660.23017998 0 10882
0.10050000 0.10051200 17073.23402225 0 67.22917939 0 6631.83702963 0 1230.04701515 0 2147.75483304 0 10875
0.10150000 0.10150300 17054.26807546 0 110.05461996 0 6544.09457057 0 109.56106169 0 2333.73202347 0 11118
0.10250000 0.10250800 16939.03053917 0 210.89800085 0 5976.60238752 0 318.40940935 0 2343.13735848 0 11575
0.10350000 0.10349800 16838.76611876 0 -186.33543609 0 5804.01227181 0 620.87855044 0 2918.08282588 0 11364
0.10450000 0.10450100 17011.89970312 0 -234.83169475 0 5455.98160277 0 429.29254172 0 2625.04231131 0 12093
0.10550000 0.10551000 17211.31942425 0 146.68329788 0 5374.13966049 0 167.70666169 0 2197.03302108 0 12067
0.10650000 0.10649700 17145.88136226 0 208.19729439 0 5287.15140282 0 -319.82353696 0 2197.07738587 0 12054
0.10750000 0.10749900 16465.32551751 0 405.45866860 0 5565.04134236 0 -406.54671502 0 1815.01892459 0 12807
0.10850000 0.10850100 16177.95260459 0 475.40419303 0 6008.54503473 0 -409.28402242 0 1580.52883871 0 12736
0.10950000 0.10950300 15510.70619618 0 400.85693098 0 6170.16595666 0 -520.31910419 0 346.40802692 0 12933
0.11050000 0.11050200 15615.73983128 0 93.94498913 0 6727.21023219 0 340.92453915 0 452.57629147 0 13428
0.11150000 0.11150900 14779.90722926 0 221.66755309 0 6180.08148673 0 -390.90036348 0 -726.79837218 0 13453
0.11250000 0.11250000 15028.68277681 0 215.03058083 0 6472.06833759 0 113.95539392 0 -448.63115272 0 13668
0.11350000 0.11349100 14726.66948391 0 1.25595605 0 5951.52519122 0 117.61437980 0 -579.58047861 0 13791
0.11450000 0.11448600 14759.49942688 0 -96.18995830 0 5730.53309203 0 719.33954223 0 -31.74200746 0 14205
0.11550000 0.11549300 14903.01951539 0 -117.37259170 0 5728.73631812 0 778.55100626 0 -506.19335576 0 14776
0.11650000 0.11649800 15051.75246646 0 46.00828136 0 5009.87147912 0 442.48552049 0 -143.47683284 0 14553
0.11750000 0.11747300 14693.50680504 0 148.35917774 0 5225.34016223 0 121.99872995 0 845.04162284 0 14568
0.11850000 0.11849100 14112.88264480 0 585.73054731 0 5149.75365503 0 -279.85751788 0 1038.41553252 0 16015
0.11950000 0.11950300 13883.07304403 0 424.12958954 0 5676.72969563 0 -89.52902906 0 1365.62580664 0 15270
0.12050000 0.12050700 13150.49948560 0 228.24796024 0 5879.24386071 0 789.07766128 0 1816.29441224 0 15999
0.12150000 0.12150000 13055.78066366 0 125.81631994 0 5700.66449864 0 387.06059110 0 1903.28266991 0 15670
0.12250000 0.12250700 12702.19330495 0 151.86843245 0 5567.66995604 0 -11.47439780 0 2435.32738751 0 16887
0.12350000 0.12352200 12636.97706690 0 196.93529301 0 5449.57089093 0 185.98051779 0 1988.40760648 0 16407
0.12450000 0.12449800 12532.38707967 0 -149.92969123 0 5018.70007189 0 -89.11055820 0 1769.47846992 0 16306
0.12550000 0.12549900 12621.56030314 0 -46.67064764 0 5131.38663288 0 261.65908192 0 728.68498478 0 17523
0.12650000 0.12650100 12932.00290572 0 -47.71787845 0 4372.67112325 0 -188.60913146 0 746.18689356 0 17154
0.12750000 0.12750600 12655.38845383 0 98.28830185 0 4363.03287310 0 51.45771915 0 -209.59145785 0 18007
0.12850000 0.12850300 12792.36473614 0 75.88962961 0 4909.19668442 0 -75.87510015 0 544.54227833 0 17496
0.12950000 0.12949900 12763.74944801 0 -129.66718352 0 4191.97334257 0 701.45609627 0 -53.43561231 0 18405
0.13050000 0.13049000 12951.41250038 0 -82.46360387 0 3901.83872160 0 637.02622408 0 1031.02546799 0 18100
0.13150000 0.13148800 12989.23348197 0 22.60962680 0 3318.39739733 0 454.37639274 0 1036.32262365 0 19059
0.13250000 0.13249300 13010.41766814 0 198.00004792 0 4069.36016030 0 -222.51159318 0 1232.01015701 0 18957
0.13350000 0.13349100 12609.58181043 0 217.72463257 0 3927.48156894 0 -318.69556223 0 1168.95670236 0 19468
0.13450000 0.13450700 12636.86615493 0 97.03643845 0 3913.69521113 0 116.37882046 0 1192.40349271 0 19953
0.13550000 0.13551000 12451.31042998 0 -83.64914191 0 3735.16021386 0 165.46291255 0 1414.79308272 0 19956
0.13650000 0.13649900 12458.85244391 0 125.91835895 0 3734.83856915 0 151.73422897 0 517.54519584 0 19723
0.13750000 0.13749600 12428.57347624 0 86.70587579 0 3498.68480373 0 328.76304170 0 1055.17987670 0 20946
0.13850000 0.13851100 12068.22048739 0 173.37426334 0 3262.04302564 0 154.47486374 0 1379.14597572 0 20955
0.13950000 0.13949800 11906.73265983 0 126.38862570 0 2660.63396232 0 468.88035099 0 925.32414283 0 20506
0.14050000 0.14048300 11834.86170360 0 216.46134524 0 3235.05814346 0 -70.00852243 0 1360.61258562 0 21447
0.14150000 0.14148400 11223.29310388 0 352.56253211 0 2716.12322065 0 -203.02436014 0 602.31854147 0 21771
0.14250000 0.14249400 10980.57334986 0 388.43146304 0 3981.76188681 0 -539.13199246 0 1000.45369272 0 22470
0.14350000 0.14350900 10587.19077650 0 142.56624557 0 3435.11006282 0 -225.13355213 0 144.51829624 0 22519
0.14450000 0.14449900 10468.01586529 0 79.23207273 0 3893.50923269 0 124.63288923 0 404.04010451 0 22218
0.14550000 0.14550500 10355.11857156 0 65.73197871 0 3809.51559820 0 280.44756955 0 828.53237619 0 23559
0.14650000 0.14650700 10348.37512381 0 -40.25594297 0 3238.36332015 0 498.02690745 0 257.06067167 0 23044
0.14750000 0.14750500 10562.71250484 0 -89.57694303 0 3349.64129914 0 257.77494475 0 1052.52575327 0 23649
0.14850000 0.14849900 10391.16496164 0 -14.79687676 0 2602.24990158 0 499.60407565 0 513.25622998 0 23640
0.14950000 0.14949500 10485.36249732 0 72.22731638 0 2736.00973678 0 -248.88645952 0 881.40411204 0 24457
0.15050000 0.15050000 10189.71555147 0 216.05984391 0 2729.27738023 0 -396.90181015 0 26.38240836 0 24591
0.15150000 0.15149900 10236.60913217 0 212.30103726 0 3095.56415945 0 -386.45722999 0 112.88731166 0 25020
0.15250000 0.15250500 9783.53373683 0 176.84137150 0 3193.53270209 0 -153.74839034 0 -300.73447789 0 25297
0.15350000 0.15350100 9647.24510873 0 82.96481506 0 2971.47584799 0 344.61347126 0 -456.97395106 0 25452
0.15450000 0.15450400 9693.50649120 0 -73.99503135 0 2822.22161066 0 574.91330293 0 -134.65156743 0 26061
0.15550000 0.15549900 9630.61940451 0 -49.34939353 0 2343.07081130 0 337.10473092 0 -575.75734302 0 26128
0.15650000 0.15649500 9745.92348798 0 78.37949242 0 2179.42020033 0 34.92784287 0 194.22016800 0 26331
0.15750000 0.15749700 9590.03671487 0 43.43956014 0 2003.19217202 0 143.75189453 0 -239.45672387 0 27345
0.15850000 0.15849900 9495.77263201 0 95.68131601 0 1845.13152431 0 215.81140110 0 141.81093506 0 26980
0.15950000 0.15949700 9367.33657135 0 172.40600184 0 1792.06014691 0 -227.28524434 0 -437.66639541 0 27777
0.16050000 0.16050000 9146.05610103 0 185.22964375 0 1875.84304866 0 -74.26676568 0 158.91134252 0 28224
0.16150000 0.16150500 8854.69035720 0 151.76195696 0 2238.54737126 0 42.34940640 0 71.09745615 0 28075
0.16250000 0.16249700 8886.32245090 0 80.91915469 0 1798.50413234 0 167.66784251 0 -36.27730880 0 28590
0.16350000 0.16349900 8720.64215089 0 54.36682920 0 2196.86665313 0 107.27172773 0 184.90688992 0 29163
0.16450000 0.16449100 8570.92208328 0 206.19200599 0 2132.42679886 0 -531.90829588 0 -122.66087441 0 28996
0.16550000 0.16550500 8475.19396242 0 200.00311809 0 2581.19880978 0 -251.01042373 0 -70.32218148 0 30777
0.16650000 0.16650700 8184.05004253 0 105.38045683 0 2768.56239982 0 -192.61083532 0 -741.08827033 0 29211
0.16750000 0.16749900 8285.76740975 0 33.66333551 0 2905.94905642 0 14.25817732 0 1.73244496 0 30922
0.16850000 0.16850800 8235.71283792 0 0.86377576 0 2789.95731873 0 133.50251943 0 -734.94041986 0 30867
0.16950000 0.16949900 8299.58704114 0 -9.78537488 0 2833.23516923 0 336.95278153 0 -154.38946152 0 30852
0.17050000 0.17049200 8147.16072148 0 24.42037562 0 2632.14067736 0 231.51986334 0 -212.66815588 0 31257
0.17150000 0.17149500 8252.56036608 0 96.24330696 0 2376.98769156 0 142.52742638 0 5.77019521 0 32608
0.17250000 0.17250900 8186.71192980 0 -39.15713809 0 2320.06766883 0 87.29847844 0 367.34377028 0 32361
0.17350000 0.17350400 8218.55475624 0 -82.06853543 0 2121.44651388 0 433.27539054 0 -54.92016902 0 32508
0.17450000 0.17449800 8326.07281946 0 -51.13319073 0 1993.19900357 0 -27.87983086 0 267.96886387 0 32791
0.17550000 0.17549800 8297.87899681 0 -10.41860458 0 1561.97326622 0 201.36400795 0 -359.97588815 0 33633
0.17650000 0.17650100 8282.79496896 0 119.03183477 0 1806.22360541 0 -271.39160725 0 -133.70548833 0 33984
0.17750000 0.17750300 8174.01250929 0 236.83587403 0 1856.71073392 0 -433.51274216 0 -577.07830458 0 34069
0.17850000 0.17849800 7951.83365203 0 154.29407723 0 2147.93229219 0 -105.28296521 0 -413.38221970 0 34536
