### header ###
fiducial parameters:
Omega_m = 0.31
Omega_nu = 0
Omega_de = 0.69
Omega_k = 0
H_0 = 100
w_de = -1
zeff = 0
beta = 0
fgrowth = 0
b_1 = 2
gamma = 0.55
Lx = 3500 Ly = 3500 Lz = 3500
nx = 700 ny = 700 nz = 700
xoffset = 1379.75464 yoffset = 22.6059522 zoffset = 368.141391
bins = 400 dk = 0.001
kx_ny = 0.628318531 ky_ny = 0.628318531 kz_ny = 0.628318531
############################
A(data) = 3.29163966 (not used)
A(ran) = 3.29224923 (used)
Ngal = 184892
weighted Ngal = 0
Nran = 9399747
weighted Nran = 0
SN(data) = 6673.16175
SN(ran) = 130.950474
SN(data+ran) = 6804.11223
############################
13 columns: k_central k_mean P_0(k) sigma^{lin}_{P_0(k)} P^img_1(k) sigma^{lin}_{P_1(k)} P_2(k) sigma^{lin}_{P_2(k)} P^img_3(k) sigma^{lin}_{P_3(k)} P_4(k) sigma^{lin}_{P_4(k)} N_modes
### header ###
0.00050000 0 0 0 0 0 0 0 0 0 0 0 0
0.00150000 0.00179520 33051.43416979 0 -38858.23033204 0 -55169.27730000 0 56293.14828676 0 -41058.05833475 0 3
0.00250000 0.00253879 64266.05521299 0 -45591.36326339 0 -35260.91151385 0 -28393.02053957 0 13803.10551403 0 6
0.00350000 0.00331552 83622.19030309 0 -23978.05868236 0 -43749.67001014 0 -67916.50086456 0 -21316.61506267 0 7
0.00450000 0.00420575 105562.68519410 0 -5705.47807812 0 -51305.43701915 0 -59357.31326765 0 3381.43976079 0 24
0.00550000 0.00557378 87917.47814523 0 8575.19219411 0 -26895.15439171 0 -44228.36607043 0 11413.72895548 0 45
0.00650000 0.00659388 91351.42363237 0 14265.38660283 0 -23116.38359146 0 -18131.11238717 0 -10124.42167503 0 40
0.00750000 0.00754703 66866.38633751 0 7307.75675405 0 -9627.61369013 0 -522.92775371 0 -18282.17448960 0 57
0.00850000 0.00846663 71426.53196277 0 2353.30798608 0 9684.58916886 0 -1885.21511008 0 -9085.96399597 0 75
0.00950000 0.00948925 62907.27267487 0 -1977.94860776 0 11683.68868920 0 9393.17906024 0 -2163.55978869 0 112
0.01050000 0.01054430 68492.13398618 0 -3312.21960063 0 -19629.31127093 0 7642.01215648 0 -11369.91872753 0 105
0.01150000 0.01145670 76790.34571890 0 -4526.99403758 0 5011.25787874 0 -6736.88175593 0 5932.73670359 0 144
0.01250000 0.01249090 75503.76687290 0 -3134.23916320 0 -13388.51657211 0 6097.92899094 0 -9270.34405404 0 169
0.01350000 0.01339930 81270.30199022 0 -198.27067313 0 6280.82282861 0 -10082.51913296 0 12664.37232336 0 180
0.01450000 0.01448870 81152.40256666 0 2089.67023462 0 -942.38351286 0 -6264.37458354 0 -11109.94107107 0 267
0.01550000 0.01550050 83597.12419799 0 4591.62244220 0 9021.57959768 0 -13534.92037182 0 -10343.20662603 0 238
0.01650000 0.01653350 70312.75396523 0 6339.92781715 0 19126.54731327 0 -5459.09822911 0 -20207.93901572 0 315
0.01750000 0.01747870 71045.32752366 0 5393.94853824 0 29061.81971555 0 -12478.92751038 0 -22752.92506746 0 297
0.01850000 0.01844180 62286.94202955 0 289.17412331 0 24047.04592738 0 9825.08136060 0 -11458.53739115 0 388
0.01950000 0.01947590 60038.09093633 0 -1311.19021202 0 26629.63113677 0 3296.48119216 0 -20229.56684977 0 399
0.02050000 0.02045430 66914.52213226 0 -306.31778644 0 20996.07947086 0 4362.85541395 0 -10334.20057411 0 462
0.02150000 0.02154770 64771.37014596 0 632.99901047 0 21606.20621499 0 1024.29865704 0 -13537.13861121 0 571
0.02250000 0.02255340 64459.59659974 0 1604.71873926 0 19591.93393722 0 -6595.16953252 0 -6890.30628331 0 510
0.02350000 0.02348930 62799.13350462 0 -629.71379793 0 19002.76955533 0 -586.94170602 0 -9416.22656750 0 555
0.02450000 0.02439640 66951.12308219 0 701.28640096 0 35895.54980323 0 -3582.63407343 0 -16978.84793622 0 592
0.02550000 0.02547300 68001.68125713 0 1707.86687088 0 35314.70381905 0 1104.77638210 0 -1388.72876989 0 837
0.02650000 0.02652900 65327.59367291 0 455.95467006 0 38675.66923027 0 7378.97332965 0 -2202.33461322 0 723
0.02750000 0.02749970 66584.89175896 0 675.83543132 0 36466.52462212 0 6538.04986824 0 18438.11671869 0 826
0.02850000 0.02848090 67815.68188430 0 -99.39132139 0 44704.17841951 0 4393.06783443 0 14140.27790126 0 831
0.02950000 0.02946900 67698.33702059 0 2979.36168902 0 46754.49708735 0 3096.78419111 0 24190.01145604 0 996
0.03050000 0.03053250 63259.97273782 0 3113.60953688 0 49733.70349962 0 -1891.65909550 0 31220.16664167 0 1041
0.03150000 0.03150510 60590.98710420 0 336.12426911 0 48618.03999859 0 7063.88351555 0 17041.62411094 0 1036
0.03250000 0.03246190 61312.13672977 0 1520.30363928 0 52029.35944396 0 4659.53384111 0 29618.15415447 0 1059
0.03350000 0.03345080 59293.53888520 0 1487.55133470 0 39358.11057849 0 2964.78785623 0 8364.18217217 0 1302
0.03450000 0.03451200 58297.66031122 0 1757.78834834 0 42116.60217149 0 4351.43148109 0 15379.49733628 0 1339
0.03550000 0.03553350 53410.21346401 0 1513.53800915 0 34604.20174255 0 3821.40536133 0 4948.96971668 0 1365
0.03650000 0.03647120 52339.24748669 0 1113.36762325 0 33447.38990085 0 3159.34963310 0 5534.06362929 0 1308
0.03750000 0.03744890 50707.51059167 0 958.77962931 0 27347.78613917 0 4790.11050279 0 -3217.77805862 0 1579
0.03850000 0.03847530 47426.62362242 0 1279.26974720 0 20141.83548191 0 2615.70352348 0 -2229.26403941 0 1662
0.03950000 0.03950240 45110.55987569 0 1310.64674337 0 21135.93946438 0 4966.95963813 0 1533.26924852 0 1683
0.04050000 0.04050350 44344.82363838 0 309.58968954 0 14885.05177633 0 1510.64320674 0 -570.00433916 0 1822
0.04150000 0.04152450 42256.68398894 0 161.47784549 0 14015.39102362 0 3091.44932538 0 -1661.30602609 0 1887
0.04250000 0.04250150 42319.01651579 0 1351.24052420 0 12128.55659879 0 -1919.45363506 0 -3224.58805354 0 1920
0.04350000 0.04349210 41249.04874620 0 662.37737294 0 15611.08152856 0 -1069.79696516 0 -941.29102996 0 2005
0.04450000 0.04448520 40268.91967188 0 674.27489991 0 15124.84345435 0 -768.14857264 0 -5684.28280075 0 2151
0.04550000 0.04548030 40035.56088809 0 -100.49966470 0 12487.24590810 0 920.33088597 0 -3822.29265708 0 2274
0.04650000 0.04648670 40182.29742372 0 514.45297013 0 14109.88802162 0 559.38673632 0 -6105.82592316 0 2311
0.04750000 0.04749250 39521.92755742 0 981.21157514 0 14720.68023756 0 -669.60883336 0 -8392.77527790 0 2568
0.04850000 0.04851840 38560.54260595 0 964.58032531 0 16360.62461832 0 -1861.29139826 0 -6096.64241209 0 2493
0.04950000 0.04949480 35963.53884052 0 607.45820214 0 12114.02713079 0 -1664.26737567 0 -11467.07761280 0 2644
0.05050000 0.05050630 37610.47067536 0 904.69673475 0 17560.69212812 0 784.98722785 0 -9779.56308832 0 2829
0.05150000 0.05149060 34642.02272414 0 818.43938696 0 14053.10109325 0 -982.02677811 0 -14829.37396765 0 2784
0.05250000 0.05249300 34084.57916552 0 545.55379549 0 16190.04200926 0 1307.49684344 0 -11444.78430693 0 3055
0.05350000 0.05348950 33367.42237085 0 688.97295411 0 14933.29848306 0 -850.00382436 0 -12205.97315349 0 3009
0.05450000 0.05448610 33250.63206698 0 599.24738904 0 13813.75306310 0 2233.38996468 0 -10029.04847248 0 3336
0.05550000 0.05550870 31890.85132113 0 339.45273732 0 14246.64247999 0 2374.58090183 0 -9946.10850170 0 3349
0.05650000 0.05647670 30847.50242421 0 182.57330208 0 10455.11680324 0 563.18436216 0 -6836.18124220 0 3324
0.05750000 0.05747970 32227.80188442 0 -61.78805999 0 11089.34471833 0 1923.62392511 0 -6698.00711062 0 3639
0.05850000 0.05849280 29951.11188686 0 690.50353929 0 10308.28044684 0 -499.85917318 0 -6732.95547221 0 3846
0.05950000 0.05951020 30866.35745903 0 407.05912832 0 10678.80406329 0 -774.43173571 0 -4030.06404952 0 3787
0.06050000 0.06049470 29624.69796067 0 -623.45059902 0 11101.73358532 0 1906.34384026 0 -6245.92992301 0 3930
0.06150000 0.06148310 30271.53656669 0 403.59534751 0 9688.41563180 0 1439.80373183 0 -5315.85542053 0 4083
0.06250000 0.06249100 30108.38505958 0 303.79453913 0 8748.10395453 0 244.10060803 0 -5493.82476676 0 4303
0.06350000 0.06350600 28800.73293939 0 335.21146361 0 7666.87862003 0 923.22457925 0 -2719.50603572 0 4470
0.06450000 0.06451750 29853.28752977 0 242.34708980 0 8874.22195503 0 1195.61993982 0 -2266.60809954 0 4479
0.06550000 0.06550280 28716.43984258 0 -396.71215068 0 4927.57479776 0 1425.05243989 0 -3188.90767296 0 4636
0.06650000 0.06648880 28748.27157782 0 621.74144557 0 7116.56670105 0 -570.27385525 0 -3109.21742289 0 4653
0.06750000 0.06749660 27954.25278830 0 627.54990541 0 4697.74301460 0 173.10807461 0 -2115.37962915 0 5220
0.06850000 0.06852730 27192.95302977 0 -248.52710474 0 6186.23710104 0 1902.10700303 0 -561.33878699 0 5029
0.06950000 0.06949320 28467.77520700 0 -175.69121438 0 4232.10129312 0 534.93286529 0 -1887.55535263 0 5040
0.07050000 0.07048030 27011.94469558 0 508.63009173 0 4286.91398844 0 415.20006688 0 -1542.69676592 0 5475
0.07150000 0.07148790 26574.17515203 0 1236.92355726 0 6189.44245696 0 -1874.12391313 0 13.50486323 0 5509
0.07250000 0.07249820 25308.89140418 0 263.17968503 0 5496.84157233 0 952.31235237 0 1669.13641113 0 5916
0.07350000 0.07351270 25016.86018853 0 363.29326516 0 7351.09006052 0 401.40705435 0 148.71742340 0 5721
0.07450000 0.07449140 25729.69141640 0 -205.44667755 0 5404.85118484 0 462.91883263 0 1881.49955910 0 6028
0.07550000 0.07549160 25099.60051777 0 -125.10315598 0 5766.08037825 0 587.52732122 0 1793.96783278 0 6183
0.07650000 0.07648840 25676.78640695 0 180.75434578 0 6971.34965941 0 -759.93997778 0 2121.98998253 0 6330
0.07750000 0.07749960 24648.85427379 0 678.28214937 0 7133.35877323 0 -561.95102106 0 1105.45849071 0 6583
0.07850000 0.07848650 24730.37457136 0 349.49248880 0 7558.04070438 0 -300.64907568 0 258.66334963 0 6549
0.07950000 0.07947320 24276.07914436 0 63.19154005 0 7595.48458528 0 216.50681915 0 1364.21722463 0 6828
0.08050000 0.08048110 23895.54017707 0 286.34586809 0 8555.39440756 0 262.32899022 0 749.82369704 0 7147
0.08150000 0.08149960 23484.72224211 0 556.21576312 0 7386.75934991 0 -303.76015642 0 1398.53338799 0 7386
0.08250000 0.08250610 23037.74700509 0 261.84541403 0 7480.15831941 0 549.22498168 0 265.64303987 0 7227
0.08350000 0.08350160 22457.78831667 0 462.30992591 0 8490.98782688 0 39.10190393 0 810.24631978 0 7798
0.08450000 0.08449610 22593.76639125 0 352.42832863 0 7515.99397675 0 -220.29224467 0 1090.59739592 0 7371
0.08550000 0.08548940 21493.74147793 0 215.36997146 0 7485.88137704 0 815.07653605 0 185.89955205 0 8256
0.08650000 0.08650700 20735.87999046 0 218.10838799 0 6687.72557105 0 174.74735352 0 537.96519854 0 8037
0.08750000 0.08749060 21311.29128813 0 47.54829405 0 7362.29216944 0 867.49686019 0 1060.83084155 0 8155
0.08850000 0.08849210 20979.33176347 0 70.35323683 0 5828.61254664 0 890.60758727 0 537.46498555 0 8718
0.08950000 0.08949900 20553.76253657 0 339.33184327 0 5574.66850131 0 952.39886370 0 989.12847152 0 8571
0.09050000 0.09049190 20018.16863594 0 364.32918295 0 5008.29652915 0 -321.03247743 0 1503.74448224 0 8932
0.09150000 0.09150830 19461.39054914 0 425.85094331 0 5799.55361063 0 340.62840420 0 2230.88335417 0 9285
0.09250000 0.09250820 19421.90588800 0 267.64832828 0 5466.22986875 0 801.52420250 0 2668.25361462 0 9204
0.09350000 0.09350330 18717.94761770 0 -22.60973771 0 5264.04843958 0 238.64041178 0 3040.87346729 0 9349
0.09450000 0.09448040 18788.93127817 0 407.78005612 0 5016.63710926 0 353.97222324 0 2941.47416024 0 9564
0.09550000 0.09549270 18171.92799194 0 435.62672430 0 5718.86515284 0 -571.34193751 0 3250.48599842 0 10155
0.09650000 0.09649430 18035.83900538 0 211.08987856 0 5906.86094111 0 -439.98223734 0 2900.73619385 0 9913
0.09750000 0.09749140 17563.57583933 0 268.34596456 0 5890.27960167 0 434.86364995 0 3184.61537974 0 10476
0.09850000 0.09850240 17086.65437055 0 434.72833734 0 6163.79960961 0 -597.62585604 0 1907.41968637 0 10575
0.09950000 0.09950330 16926.49748662 0 78.84532269 0 6127.89740509 0 307.69642222 0 1579.38644543 0 10882
0.10050000 0.10051200 16641.89737293 0 250.13089182 0 6670.33457424 0 144.35414652 0 1198.06000315 0 10875
0.10150000 0.10150300 16252.70727202 0 448.28843473 0 5878.72257445 0 -328.06651453 0 877.80945511 0 11118
0.10250000 0.10250800 15936.60815899 0 -52.42842071 0 6749.90282114 0 131.66027161 0 902.65373627 0 11575
0.10350000 0.10349800 15956.46140153 0 152.70359958 0 5674.33399709 0 -52.20460036 0 56.75864582 0 11364
0.10450000 0.10450100 15849.09861507 0 58.95947203 0 5980.69503919 0 441.73242822 0 -46.18141494 0 12093
0.10550000 0.10551000 15684.94890024 0 83.55897048 0 5946.64506456 0 -279.36174137 0 -387.91350414 0 12067
0.10650000 0.10649700 15800.96282032 0 -49.65861610 0 6184.69542466 0 198.39933101 0 -139.20339466 0 12054
0.10750000 0.10749900 15763.03092675 0 -7.38287743 0 5560.42740443 0 -212.13023283 0 -1241.83695750 0 12807
0.10850000 0.10850100 15713.67510033 0 211.56680003 0 5794.68457517 0 -28.99150153 0 -664.79192652 0 12736
0.10950000 0.10950300 15293.98420781 0 428.74130923 0 5881.69501523 0 -38.44109041 0 -1519.40525233 0 12933
0.11050000 0.11050200 14997.84924930 0 308.77337744 0 5995.73470225 0 -6.21618333 0 -930.72999223 0 13428
0.11150000 0.11150900 14379.84775534 0 353.16700234 0 6389.25036998 0 76.22768930 0 -795.14232777 0 13453
0.11250000 0.11250000 14070.73609639 0 235.41509170 0 5796.32607232 0 388.81632758 0 -998.96081761 0 13668
0.11350000 0.11349100 13837.82096048 0 -23.96175462 0 5674.11217315 0 492.35265109 0 -560.89846647 0 13791
0.11450000 0.11448600 13908.02823716 0 -115.81538765 0 5544.15661851 0 329.42407704 0 -806.99327171 0 14205
0.11550000 0.11549300 13915.57025109 0 -50.46616615 0 5034.64921310 0 291.16832052 0 -548.92773760 0 14776
0.11650000 0.11649800 14286.23805310 0 -234.34700944 0 4368.60065397 0 789.43812518 0 -627.14174936 0 14553
0.11750000 0.11747300 14313.85513350 0 -117.96042514 0 3846.90402311 0 342.03698621 0 -842.61043247 0 14568
0.11850000 0.11849100 14603.33537385 0 178.50726928 0 3704.87015499 0 -88.83915661 0 -585.19484250 0 16015
0.11950000 0.11950300 14137.50510202 0 201.96958731 0 3775.21052604 0 -183.12009809 0 -1370.04010303 0 15270
0.12050000 0.12050700 14048.33187856 0 87.59283881 0 3725.46650773 0 3.17513241 0 -765.96582508 0 15999
0.12150000 0.12150000 13716.48326587 0 37.96871634 0 3446.76691081 0 472.12341697 0 -1284.70443371 0 15670
0.12250000 0.12250700 13874.08917450 0 120.64671304 0 2901.08002096 0 318.34508041 0 -990.74667715 0 16887
0.12350000 0.12352200 13485.78636934 0 197.21700942 0 2824.85022433 0 186.80459372 0 -1320.14080796 0 16407
0.12450000 0.12449800 13451.29274683 0 79.16752196 0 2498.80230765 0 224.98825745 0 -129.11373279 0 16306
0.12550000 0.12549900 12942.31771888 0 255.78629314 0 2655.23254940 0 4.00413283 0 -1053.36646600 0 17523
0.12650000 0.12650100 12943.53775055 0 242.57002286 0 2692.02204968 0 77.00518220 0 6.15927440 0 17154
0.12750000 0.12750600 12765.63495150 0 2.85939930 0 2899.34979423 0 1.65986417 0 -537.07124806 0 18007
0.12850000 0.12850300 12572.75903657 0 62.42070186 0 3093.76738554 0 -160.51180223 0 -358.78358448 0 17496
0.12950000 0.12949900 12834.28946061 0 56.05601850 0 3156.46592189 0 -252.53879067 0 -558.93754285 0 18405
0.13050000 0.13049000 12495.45339384 0 186.24337915 0 3874.03309085 0 -446.71570300 0 -828.20296764 0 18100
0.13150000 0.13148800 12526.95239317 0 348.42884301 0 3997.55575126 0 -830.17720069 0 -752.36690850 0 19059
0.13250000 0.13249300 12256.21627566 0 66.77421849 0 4723.45240913 0 47.19038113 0 -927.36048659 0 18957
0.13350000 0.13349100 12128.22386288 0 37.48647109 0 4617.35401912 0 430.02123336 0 -1111.91467645 0 19468
0.13450000 0.13450700 12136.43134862 0 78.43450475 0 4118.62725715 0 306.81578118 0 -1170.07691325 0 19953
0.13550000 0.13551000 12087.40825811 0 166.26480609 0 4288.67748876 0 221.61431534 0 -297.77312831 0 19956
0.13650000 0.13649900 11638.10386974 0 108.27792112 0 3747.83745197 0 526.07543541 0 -215.86463884 0 19723
0.13750000 0.13749600 11808.79739077 0 99.62379288 0 3964.34870760 0 340.43430825 0 11.11238113 0 20946
0.13850000 0.13851100 11357.49658695 0 -22.91496745 0 2889.56735853 0 372.75849263 0 -81.16537927 0 20955
0.13950000 0.13949800 11521.64630178 0 -81.86179552 0 3151.86307516 0 476.60426054 0 817.40568741 0 20506
0.14050000 0.14048300 11486.81994337 0 66.24206286 0 2530.14603022 0 228.39990964 0 94.90149395 0 21447
0.14150000 0.14148400 11380.01171675 0 204.12460687 0 2511.67918730 0 33.34634910 0 374.14932873 0 21771
0.14250000 0.14249400 11064.14551887 0 220.71592839 0 2831.46057771 0 -492.40367059 0 650.26578588 0 22470
0.14350000 0.14350900 10923.49805037 0 120.58460234 0 2992.49366621 0 -26.76538739 0 6.58936884 0 22519
0.14450000 0.14449900 10756.46462433 0 353.33780678 0 3461.06346368 0 -325.38022663 0 -121.93883749 0 22218
0.14550000 0.14550500 10300.82716250 0 322.32903835 0 3506.89228947 0 -380.92937743 0 -64.00141925 0 23559
0.14650000 0.14650700 10088.59710889 0 125.14862988 0 3780.19047347 0 39.79233094 0 -79.81424965 0 23044
0.14750000 0.14750500 9865.26476714 0 109.42974192 0 3851.54014344 0 148.58543816 0 -80.00091450 0 23649
0.14850000 0.14849900 9870.41108253 0 102.56883840 0 3715.15169456 0 240.81650462 0 16.40931497 0 23640
0.14950000 0.14949500 9533.05014495 0 12.39696356 0 3582.04623999 0 602.80322678 0 463.69854377 0 24457
0.15050000 0.15050000 9870.61072407 0 -98.83088321 0 3250.39726884 0 287.79548753 0 874.84145080 0 24591
0.15150000 0.15149900 9840.90849864 0 -86.39776234 0 2691.14584512 0 435.77645545 0 733.77917154 0 25020
0.15250000 0.15250500 9883.48760373 0 86.92315234 0 3033.33145337 0 -160.06815436 0 957.96553545 0 25297
0.15350000 0.15350100 9797.35336823 0 169.35925004 0 2981.75738756 0 -345.24677860 0 688.57478014 0 25452
0.15450000 0.15450400 9659.03505109 0 165.93650666 0 3368.76252267 0 -212.18125234 0 944.45091197 0 26061
0.15550000 0.15549900 9385.42631357 0 117.54894174 0 3415.81138013 0 -42.98093915 0 734.71970504 0 26128
0.15650000 0.15649500 9382.70897032 0 107.87098510 0 3721.32949126 0 17.91073030 0 821.93089576 0 26331
0.15750000 0.15749700 9445.56278342 0 68.29204879 0 3396.12450555 0 280.92116366 0 364.62199055 0 27345
0.15850000 0.15849900 9329.85941686 0 -11.06155018 0 3528.40921155 0 157.30866456 0 981.43228996 0 26980
0.15950000 0.15949700 9020.25974525 0 129.68160208 0 3012.86819500 0 338.58984220 0 689.16150446 0 27777
0.16050000 0.16050000 9121.87729169 0 117.22840614 0 3024.90214369 0 -26.41856566 0 1040.37756526 0 28224
0.16150000 0.16150500 8836.36769985 0 46.36608337 0 2658.90373559 0 300.45497973 0 464.73557069 0 28075
0.16250000 0.16249700 8802.27336043 0 101.36921454 0 2583.98270021 0 366.28012450 0 730.65810872 0 28590
0.16350000 0.16349900 8574.40471913 0 83.24076404 0 2173.10930926 0 66.50936071 0 997.60658247 0 29163
0.16450000 0.16449100 8402.79062875 0 222.18662110 0 2236.48440862 0 64.87207821 0 719.44269036 0 28996
0.16550000 0.16550500 8144.75393175 0 199.34873747 0 2474.45713035 0 -66.19337251 0 700.56214580 0 30777
0.16650000 0.16650700 7836.49629496 0 161.73848862 0 2437.13525261 0 -246.76804090 0 390.82716158 0 29211
0.16750000 0.16749900 7875.59276421 0 37.81255228 0 2447.92698725 0 -81.41870221 0 383.10768851 0 30922
0.16850000 0.16850800 7819.27166610 0 24.72150161 0 2547.67012140 0 -10.91195211 0 51.94029713 0 30867
0.16950000 0.16949900 7820.07023228 0 46.14381578 0 2426.05514686 0 -9.84881652 0 74.09485212 0 30852
0.17050000 0.17049200 7816.16613096 0 -68.98303036 0 2638.66230116 0 -121.07816060 0 -360.49717441 0 31257
0.17150000 0.17149500 7901.10251719 0 -5.64423249 0 2420.21008607 0 35.90885924 0 -609.01651531 0 32608
0.17250000 0.17250900 8032.49992743 0 2.27677873 0 2566.22569390 0 57.93908191 0 -544.86281392 0 32361
0.17350000 0.17350400 7982.50081159 0 -38.88606924 0 2297.96291331 0 -1.49082324 0 -688.43835841 0 32508
0.17450000 0.17449800 8105.03635547 0 23.08277726 0 2253.24320721 0 376.54059079 0 -281.57998076 0 32791
0.17550000 0.17549800 8122.49389947 0 -100.54924235 0 2000.04227208 0 343.23483548 0 -381.27875013 0 33633
0.17650000 0.17650100 8165.25046371 0 12.91492246 0 1738.16802094 0 291.51991147 0 -48.02233181 0 33984
0.17750000 0.17750300 8150.36607740 0 119.52650215 0 1734.68538510 0 -147.19016558 0 -96.54787123 0 34069
0.17850000 0.17849800 7893.50504728 0 193.33509048 0 1755.39264980 0 -193.40385590 0 156.00655803 0 34536
