### header ###
fiducial parameters:
Omega_m = 0.31
Omega_nu = 0
Omega_de = 0.69
Omega_k = 0
H_0 = 100
w_de = -1
zeff = 0
beta = 0
fgrowth = 0
b_1 = 2
gamma = 0.55
Lx = 3500 Ly = 3500 Lz = 3500
nx = 700 ny = 700 nz = 700
xoffset = 1379.75464 yoffset = 22.6059522 zoffset = 368.141391
bins = 400 dk = 0.001
kx_ny = 0.628318531 ky_ny = 0.628318531 kz_ny = 0.628318531
############################
A(data) = 3.29732919 (not used)
A(ran) = 3.29928997 (used)
Ngal = 185262
weighted Ngal = 0
Nran = 9399747
weighted Nran = 0
SN(data) = 6675.035
SN(ran) = 131.230522
SN(data+ran) = 6806.26552
############################
13 columns: k_central k_mean P_0(k) sigma^{lin}_{P_0(k)} P^img_1(k) sigma^{lin}_{P_1(k)} P_2(k) sigma^{lin}_{P_2(k)} P^img_3(k) sigma^{lin}_{P_3(k)} P_4(k) sigma^{lin}_{P_4(k)} N_modes
### header ###
0.00050000 0 0 0 0 0 0 0 0 0 0 0 0
0.00150000 0.00179520 3718.56778322 0 -11219.85483282 0 -14289.89814809 0 17068.79754347 0 3394.95992987 0 3
0.00250000 0.00253879 14436.41285978 0 -16209.00795604 0 -12209.30051257 0 -7454.29364813 0 7158.53579031 0 6
0.00350000 0.00331552 22949.68290132 0 -16359.29367469 0 -27364.09019869 0 -1526.88071907 0 -7169.43843691 0 7
0.00450000 0.00420575 47322.81001898 0 -25900.60676137 0 -33515.60076208 0 -15813.71769681 0 -4434.36036067 0 24
0.00550000 0.00557378 84486.19454536 0 -14360.32724871 0 -36975.27782614 0 -45064.42049638 0 -21040.88790653 0 45
0.00650000 0.00659388 91641.34752060 0 4480.85465828 0 -11798.26075367 0 -41008.36977242 0 -37722.15902863 0 40
0.00750000 0.00754703 85209.45149835 0 2691.92222891 0 -16331.01112247 0 -24344.17909362 0 18847.60371002 0 57
0.00850000 0.00846663 83958.91904244 0 -466.19628132 0 -1984.99151782 0 -5327.41244775 0 -37731.69745801 0 75
0.00950000 0.00948925 109714.34203576 0 -10833.17134242 0 14.26960126 0 5765.80309832 0 -28260.03708816 0 112
0.01050000 0.01054430 100512.30866372 0 -1322.76942164 0 -8397.84395491 0 -15552.74183261 0 -34179.63072337 0 105
0.01150000 0.01145670 106781.38591477 0 5217.57632437 0 11.31401909 0 -12991.11898545 0 -11617.25241948 0 144
0.01250000 0.01249090 101261.51901758 0 3366.01190583 0 4125.06015138 0 -803.20673708 0 -20847.45743176 0 169
0.01350000 0.01339930 95763.27995444 0 8734.39523510 0 11527.30281223 0 -835.02405376 0 -7800.54972565 0 180
0.01450000 0.01448870 84098.55721202 0 6804.78206364 0 29152.32388265 0 -12763.41671211 0 -8743.98912046 0 267
0.01550000 0.01550050 81653.83558069 0 3223.21274512 0 27019.37579753 0 11207.09995633 0 -14362.87822401 0 238
0.01650000 0.01653350 79292.63066239 0 266.93405519 0 32737.99694404 0 7293.82621068 0 -5398.10773709 0 315
0.01750000 0.01747870 79345.31384789 0 -77.43019687 0 30930.57548936 0 2961.09448765 0 18385.87718107 0 297
0.01850000 0.01844180 73893.32507602 0 6117.30531200 0 39593.24395380 0 -4570.83753912 0 15538.54510052 0 388
0.01950000 0.01947590 74256.11812820 0 4080.49572204 0 47132.70690329 0 6539.64700060 0 11280.08003225 0 399
0.02050000 0.02045430 69317.76268700 0 396.47812643 0 43831.85577953 0 12418.36957505 0 22283.65652458 0 462
0.02150000 0.02154770 74204.54406239 0 -2970.41109308 0 43842.72515254 0 13662.13640082 0 27713.24107862 0 571
0.02250000 0.02255340 73427.05115632 0 -644.09464390 0 44720.26065508 0 9685.27682307 0 35043.85678957 0 510
0.02350000 0.02348930 78024.13046742 0 3594.49056296 0 41051.07088067 0 -2119.05081534 0 23140.00784095 0 555
0.02450000 0.02439640 72746.82804748 0 3791.63658872 0 42563.13376062 0 -2592.27891553 0 23885.77992375 0 592
0.02550000 0.02547300 69072.64723445 0 3053.57288780 0 50950.96236468 0 269.53494088 0 23263.45286299 0 837
0.02650000 0.02652900 68715.73251665 0 1394.69583385 0 57022.83813399 0 -2724.80762786 0 13589.37814884 0 723
0.02750000 0.02749970 64997.63056370 0 1665.25449220 0 51500.42026150 0 10906.79470776 0 19426.56419072 0 826
0.02850000 0.02848090 65221.45091811 0 763.09653243 0 52858.87006372 0 1782.74354147 0 4012.92815023 0 831
0.02950000 0.02946900 62976.70356776 0 -425.49491588 0 43370.79472239 0 10505.63720534 0 11959.08310942 0 996
0.03050000 0.03053250 66226.97883344 0 -266.94514639 0 43667.04059288 0 13652.48705948 0 15246.29206094 0 1041
0.03150000 0.03150510 63451.29588518 0 1551.88027700 0 33018.93696274 0 320.02539674 0 15159.22616489 0 1036
0.03250000 0.03246190 61623.68845205 0 2572.51440256 0 27182.19456873 0 7027.85930786 0 14373.96942096 0 1059
0.03350000 0.03345080 58756.05948109 0 1809.95024759 0 28646.67621378 0 130.89608814 0 13806.87652099 0 1302
0.03450000 0.03451200 55982.92750812 0 667.41055812 0 24090.96706730 0 5620.73024224 0 18024.52598450 0 1339
0.03550000 0.03553350 54259.79915025 0 620.93955203 0 22010.03669587 0 4940.93969009 0 7141.49971179 0 1365
0.03650000 0.03647120 53944.58733298 0 -38.21372088 0 20688.07693161 0 2359.89615707 0 14485.87959817 0 1308
0.03750000 0.03744890 52419.54775260 0 1402.93659318 0 17013.56338267 0 1832.05500310 0 5105.31122886 0 1579
0.03850000 0.03847530 50697.52851442 0 1506.31763993 0 16221.98465647 0 -1175.61142053 0 10077.86083025 0 1662
0.03950000 0.03950240 49899.18415808 0 2382.45565166 0 24096.73448971 0 -4446.00611747 0 6514.99126978 0 1683
0.04050000 0.04050350 45137.62239624 0 3883.36078748 0 23329.44548483 0 -4415.10604277 0 1066.88774420 0 1822
0.04150000 0.04152450 43425.69614728 0 389.51950946 0 28420.63761997 0 1736.28251746 0 7601.67347318 0 1887
0.04250000 0.04250150 41126.71284386 0 -184.29909233 0 25743.22267667 0 3529.32978089 0 -2197.29920981 0 1920
0.04350000 0.04349210 44422.12928111 0 -703.11644846 0 25566.42899732 0 4879.23936146 0 7945.68912892 0 2005
0.04450000 0.04448520 43795.25482960 0 -118.87433977 0 19750.87078949 0 5312.26187271 0 1365.63689784 0 2151
0.04550000 0.04548030 43611.80643208 0 721.72636781 0 22221.98946955 0 588.37247043 0 2579.67931579 0 2274
0.04650000 0.04648670 41013.47172302 0 1484.73417067 0 17771.97942998 0 -991.36667506 0 1308.17340645 0 2311
0.04750000 0.04749250 39674.87516333 0 1423.48858112 0 19435.32623631 0 -1547.57689258 0 2560.55809225 0 2568
0.04850000 0.04851840 40061.29246501 0 -1284.18314745 0 15722.54805789 0 4491.44675136 0 -482.96506199 0 2493
0.04950000 0.04949480 39296.11078755 0 -868.48619495 0 14332.71016831 0 2498.14792703 0 -4089.66814192 0 2644
0.05050000 0.05050630 40453.69901304 0 1106.94027462 0 12220.50262149 0 -1570.62439984 0 -5078.18216112 0 2829
0.05150000 0.05149060 38267.29135864 0 1701.66689178 0 12895.51286776 0 -489.84936794 0 -2182.57010026 0 2784
0.05250000 0.05249300 36917.27086610 0 1035.99543334 0 13760.40440578 0 -1378.36959194 0 -3500.89195192 0 3055
0.05350000 0.05348950 37328.64336091 0 -408.96792331 0 12858.80100586 0 2248.97309639 0 -3635.42817090 0 3009
0.05450000 0.05448610 36315.12978378 0 613.54061454 0 14400.58829363 0 511.38736329 0 -2610.01373945 0 3336
0.05550000 0.05550870 35340.87904385 0 1165.75134644 0 14767.15235277 0 -619.01301112 0 -4002.79079622 0 3349
0.05650000 0.05647670 34440.93932347 0 1063.31416055 0 14988.31081992 0 -1620.61242448 0 -4719.73685815 0 3324
0.05750000 0.05747970 33561.51831744 0 458.12410819 0 16470.98202796 0 696.39629222 0 -762.94791039 0 3639
0.05850000 0.05849280 32909.79958477 0 -731.49882145 0 14164.90035848 0 2452.67401954 0 -3222.54727331 0 3846
0.05950000 0.05951020 35598.30572502 0 -1041.81609350 0 11994.68585162 0 3676.23268447 0 1847.53831404 0 3787
0.06050000 0.06049470 34244.95787339 0 -139.42189124 0 10106.07683528 0 1437.46348928 0 -2692.11077926 0 3930
0.06150000 0.06148310 35456.78205196 0 1335.32465658 0 10825.61823730 0 -2066.91109848 0 -484.41468143 0 4083
0.06250000 0.06249100 33488.87097743 0 1423.18911881 0 14582.92757146 0 -2960.14064471 0 -2681.54086857 0 4303
0.06350000 0.06350600 31836.50445609 0 951.64798967 0 13877.97109343 0 -1530.14153098 0 -3526.55698166 0 4470
0.06450000 0.06451750 31190.22040991 0 278.47666386 0 16718.42663187 0 -1439.78154944 0 -6498.60957189 0 4479
0.06550000 0.06550280 31494.56285417 0 545.93533266 0 17423.93766975 0 204.36861321 0 -5035.85815357 0 4636
0.06650000 0.06648880 30117.14710517 0 636.08236322 0 16337.33310473 0 1014.37758137 0 -7300.95785032 0 4653
0.06750000 0.06749660 30656.29018883 0 -89.99452660 0 17606.27694758 0 645.92580051 0 -3232.96190724 0 5220
0.06850000 0.06852730 30232.93920131 0 52.75195093 0 16022.78675928 0 1867.16973264 0 -3566.96221214 0 5029
0.06950000 0.06949320 30365.36809287 0 118.14342989 0 16538.97106525 0 1498.68689643 0 -2417.35964846 0 5040
0.07050000 0.07048030 30156.96450222 0 239.95139126 0 15251.06127562 0 996.16250862 0 73.19047593 0 5475
0.07150000 0.07148790 29285.19642209 0 -26.88439593 0 13956.27494389 0 1958.35046275 0 -1916.17064076 0 5509
0.07250000 0.07249820 29408.53053215 0 545.72681816 0 14111.55170116 0 621.99321574 0 2216.98608439 0 5916
0.07350000 0.07351270 28412.43013423 0 423.41198910 0 11090.77548274 0 1514.79131440 0 -178.92651653 0 5721
0.07450000 0.07449140 28356.75232555 0 422.60565908 0 13016.07417859 0 1057.66097746 0 3125.90967430 0 6028
0.07550000 0.07549160 27230.55218743 0 426.97337244 0 10760.92328550 0 1581.88196474 0 1764.78689361 0 6183
0.07650000 0.07648840 26358.22954745 0 868.38859242 0 11440.79147603 0 -478.18919258 0 2232.05902104 0 6330
0.07750000 0.07749960 24983.58659769 0 989.65530337 0 10515.33091147 0 432.38698567 0 3027.37548061 0 6583
0.07850000 0.07848650 24172.15462896 0 755.68761287 0 11914.82923360 0 15.12451072 0 2152.59059491 0 6549
0.07950000 0.07947320 23297.28101368 0 371.45416787 0 10890.08027396 0 321.82993449 0 3505.00678599 0 6828
0.08050000 0.08048110 22661.42269264 0 240.51593318 0 11611.37408509 0 1614.58990454 0 1268.95493404 0 7147
0.08150000 0.08149960 22249.93928586 0 464.93077575 0 10368.39473430 0 -168.53517411 0 2606.00981735 0 7386
0.08250000 0.08250610 21303.86018618 0 263.95828705 0 8940.55840398 0 1288.25361673 0 3149.36755584 0 7227
0.08350000 0.08350160 21499.50890034 0 -217.46398944 0 8942.86537294 0 1649.70463408 0 2762.52878868 0 7798
0.08450000 0.08449610 21668.09509396 0 -378.00462879 0 6770.58790345 0 1413.43995669 0 3293.13165068 0 7371
0.08550000 0.08548940 21800.30216158 0 -102.00230006 0 7003.09266508 0 460.13494219 0 1731.87931227 0 8256
0.08650000 0.08650700 22296.85504895 0 191.63148263 0 5378.76468962 0 -492.15744602 0 2237.30515720 0 8037
0.08750000 0.08749060 21971.10659458 0 -104.16863265 0 6063.51300681 0 38.06520975 0 1431.15259821 0 8155
0.08850000 0.08849210 21770.02319391 0 121.12807099 0 6389.87147701 0 -429.26148637 0 2043.04284265 0 8718
0.08950000 0.08949900 22608.73950713 0 133.39826218 0 5782.53971452 0 -136.14333342 0 604.84289790 0 8571
0.09050000 0.09049190 21619.84838723 0 493.53053620 0 7653.45827173 0 -27.07150442 0 498.76779940 0 8932
0.09150000 0.09150830 21085.47451827 0 749.45103283 0 7607.62944594 0 -1067.21271627 0 1372.02542728 0 9285
0.09250000 0.09250820 20126.86236603 0 453.97932789 0 7987.51403261 0 261.53596964 0 4.59750078 0 9204
0.09350000 0.09350330 20064.86257509 0 422.05442659 0 9346.36311792 0 -269.69687235 0 2156.58342581 0 9349
0.09450000 0.09448040 19051.68173387 0 427.69319112 0 7453.69472349 0 761.11564466 0 30.78949546 0 9564
0.09550000 0.09549270 18873.55711088 0 178.33535573 0 8220.05206783 0 956.72332139 0 1344.54144125 0 10155
0.09650000 0.09649430 18261.32303934 0 169.57663750 0 7258.06819172 0 602.82208181 0 1607.21425857 0 9913
0.09750000 0.09749140 18093.51322951 0 472.35300475 0 7291.68560967 0 645.93578259 0 2103.32349806 0 10476
0.09850000 0.09850240 17482.61010161 0 113.36090577 0 6700.10334685 0 731.34576293 0 2803.87677090 0 10575
0.09950000 0.09950330 17185.80967127 0 223.42218044 0 6523.36512348 0 673.64159257 0 2736.85266775 0 10882
0.10050000 0.10051200 16973.30233774 0 314.77260587 0 6663.60221769 0 -129.62060049 0 3217.84460580 0 10875
0.10150000 0.10150300 16510.35577712 0 210.75603353 0 6486.96381509 0 307.54003634 0 3053.21796950 0 11118
0.10250000 0.10250800 16433.27195833 0 -77.18264135 0 6661.87199097 0 327.35889617 0 4443.83224287 0 11575
0.10350000 0.10349800 16800.39057732 0 -51.71070936 0 5940.75563898 0 718.18383951 0 3099.15770726 0 11364
0.10450000 0.10450100 16665.52162243 0 9.08501015 0 6013.52498216 0 378.41056660 0 3571.27668775 0 12093
0.10550000 0.10551000 16394.56368098 0 257.59526736 0 5692.77865761 0 249.85915749 0 4272.95017148 0 12067
0.10650000 0.10649700 16344.65329472 0 303.75793818 0 5558.32007701 0 -99.42071306 0 3578.24195944 0 12054
0.10750000 0.10749900 16034.43251608 0 -44.18466675 0 5612.61148607 0 282.83661338 0 3809.78178693 0 12807
0.10850000 0.10850100 15922.52233887 0 142.11594298 0 5641.50405412 0 180.08776485 0 3248.47849177 0 12736
0.10950000 0.10950300 15760.70177539 0 173.56059544 0 5535.68294404 0 -245.87076307 0 3031.47922348 0 12933
0.11050000 0.11050200 15693.93276977 0 11.18735763 0 4763.65799806 0 206.35837394 0 2133.13663546 0 13428
0.11150000 0.11150900 15664.76292179 0 -104.16397435 0 4630.33071955 0 603.25352937 0 2386.04919947 0 13453
0.11250000 0.11250000 15814.71590453 0 90.39514063 0 4331.33423222 0 232.02451280 0 2348.59422738 0 13668
0.11350000 0.11349100 15746.28321936 0 209.74673461 0 4383.67359062 0 473.31350241 0 2973.78281695 0 13791
0.11450000 0.11448600 15235.20086399 0 272.75693359 0 4575.18528832 0 64.29544688 0 1630.97160243 0 14205
0.11550000 0.11549300 14731.43869860 0 433.83882335 0 4059.33371826 0 -179.85928619 0 2557.09763881 0 14776
0.11650000 0.11649800 14442.18028219 0 346.22502218 0 5055.56721054 0 -189.69495964 0 2786.39704451 0 14553
0.11750000 0.11747300 13723.02707207 0 206.49257742 0 4542.68808127 0 56.80267787 0 1966.83522842 0 14568
0.11850000 0.11849100 13765.50635638 0 239.53990785 0 4867.98179656 0 37.22305517 0 2121.49087867 0 16015
0.11950000 0.11950300 13652.59797145 0 19.53847437 0 4186.79375359 0 202.10933639 0 1270.47442803 0 15270
0.12050000 0.12050700 13370.10518517 0 -71.61474957 0 4584.09151947 0 432.59217281 0 1963.85169644 0 15999
0.12150000 0.12150000 13506.85964355 0 224.64886683 0 4316.71603464 0 -158.55198773 0 508.82751503 0 15670
0.12250000 0.12250700 13198.74619232 0 235.88092198 0 4205.44914686 0 -365.23200639 0 1082.85574045 0 16887
0.12350000 0.12352200 12820.86911230 0 118.59151425 0 3834.72588886 0 -29.96763777 0 54.42771987 0 16407
0.12450000 0.12449800 13036.03833309 0 -93.32332754 0 4513.40732132 0 304.97464249 0 1046.28473675 0 16306
0.12550000 0.12549900 12955.73806719 0 -158.40780217 0 3443.78337883 0 762.55306378 0 -510.43795683 0 17523
0.12650000 0.12650100 13099.70180358 0 70.26495091 0 3613.97779600 0 28.51458006 0 472.78334319 0 17154
0.12750000 0.12750600 12705.29884010 0 335.41665075 0 3083.27511323 0 -266.00239465 0 -427.07541145 0 18007
0.12850000 0.12850300 12574.86636399 0 275.27574442 0 3818.00036387 0 -26.29024051 0 866.58405468 0 17496
0.12950000 0.12949900 12202.53488243 0 41.41785676 0 3032.20015128 0 333.89272029 0 -90.06484479 0 18405
0.13050000 0.13049000 12207.52592106 0 92.02055554 0 3757.49788451 0 127.15613653 0 67.18159815 0 18100
0.13150000 0.13148800 11942.55722597 0 100.38276348 0 3180.05689780 0 -156.40695024 0 -39.33193535 0 19059
0.13250000 0.13249300 11855.38041796 0 269.82663936 0 3341.05671270 0 -56.59116875 0 238.65815769 0 18957
0.13350000 0.13349100 11583.97882863 0 81.69110200 0 3174.16747222 0 140.84267357 0 213.66192713 0 19468
0.13450000 0.13450700 11759.66338829 0 -100.98712281 0 3237.24310926 0 599.65887244 0 296.69728220 0 19953
0.13550000 0.13551000 11558.69089959 0 25.44675498 0 3025.19051481 0 465.13041730 0 724.59455135 0 19956
0.13650000 0.13649900 11591.40993059 0 142.07601467 0 2648.47801046 0 -184.58857257 0 487.75424083 0 19723
0.13750000 0.13749600 11595.07002558 0 47.80527709 0 2732.76001607 0 -159.51248539 0 213.99133568 0 20946
0.13850000 0.13851100 11411.17798018 0 61.92858546 0 3029.21661930 0 -207.05933759 0 655.43872013 0 20955
0.13950000 0.13949800 11521.31356587 0 56.02363220 0 2754.94240997 0 -90.68351175 0 220.12144023 0 20506
0.14050000 0.14048300 11390.43744189 0 44.66713382 0 3338.18409269 0 269.27873423 0 265.05520643 0 21447
0.14150000 0.14148400 11549.04155825 0 108.76648834 0 2524.23442225 0 83.46602625 0 -95.97112899 0 21771
0.14250000 0.14249400 11125.91239467 0 81.09461743 0 2949.83692274 0 49.59262347 0 227.69783687 0 22470
0.14350000 0.14350900 11039.44542326 0 184.67175655 0 2968.12630651 0 -3.68559365 0 187.96362380 0 22519
0.14450000 0.14449900 10948.60852026 0 128.67230316 0 2995.68793093 0 151.84625006 0 576.89086335 0 22218
0.14550000 0.14550500 10731.83107590 0 40.09634065 0 2863.51413690 0 30.07921521 0 348.42995213 0 23559
0.14650000 0.14650700 10818.77496878 0 119.11501875 0 2867.83970370 0 31.25654577 0 153.15944778 0 23044
0.14750000 0.14750500 10549.58052765 0 121.76803306 0 3112.85533549 0 -87.77795089 0 541.98021183 0 23649
0.14850000 0.14849900 10316.36592942 0 213.57985227 0 3199.82141076 0 -417.38836003 0 -118.58153217 0 23640
0.14950000 0.14949500 10339.82381097 0 227.78989380 0 3806.19933031 0 -366.75260949 0 56.23503041 0 24457
0.15050000 0.15050000 10133.43881815 0 -5.73546867 0 3395.18175381 0 277.30321522 0 -131.86545876 0 24591
0.15150000 0.15149900 10084.27154208 0 -119.63297764 0 3494.59215205 0 595.70486073 0 526.60670374 0 25020
0.15250000 0.15250500 10250.89459383 0 78.96200208 0 3091.17204545 0 308.72013969 0 -110.18649429 0 25297
0.15350000 0.15350100 10121.92615572 0 118.63587904 0 3013.33402527 0 23.20600046 0 423.07038023 0 25452
0.15450000 0.15450400 9911.69251757 0 162.49601737 0 2942.50564156 0 -53.43062127 0 431.69933146 0 26061
0.15550000 0.15549900 9714.69067737 0 149.80546982 0 3040.31890745 0 -266.03566824 0 156.93378210 0 26128
0.15650000 0.15649500 9611.38726900 0 143.07533151 0 3037.53501701 0 -68.98358492 0 22.65842807 0 26331
0.15750000 0.15749700 9552.70374594 0 81.33274543 0 3209.83676160 0 -8.90072992 0 -606.36461012 0 27345
0.15850000 0.15849900 9360.22711410 0 63.81065067 0 2921.52109693 0 -211.56458179 0 -698.00229754 0 26980
0.15950000 0.15949700 9152.68863681 0 105.11914823 0 3118.07928925 0 51.80631547 0 -1218.50107913 0 27777
0.16050000 0.16050000 9083.49065905 0 260.81726008 0 3201.20781038 0 -495.89407027 0 -1330.40016514 0 28224
0.16150000 0.16150500 9017.97495868 0 132.16048460 0 3352.24773042 0 -234.21835155 0 -1540.99981279 0 28075
0.16250000 0.16249700 8702.69659423 0 155.72595075 0 3634.99561422 0 -64.16146523 0 -1979.31282499 0 28590
0.16350000 0.16349900 8710.19424336 0 70.48267110 0 3623.42749580 0 -31.49911024 0 -1358.72708214 0 29163
0.16450000 0.16449100 8600.39139358 0 -19.95339605 0 3493.83795066 0 164.54234321 0 -2197.93140803 0 28996
0.16550000 0.16550500 8584.06515167 0 -19.80543948 0 3227.38303518 0 538.63843419 0 -1504.01067097 0 30777
0.16650000 0.16650700 8643.44742013 0 51.02904439 0 3359.74537956 0 16.29063917 0 -1275.87584094 0 29211
0.16750000 0.16749900 8516.32012071 0 76.04313178 0 2703.44598254 0 279.85973612 0 -1001.29551457 0 30922
0.16850000 0.16850800 8464.26913343 0 144.74788401 0 3359.02445175 0 29.57634034 0 -1082.09932082 0 30867
0.16950000 0.16949900 8259.76964410 0 106.17259011 0 2823.60801028 0 93.08664139 0 -569.29782992 0 30852
0.17050000 0.17049200 8033.67559431 0 147.77245342 0 3120.40844061 0 204.37748616 0 -725.52177541 0 31257
0.17150000 0.17149500 7998.00630492 0 14.20471776 0 2701.97085334 0 166.45557468 0 -344.39830204 0 32608
0.17250000 0.17250900 8013.06815038 0 -44.61178875 0 2828.54359292 0 333.68531491 0 -225.56278146 0 32361
0.17350000 0.17350400 7977.98669443 0 34.23131570 0 2305.31637689 0 215.99995145 0 -110.20900942 0 32508
0.17450000 0.17449800 7991.70650506 0 105.89397925 0 2497.83737351 0 58.22246200 0 -230.85660976 0 32791
0.17550000 0.17549800 7939.31169067 0 51.68142860 0 2220.87909452 0 62.04859221 0 280.50413466 0 33633
0.17650000 0.17650100 7820.51388016 0 -46.75116973 0 2161.08645177 0 495.47704127 0 515.33693852 0 33984
0.17750000 0.17750300 7806.15078011 0 28.78143426 0 1993.25445955 0 324.95321555 0 787.65687895 0 34069
