### header ###
fiducial parameters:
Omega_m = 0.31
Omega_nu = 0
Omega_de = 0.69
Omega_k = 0
H_0 = 100
w_de = -1
zeff = 0
beta = 0
fgrowth = 0
b_1 = 2
gamma = 0.55
Lx = 3500 Ly = 3500 Lz = 3500
nx = 700 ny = 700 nz = 700
xoffset = 1379.75464 yoffset = 22.6059522 zoffset = 368.141391
bins = 400 dk = 0.001
kx_ny = 0.628318531 ky_ny = 0.628318531 kz_ny = 0.628318531
############################
A(data) = 3.36767415 (not used)
A(ran) = 3.37075346 (used)
Ngal = 189646
weighted Ngal = 0
Nran = 9399747
weighted Nran = 0
SN(data) = 6604.66901
SN(ran) = 134.07301
SN(data+ran) = 6738.74202
############################
13 columns: k_central k_mean P_0(k) sigma^{lin}_{P_0(k)} P^img_1(k) sigma^{lin}_{P_1(k)} P_2(k) sigma^{lin}_{P_2(k)} P^img_3(k) sigma^{lin}_{P_3(k)} P_4(k) sigma^{lin}_{P_4(k)} N_modes
### header ###
0.00050000 0 0 0 0 0 0 0 0 0 0 0 0
0.00150000 0.00179520 73124.81603948 0 -65860.30386233 0 -104809.26018541 0 135629.81100103 0 -6466.96638699 0 3
0.00250000 0.00253879 106837.17463542 0 -51949.72464987 0 -14534.68086474 0 -118709.08093683 0 -19026.61562877 0 6
0.00350000 0.00331552 135528.88110881 0 -15023.58082621 0 -76689.52673864 0 -41666.96504720 0 -11240.04081127 0 7
0.00450000 0.00420575 138536.81372116 0 12358.80984743 0 -33761.82533433 0 -76471.80654254 0 2829.31997670 0 24
0.00550000 0.00557378 88154.05337614 0 37582.07721117 0 14765.15593732 0 -56268.63674151 0 6591.54271112 0 45
0.00650000 0.00659388 62219.17481620 0 23216.86983581 0 66288.42406453 0 7173.10962310 0 -2492.85742608 0 40
0.00750000 0.00754703 27725.99595511 0 10187.41967370 0 45698.83696182 0 24377.11994856 0 -18484.81065785 0 57
0.00850000 0.00846663 33561.51831744 0 -5430.13911388 0 39962.91354808 0 35857.95064557 0 225.90106296 0 75
0.00950000 0.00948925 43912.48878134 0 -12090.29196932 0 13896.82612824 0 19657.37199921 0 -11474.61962672 0 112
0.01050000 0.01054430 51349.91271891 0 -1575.95926557 0 8914.37208798 0 663.42105458 0 -8851.51827488 0 105
0.01150000 0.01145670 58880.94635872 0 66.74327405 0 6593.36166742 0 -12341.61849217 0 -8119.12217560 0 144
0.01250000 0.01249090 58643.48383206 0 -2864.00214956 0 11359.49300240 0 -3451.19229839 0 -3190.13879582 0 169
0.01350000 0.01339930 63057.11474564 0 -3679.78186750 0 27314.62346030 0 -2950.39148259 0 -26155.14973133 0 180
0.01450000 0.01448870 70890.82715017 0 3745.37520625 0 26421.56028203 0 -3631.98989985 0 -2937.64769730 0 267
0.01550000 0.01550050 62565.77472083 0 3193.93198518 0 17622.02644724 0 -7099.00933629 0 -22865.27889255 0 238
0.01650000 0.01653350 64186.08768300 0 556.36327603 0 42456.32553401 0 2887.49330470 0 10313.63749497 0 315
0.01750000 0.01747870 61948.99325854 0 -2555.02358498 0 11568.00750503 0 22739.83745506 0 -15481.86908412 0 297
0.01850000 0.01844180 71180.52921446 0 -532.19444877 0 43623.89583675 0 -496.97213462 0 15326.14867896 0 388
0.01950000 0.01947590 64488.54462378 0 2875.39280883 0 14055.87389248 0 158.53202358 0 -13784.69412710 0 399
0.02050000 0.02045430 66462.88859253 0 2481.76622913 0 38511.96316331 0 -10432.09147838 0 1443.79656273 0 462
0.02150000 0.02154770 60356.40828875 0 4133.51164345 0 35368.60703622 0 -4777.87691255 0 -7914.09030881 0 571
0.02250000 0.02255340 59089.57177332 0 3399.29658787 0 43414.05039049 0 -557.04649377 0 -17598.18037381 0 510
0.02350000 0.02348930 59442.05001233 0 62.52895195 0 49045.05108110 0 -371.94218054 0 -9247.78455944 0 555
0.02450000 0.02439640 58021.37859524 0 -1132.28920525 0 44572.52591173 0 5344.78126217 0 -18959.62479920 0 592
0.02550000 0.02547300 60866.60334836 0 689.95119768 0 44991.88406834 0 4912.62386428 0 -9787.06073746 0 837
0.02650000 0.02652900 59337.57093708 0 -1421.42561849 0 35901.20631367 0 5604.25981477 0 -19808.87774953 0 723
0.02750000 0.02749970 61581.65281562 0 1497.94378624 0 43472.61191038 0 4731.88171881 0 4619.88281202 0 826
0.02850000 0.02848090 58892.48120355 0 -350.22228956 0 25274.61960561 0 7697.14649651 0 -9030.99602389 0 831
0.02950000 0.02946900 60407.53870668 0 -975.61162980 0 31734.24362022 0 5141.98981717 0 -3811.96675273 0 996
0.03050000 0.03053250 59328.25433165 0 1974.80979902 0 21804.18408051 0 2255.19525788 0 -6632.80196376 0 1041
0.03150000 0.03150510 56120.90199816 0 1262.46658383 0 25186.33367790 0 -1085.88696457 0 -6606.14981750 0 1036
0.03250000 0.03246190 53118.07133640 0 3848.33478752 0 21321.82792523 0 61.52065123 0 -366.59289625 0 1059
0.03350000 0.03345080 48496.92412792 0 2339.47726349 0 20736.65637424 0 1468.61866150 0 -8085.26075132 0 1302
0.03450000 0.03451200 47412.09415441 0 1002.29815877 0 20208.71539951 0 5457.03526648 0 -1563.55930738 0 1339
0.03550000 0.03553350 45159.02840635 0 515.04413092 0 14211.48338567 0 4980.16925369 0 -1665.32103938 0 1365
0.03650000 0.03647120 44622.32538603 0 975.50515431 0 20321.51287247 0 4641.23336615 0 7907.28031389 0 1308
0.03750000 0.03744890 43707.30163780 0 218.68180287 0 13095.37623677 0 -623.90311985 0 1496.30228909 0 1579
0.03850000 0.03847530 43005.00704704 0 1332.88459325 0 17555.14652965 0 -2147.59955628 0 7159.78909556 0 1662
0.03950000 0.03950240 41477.30557939 0 1976.45129617 0 19019.51726272 0 -1749.05957634 0 4974.63474641 0 1683
0.04050000 0.04050350 40627.05442134 0 460.61408190 0 22267.68520098 0 -527.52061837 0 4611.79732945 0 1822
0.04150000 0.04152450 41623.59846714 0 -641.52481356 0 23675.93447749 0 919.73417957 0 4005.18649476 0 1887
0.04250000 0.04250150 40929.06771424 0 112.73758050 0 22855.85137514 0 1746.51969224 0 -166.29807968 0 1920
0.04350000 0.04349210 41916.29515460 0 381.60704956 0 24251.67851108 0 1509.38990149 0 1915.40534817 0 2005
0.04450000 0.04448520 42402.08958093 0 253.74551290 0 21448.82213029 0 691.25995892 0 783.37567693 0 2151
0.04550000 0.04548030 40963.89407266 0 -236.29240538 0 21753.71913440 0 803.60712928 0 2988.86684480 0 2274
0.04650000 0.04648670 41440.48280552 0 400.28129786 0 19392.40330412 0 2185.77545618 0 1583.17963478 0 2311
0.04750000 0.04749250 41452.01765035 0 -33.24785927 0 17413.29012068 0 3170.58501560 0 1388.77313467 0 2568
0.04850000 0.04851840 41038.42691615 0 -57.87109288 0 15509.15342861 0 1439.02734805 0 3753.02813214 0 2493
0.04950000 0.04949480 40347.44534627 0 763.49581552 0 15522.79560085 0 322.12496033 0 -155.75367874 0 2644
0.05050000 0.05050630 40105.32451689 0 70.06519845 0 14304.09488018 0 1087.27336419 0 3461.51820275 0 2829
0.05150000 0.05149060 39358.99787425 0 651.84073584 0 12121.34732077 0 774.96411317 0 -1001.20900323 0 2784
0.05250000 0.05249300 38825.28947710 0 898.98809568 0 15072.16026885 0 -399.87536005 0 988.81348152 0 3055
0.05350000 0.05348950 37906.93836979 0 1535.28784636 0 16590.87786697 0 -881.60375358 0 -2765.51232066 0 3009
0.05450000 0.05448610 35505.69423050 0 469.73326403 0 15192.83249164 0 -1768.75754212 0 -1682.59003303 0 3336
0.05550000 0.05550870 36051.38112035 0 315.26172765 0 15739.29576528 0 883.01899031 0 -5295.20361181 0 3349
0.05650000 0.05647670 35782.97415420 0 -527.11911704 0 15110.20307438 0 1710.18493104 0 -3405.62966133 0 3324
0.05750000 0.05747970 36176.93346980 0 -775.61405731 0 11360.26938619 0 2820.87957583 0 -6545.70279413 0 3639
0.05850000 0.05849280 36872.79516634 0 -15.46212675 0 12181.46160823 0 1731.73512671 0 -5511.50413469 0 3846
0.05950000 0.05951020 35568.13766932 0 1686.77141428 0 8350.96146541 0 -1222.85991953 0 -2739.65874057 0 3787
0.06050000 0.06049470 32621.53937608 0 2412.60152497 0 13129.31529943 0 -51.21537650 0 -1152.81901080 0 3930
0.06150000 0.06148310 31833.28800897 0 953.98601399 0 10899.38578820 0 1650.52538265 0 2925.97975811 0 4083
0.06250000 0.06249100 30535.95070194 0 -208.08305507 0 11671.71019649 0 3034.18547553 0 4089.31322361 0 4303
0.06350000 0.06350600 30120.80720017 0 -301.74377681 0 10649.84494806 0 2571.05036457 0 4961.91314351 0 4470
0.06450000 0.06451750 30434.02260198 0 482.99057174 0 9954.07198111 0 66.95567047 0 6579.73058637 0 4479
0.06550000 0.06550280 30675.58887152 0 76.09747865 0 11138.33453525 0 -819.06493047 0 6559.61115510 0 4636
0.06650000 0.06648880 30539.27806102 0 199.06480283 0 10918.79538286 0 -781.80294520 0 4274.65821581 0 4653
0.06750000 0.06749660 29985.16186149 0 167.78097271 0 10495.06729465 0 -713.40686098 0 3325.52903697 0 5220
0.06850000 0.06852730 30378.78844118 0 209.38737983 0 12575.64274777 0 -558.26763455 0 2206.76000080 0 5029
0.06950000 0.06949320 30312.24125949 0 -94.48723775 0 11773.30556054 0 1715.73052951 0 720.16029081 0 5040
0.07050000 0.07048030 30121.58358395 0 239.56763584 0 11986.25654194 0 221.35589045 0 3232.34080021 0 5475
0.07150000 0.07148790 29616.26865099 0 547.32838700 0 10149.14395303 0 -207.92999655 0 964.63467218 0 5509
0.07250000 0.07249820 29033.86989924 0 1132.40011722 0 12035.94510427 0 145.05954665 0 2392.48209370 0 5916
0.07350000 0.07351270 28106.53492240 0 290.60156036 0 11966.84694728 0 1255.16857624 0 3885.24629096 0 5721
0.07450000 0.07449140 28009.26512516 0 -759.13253864 0 10698.60184985 0 2229.70768729 0 4330.06983577 0 6028
0.07550000 0.07549160 28518.46197706 0 -250.40262614 0 10662.46673019 0 2583.52796113 0 5927.51274983 0 6183
0.07650000 0.07648840 28175.52216742 0 489.48335844 0 6936.47893621 0 -420.41292944 0 2478.59414681 0 6330
0.07750000 0.07749960 27452.81977427 0 829.95759499 0 9274.04851382 0 -1137.84589492 0 4284.52938110 0 6583
0.07850000 0.07848650 26847.12950893 0 332.92445879 0 8063.03399263 0 64.43453049 0 1589.51270824 0 6549
0.07950000 0.07947320 25296.91291148 0 442.97686051 0 9559.03681940 0 114.59979247 0 2568.43284209 0 6828
0.08050000 0.08048110 25501.76731911 0 403.11953516 0 7420.48767983 0 135.00870397 0 -591.14083319 0 7147
0.08150000 0.08149960 25042.92450136 0 512.89576608 0 7847.97568381 0 810.47479844 0 -965.27352512 0 7386
0.08250000 0.08250610 23686.91476247 0 357.15206941 0 6328.39297232 0 661.87050524 0 -276.04436437 0 7227
0.08350000 0.08350160 23732.61049390 0 141.67118598 0 6600.06075037 0 314.12377085 0 685.48920915 0 7798
0.08450000 0.08449610 23439.69198250 0 -67.10928355 0 4435.51384515 0 1769.56719950 0 455.64522567 0 7371
0.08550000 0.08548940 23068.02597276 0 434.77492037 0 5518.40285919 0 -133.37053418 0 -806.49084049 0 8256
0.08650000 0.08650700 22235.52072983 0 554.84045469 0 4948.12678571 0 98.62214688 0 2474.60131591 0 8037
0.08750000 0.08749060 21742.51702548 0 235.04242749 0 5963.85860223 0 492.20513817 0 1964.51716826 0 8155
0.08850000 0.08849210 21722.77469491 0 5.40503974 0 4676.64755801 0 1346.58222148 0 2821.66705081 0 8718
0.08950000 0.08949900 21573.15444808 0 439.23136330 0 5726.39607556 0 755.72199558 0 2873.45184936 0 8571
0.09050000 0.09049190 20753.07134573 0 834.91092355 0 5409.73131150 0 -1556.71603886 0 4303.71715182 0 8932
0.09150000 0.09150830 19436.54626797 0 846.26941835 0 6271.27330804 0 -585.14715035 0 4204.22911519 0 9285
0.09250000 0.09250820 18749.66844097 0 659.24965541 0 8145.36394758 0 -797.57462726 0 3187.27726701 0 9204
0.09350000 0.09350330 18132.88697868 0 418.19469005 0 6734.94079646 0 586.16421312 0 3347.24560059 0 9349
0.09450000 0.09448040 17713.63973404 0 -53.60663856 0 8076.29906418 0 841.43365648 0 1965.36009923 0 9564
0.09550000 0.09549270 17925.37068378 0 139.59935039 0 6677.16675156 0 -266.12661605 0 2154.93083746 0 10155
0.09650000 0.09649430 17625.35380633 0 -5.46550894 0 6221.17437142 0 599.68327308 0 854.76527521 0 9913
0.09750000 0.09749140 17370.47810046 0 234.65978119 0 6070.53373447 0 -542.52478960 0 885.15293661 0 10476
0.09850000 0.09850240 16937.14503569 0 237.76309810 0 5432.57917721 0 253.42275907 0 -837.14247238 0 10575
0.09950000 0.09950330 16674.72731590 0 296.85588632 0 5951.83574473 0 66.97785287 0 427.00997339 0 10882
0.10050000 0.10051200 16394.23094508 0 3.05144338 0 4901.87649443 0 839.35294793 0 -549.22498168 0 10875
0.10150000 0.10150300 16630.69526401 0 -33.03147002 0 5003.31658172 0 533.67179620 0 460.20370761 0 11118
0.10250000 0.10250800 16364.06288938 0 113.08695320 0 4156.28187079 0 55.13300909 0 263.34938034 0 11575
0.10350000 0.10349800 16416.85698685 0 134.24895698 0 4531.47488115 0 113.42856207 0 779.53146807 0 11364
0.10450000 0.10450100 16046.96556863 0 111.09053775 0 4743.09491892 0 78.92440292 0 1152.98537875 0 12093
0.10550000 0.10551000 16242.28154689 0 72.21822160 0 4843.45916011 0 -193.59240625 0 -52.55541492 0 12067
0.10650000 0.10649700 16001.15892523 0 386.53597748 0 5595.91923467 0 -943.48930520 0 102.08581677 0 12054
0.10750000 0.10749900 15679.84694964 0 227.61243465 0 5510.58356535 0 -598.88914337 0 -747.65647716 0 12807
0.10850000 0.10850100 15505.38242165 0 186.97983463 0 7005.75455234 0 -805.00018362 0 -834.56709645 0 12736
0.10950000 0.10950300 15231.20803309 0 295.58039867 0 6344.65266705 0 40.27867993 0 -1899.83330765 0 12933
0.11050000 0.11050200 15080.14593065 0 185.88402437 0 7296.85410745 0 438.19655463 0 -1609.12194445 0 13428
0.11150000 0.11150900 14365.09646340 0 306.66826826 0 5835.62218311 0 308.64361044 0 -1379.56744121 0 13453
0.11250000 0.11250000 14572.50184633 0 -19.45096482 0 6361.56674240 0 748.78001541 0 -872.57219191 0 13668
0.11350000 0.11349100 14460.14802125 0 -127.80940803 0 5461.81557236 0 713.02421469 0 -156.93710946 0 13791
0.11450000 0.11448600 14371.86209354 0 166.50659419 0 4914.42063818 0 504.00173524 0 -558.61367990 0 14205
0.11550000 0.11549300 14387.38976926 0 -80.67004641 0 4612.24097733 0 522.22235359 0 278.43562643 0 14776
0.11650000 0.11649800 14089.03657136 0 -59.98285678 0 4342.11487565 0 449.35429876 0 -616.14704583 0 14553
0.11750000 0.11747300 14242.53873712 0 199.57721613 0 3689.10956413 0 121.35876789 0 -299.60650316 0 14568
0.11850000 0.11849100 14032.36055495 0 149.68013930 0 4172.54156551 0 -15.38193740 0 24.29049770 0 16015
0.11950000 0.11950300 13939.19450059 0 65.00550531 0 3481.90382274 0 -39.51982023 0 -301.12932450 0 15270
0.12050000 0.12050700 14008.73630545 0 -72.20036477 0 4158.83284608 0 565.89061421 0 295.91978930 0 15999
0.12150000 0.12150000 13907.58458928 0 70.90535662 0 3096.46254640 0 -60.56137361 0 -528.40236853 0 15670
0.12250000 0.12250700 14057.75939596 0 12.33729293 0 3394.64937635 0 161.74957981 0 625.38490376 0 16887
0.12350000 0.12352200 13915.23751518 0 244.36457852 0 3660.12826650 0 -321.05909630 0 -430.73106996 0 16407
0.12450000 0.12449800 13358.23760444 0 401.44809178 0 3867.24527832 0 -589.89307353 0 -82.20650992 0 16306
0.12550000 0.12549900 13153.49410878 0 395.95240369 0 4920.85353241 0 -234.05309272 0 -205.29029167 0 17523
0.12650000 0.12650100 12700.41871344 0 130.98814508 0 4468.22178495 0 171.60521742 0 487.58010904 0 17154
0.12750000 0.12750600 12625.10948616 0 37.46085043 0 4534.05913004 0 518.93492281 0 197.91131834 0 18007
0.12850000 0.12850300 12609.91454634 0 -143.48570580 0 4516.08029979 0 493.17229054 0 423.28887681 0 17496
0.12950000 0.12949900 12835.73131621 0 -10.61376528 0 4367.73554060 0 90.09878385 0 524.02467309 0 18405
0.13050000 0.13049000 12773.28787739 0 373.34965343 0 4159.33194995 0 -648.99473471 0 -300.10449791 0 18100
0.13150000 0.13148800 12336.62745354 0 367.24616775 0 5201.33881204 0 -875.75758367 0 82.04358024 0 19059
0.13250000 0.13249300 11870.57535777 0 153.89035766 0 5206.30766827 0 -524.59365150 0 -960.35790663 0 18957
0.13350000 0.13349100 11911.28005057 0 70.42100405 0 5653.37163486 0 405.43981356 0 -882.81158493 0 19468
0.13450000 0.13450700 11692.89438266 0 123.86316016 0 4913.00096497 0 131.98857104 0 -1208.95155855 0 19953
0.13550000 0.13551000 11633.55647899 0 30.53739256 0 5258.82448582 0 869.09953814 0 -497.86830333 0 19956
0.13650000 0.13649900 11673.37387603 0 -38.74920387 0 4312.21300868 0 739.43900934 0 -195.52227452 0 19723
0.13750000 0.13749600 11714.07856883 0 -167.62125948 0 3621.32016838 0 886.89758189 0 258.57018357 0 20946
0.13850000 0.13851100 11660.28626364 0 -87.15163100 0 2973.30589549 0 763.38046707 0 505.23063986 0 20955
0.13950000 0.13949800 11809.68468653 0 39.93496373 0 2938.91209375 0 -23.19590747 0 421.01629056 0 20506
0.14050000 0.14048300 11683.91051314 0 113.06033433 0 2373.38305256 0 -29.81380287 0 731.92139605 0 21447
0.14150000 0.14148400 11359.49300240 0 358.67045427 0 3021.10895433 0 -545.06134634 0 14.74885188 0 21771
0.14250000 0.14249400 11055.86039475 0 263.91392226 0 2900.03744845 0 -533.36567916 0 -94.21816531 0 22470
0.14350000 0.14350900 10872.14580850 0 218.63078336 0 3583.00008293 0 -92.12581100 0 -538.61736092 0 22519
0.14450000 0.14449900 10573.83697538 0 241.41099278 0 3593.83618234 0 -165.00928260 0 -318.62125121 0 22218
0.14550000 0.14550500 10361.93965768 0 117.56779677 0 3936.22143214 0 156.50677102 0 -208.77736399 0 23559
0.14650000 0.14650700 10253.84485222 0 59.27113467 0 3722.64934370 0 345.13364840 0 45.07650990 0 23044
0.14750000 0.14750500 10178.40253058 0 -19.30012455 0 4084.95438321 0 373.34743519 0 679.96690218 0 23649
0.14850000 0.14849900 10462.11534852 0 -49.83607525 0 3429.00990450 0 327.14483607 0 567.70957051 0 23640
0.14950000 0.14949500 10350.49354243 0 37.17880129 0 3853.25927896 0 218.10616975 0 1357.50705048 0 24457
0.15050000 0.15050000 10224.78591622 0 115.88526219 0 3481.94818753 0 -315.25950942 0 819.33777392 0 24591
0.15150000 0.15149900 10207.29509863 0 183.22324623 0 4039.96848839 0 -279.41165176 0 1497.84396546 0 25020
0.15250000 0.15250500 9985.23824453 0 180.53030361 0 4054.94160427 0 -104.50746872 0 616.93452081 0 25297
0.15350000 0.15350100 9931.83413122 0 117.14633129 0 4319.75502261 0 13.51196159 0 775.01513267 0 25452
0.15450000 0.15450400 9655.95169833 0 62.26919611 0 3906.40829474 0 515.09958691 0 803.35757735 0 26061
0.15550000 0.15549900 9628.97790736 0 19.39051780 0 3534.37627551 0 437.26600320 0 649.12782907 0 26128
0.15650000 0.15649500 9506.42018108 0 64.20838099 0 3316.20134034 0 161.86049178 0 838.81280664 0 26331
0.15750000 0.15749700 9481.45389675 0 115.02014883 0 3048.79258192 0 99.88221777 0 329.68472017 0 27345
0.15850000 0.15849900 9202.05555443 0 88.94086289 0 2803.45530542 0 29.69812168 0 452.29235683 0 26980
0.15950000 0.15949700 9138.13698641 0 127.90811969 0 2632.87269636 0 39.90889942 0 158.87585068 0 27777
0.16050000 0.16050000 8922.62393851 0 6.98126519 0 2520.11958818 0 182.99587669 0 219.99500059 0 28224
0.16150000 0.16150500 9016.54419427 0 -127.75838853 0 2279.61807356 0 621.68931694 0 267.10818698 0 28075
0.16250000 0.16249700 8961.58731339 0 -19.69541480 0 1764.60943446 0 457.27008602 0 -24.38510561 0 28590
0.16350000 0.16349900 9059.13439055 0 185.98939074 0 1744.25708806 0 -64.07939037 0 947.61301222 0 29163
0.16450000 0.16449100 8823.32445223 0 210.87581846 0 1992.82190287 0 -307.80622507 0 629.19472992 0 28996
0.16550000 0.16550500 8506.27149627 0 327.55853771 0 2449.01392455 0 -344.41826619 0 1250.48809112 0 30777
0.16650000 0.16650700 8206.65390191 0 107.64727566 0 2578.88074961 0 4.64163265 0 891.53148397 0 29211
0.16750000 0.16749900 8436.00876361 0 -113.05035225 0 2585.59092377 0 415.81341007 0 1630.17303625 0 30922
0.16850000 0.16850800 8412.35124052 0 -31.88708031 0 2582.14156152 0 404.36618570 0 1114.14400704 0 30867
0.16950000 0.16949900 8541.54150257 0 36.71585473 0 2275.10395640 0 139.28657863 0 1705.33807797 0 30852
0.17050000 0.17049200 8409.68935325 0 35.31326196 0 2189.25809202 0 49.91981378 0 1477.63580462 0 31257
0.17150000 0.17149500 8433.40233232 0 49.57831583 0 2240.92088740 0 -101.03658954 0 1883.10778266 0 32608
0.17250000 0.17250900 8203.83673789 0 137.07832132 0 2165.33438020 0 45.63927723 0 1482.19428657 0 32361
0.17350000 0.17350400 8248.97790947 0 70.41124379 0 2234.18853086 0 -71.52003075 0 1207.78698287 0 32508
0.17450000 0.17449800 8086.28114143 0 113.25886676 0 2213.69199890 0 -63.63563158 0 1178.73913807 0 32791
0.17550000 0.17549800 8014.47673239 0 53.81382212 0 2368.40310513 0 6.74831678 0 1133.79760803 0 33633
0.17650000 0.17650100 7939.12314033 0 -15.82336704 0 1991.18040572 0 188.81764597 0 1029.09116324 0 33984
0.17750000 0.17750300 8058.46441949 0 -4.42396791 0 2208.66768668 0 201.23424095 0 1006.88325959 0 34069
0.17850000 0.17849800 7881.64855774 0 44.63996039 0 1882.24266930 0 81.17513952 0 1027.82787591 0 34536
