### header ###
fiducial parameters:
Omega_m = 0.31
Omega_nu = 0
Omega_de = 0.69
Omega_k = 0
H_0 = 100
w_de = -1
zeff = 0
beta = 0
fgrowth = 0
b_1 = 2
gamma = 0.55
Lx = 3500 Ly = 3500 Lz = 3500
nx = 700 ny = 700 nz = 700
xoffset = 1379.75464 yoffset = 22.6059522 zoffset = 368.141391
bins = 400 dk = 0.001
kx_ny = 0.628318531 ky_ny = 0.628318531 kz_ny = 0.628318531
############################
A(data) = 3.3849093 (not used)
A(ran) = 3.39259931 (used)
Ngal = 190509
weighted Ngal = 0
Nran = 9399747
weighted Nran = 0
SN(data) = 6573.37572
SN(ran) = 134.941936
SN(data+ran) = 6708.31766
############################
13 columns: k_central k_mean P_0(k) sigma^{lin}_{P_0(k)} P^img_1(k) sigma^{lin}_{P_1(k)} P_2(k) sigma^{lin}_{P_2(k)} P^img_3(k) sigma^{lin}_{P_3(k)} P_4(k) sigma^{lin}_{P_4(k)} N_modes
### header ###
0.00050000 0 0 0 0 0 0 0 0 0 0 0 0
0.00150000 0.00179520 126676.99682443 0 -109515.69869841 0 -185698.80138440 0 262779.29281546 0 163235.80020516 0 3
0.00250000 0.00253879 165596.00691574 0 -96990.74272069 0 -48097.30830188 0 -146887.37590348 0 -170452.84205937 0 6
0.00350000 0.00331552 234389.15598709 0 -48692.12919421 0 -140440.06311748 0 -105096.74401030 0 1634.02168159 0 7
0.00450000 0.00420575 266097.77894237 0 -2951.40078151 0 -96016.38106879 0 -128915.20036858 0 -41805.49409709 0 24
0.00550000 0.00557378 196282.02151239 0 47846.53633888 0 -25684.43933285 0 -121754.72361881 0 21614.63552467 0 45
0.00650000 0.00659388 164727.56619470 0 42236.49801050 0 79893.55171304 0 -20179.21281563 0 -61555.03394294 0 40
0.00750000 0.00754703 96217.02082159 0 25848.69995965 0 51636.39833608 0 2393.56903100 0 -37608.14152400 0 57
0.00850000 0.00846663 87181.90996363 0 20163.24149202 0 81399.51443467 0 8140.23981459 0 -37327.86697712 0 75
0.00950000 0.00948925 61987.47971195 0 10512.80211857 0 66133.59095514 0 9430.63403233 0 -14226.56741352 0 112
0.01050000 0.01054430 51952.71927305 0 1325.24275856 0 48709.98602130 0 31202.42072656 0 -6789.94204213 0 105
0.01150000 0.01145670 54139.57057533 0 -4027.04724395 0 30497.79698444 0 33166.44988215 0 -11418.94181804 0 144
0.01250000 0.01249090 61193.46092243 0 -8022.90604207 0 8455.74000298 0 23047.61817038 0 853.37332999 0 169
0.01350000 0.01339930 67197.34765444 0 -4438.92993381 0 2812.03989186 0 8934.07005376 0 14587.14222630 0 180
0.01450000 0.01448870 72453.24406426 0 -5760.41277660 0 -32110.90066859 0 9458.66148702 0 14639.04902802 0 267
0.01550000 0.01550050 67212.76441820 0 -4599.57483041 0 -14595.57153598 0 2308.16681450 0 -1499.46328022 0 238
0.01650000 0.01653350 81305.23926061 0 -228.94670564 0 -34594.77422514 0 -7729.67697716 0 2531.95389532 0 315
0.01750000 0.01747870 72331.01907389 0 2246.75485700 0 -9925.92252325 0 -14855.77101639 0 -5622.09445946 0 297
0.01850000 0.01844180 75312.11098964 0 4817.02883778 0 -11018.34996667 0 -17643.21063342 0 -1616.09830733 0 388
0.01950000 0.01947590 68983.14127507 0 3588.74532295 0 -1475.80575713 0 -9679.12120876 0 -14396.37363879 0 399
0.02050000 0.02045430 70026.60108396 0 669.88500416 0 7381.05847468 0 822.68620628 0 -2397.48422352 0 462
0.02150000 0.02154770 67011.01554571 0 1475.94994269 0 14056.53936430 0 239.99242869 0 -872.76185138 0 571
0.02250000 0.02255340 65797.19495170 0 2900.83601463 0 17895.20262808 0 -1174.11410894 0 3078.41716896 0 510
0.02350000 0.02348930 63745.10169234 0 3416.21066322 0 21063.07030043 0 3164.40721890 0 11671.15563665 0 555
0.02450000 0.02439640 58336.81223644 0 4299.19194346 0 27696.49337122 0 -1978.12606691 0 10057.69703419 0 592
0.02550000 0.02547300 60184.49473605 0 -1460.61081731 0 30717.84633189 0 6745.98762862 0 22424.62563779 0 837
0.02650000 0.02652900 57174.56570824 0 -1904.26978643 0 23799.49041150 0 11387.66464265 0 9204.51780015 0 723
0.02750000 0.02749970 60918.17741417 0 1379.73380916 0 22304.39706288 0 673.75250453 0 19709.72244881 0 826
0.02850000 0.02848090 59240.19022788 0 1140.39687022 0 14798.42952817 0 -5374.19511647 0 -693.74882351 0 831
0.02950000 0.02946900 59754.93267824 0 885.75740684 0 34512.47754378 0 -4732.64701140 0 14858.32199169 0 996
0.03050000 0.03053250 58325.49921556 0 -107.63296802 0 16664.30159077 0 2344.25756937 0 -5095.49551956 0 1041
0.03150000 0.03150510 58998.06939850 0 431.19911847 0 25633.08709098 0 384.95659104 0 -209.48830972 0 1036
0.03250000 0.03246190 57536.80420057 0 2079.78797814 0 25170.69509020 0 984.22061687 0 -6405.67643266 0 1059
0.03350000 0.03345080 56172.80879988 0 2330.14956685 0 24548.03529353 0 2210.74174051 0 -3177.06227462 0 1302
0.03450000 0.03451200 52091.58105884 0 1952.58304034 0 29885.23017699 0 -1080.24043621 0 4213.83409175 0 1339
0.03550000 0.03553350 49992.23930048 0 1372.90163184 0 23093.97937362 0 7263.18123351 0 1030.52636413 0 1365
0.03650000 0.03647120 48303.60456511 0 -355.90320063 0 24919.70130327 0 3708.94062427 0 11052.10047898 0 1308
0.03750000 0.03744890 48917.16958029 0 879.31453053 0 17658.29466127 0 6234.41726058 0 8583.05585275 0 1579
0.03850000 0.03847530 48606.39424180 0 1275.26582511 0 22823.35416808 0 2719.56149170 0 10341.90895599 0 1662
0.03950000 0.03950240 45769.59879835 0 1881.82120381 0 19804.88491862 0 -2746.97893056 0 15303.85537310 0 1683
0.04050000 0.04050350 42689.46249386 0 1694.29124581 0 20343.02979455 0 430.43382588 0 6503.68934009 0 1822
0.04150000 0.04152450 42842.18827584 0 519.73570723 0 21691.94116739 0 2449.72376115 0 12210.63145621 0 1887
0.04250000 0.04250150 40658.88615658 0 228.63282477 0 19775.27142277 0 2152.44640935 0 5144.96225795 0 1920
0.04350000 0.04349210 40898.34509869 0 -175.68566878 0 17301.37994347 0 2935.69564663 0 9467.63426535 0 2005
0.04450000 0.04448520 40514.47877231 0 -786.67308978 0 12921.02262074 0 4627.91283862 0 5676.31932134 0 2151
0.04550000 0.04548030 40637.25832253 0 425.75334077 0 12008.43893584 0 3090.15165534 0 9491.51361238 0 2274
0.04650000 0.04648670 40707.57651118 0 -968.55762854 0 7384.58547531 0 2954.97214693 0 9329.58213694 0 2311
0.04750000 0.04749250 42300.49421689 0 -1354.36824174 0 6844.73255505 0 2321.88662513 0 6503.97771121 0 2568
0.04850000 0.04851840 41639.23705483 0 830.70070519 0 3237.14328849 0 16.25248545 0 6247.17213707 0 2493
0.04950000 0.04949480 41071.58959502 0 960.85922874 0 7711.91997084 0 -2855.24010397 0 3469.82550927 0 2644
0.05050000 0.05050630 40488.08172358 0 1270.30806007 0 7168.90605945 0 -4559.93489252 0 1460.98791800 0 2829
0.05150000 0.05149060 38477.35862883 0 1962.06601373 0 7902.10072491 0 -2005.37713781 0 -2936.32784486 0 2784
0.05250000 0.05249300 36209.54158883 0 1550.21659745 0 12932.44655360 0 -2442.94703982 0 -2231.24936366 0 3055
0.05350000 0.05348950 35367.38700455 0 856.04187198 0 14153.58733760 0 344.94287981 0 -3600.01397904 0 3009
0.05450000 0.05448610 34578.69198957 0 664.52462867 0 12538.37632603 0 787.93304976 0 -3616.36240335 0 3336
0.05550000 0.05550870 32829.49931886 0 833.85615072 0 12831.62757334 0 808.44621851 0 -4172.69684227 0 3349
0.05650000 0.05647670 31989.67388594 0 790.80899713 0 13131.86627473 0 130.05204806 0 -4657.27123694 0 3324
0.05750000 0.05747970 32319.96973106 0 -136.04351265 0 11153.52947507 0 2046.37020173 0 -640.16059634 0 3639
0.05850000 0.05849280 31700.19364559 0 -547.62563108 0 9792.12941447 0 3268.71992620 0 -1957.39661982 0 3846
0.05950000 0.05951020 32558.31955348 0 -296.16046827 0 9413.49813305 0 22.81159750 0 -1261.59037927 0 3787
0.06050000 0.06049470 32534.58439201 0 595.08597194 0 7561.16842192 0 -279.53032757 0 -2150.59417946 0 3930
0.06150000 0.06148310 31999.87778713 0 536.10076833 0 10643.86679291 0 -310.65222620 0 479.78965230 0 4083
0.06250000 0.06249100 30961.07628096 0 573.13649318 0 8885.97862380 0 -774.95191285 0 -1135.71638510 0 4303
0.06350000 0.06350600 30808.35049899 0 444.17138242 0 12217.72982225 0 -842.44739188 0 -428.77680106 0 4470
0.06450000 0.06451750 30305.14289345 0 744.33688191 0 12061.01120938 0 -810.41601509 0 -2882.90154916 0 4479
0.06550000 0.06550280 29743.37376802 0 603.47646243 0 12879.87428006 0 401.68987987 0 1555.06345052 0 4636
0.06650000 0.06648880 29214.65640950 0 -174.05969931 0 12860.24286146 0 1109.67425467 0 -1373.93311316 0 4653
0.06750000 0.06749660 29828.99780846 0 -37.54858180 0 13049.12594549 0 589.42835238 0 -1179.50443066 0 5220
0.06850000 0.06852730 29286.74918966 0 202.20582980 0 12484.14037295 0 1736.60416217 0 -323.21522499 0 5029
0.06950000 0.06949320 28365.40345917 0 -18.97304515 0 9632.71564073 0 858.16472707 0 171.48875985 0 5040
0.07050000 0.07048030 28944.03120396 0 -315.80630542 0 9016.28909674 0 2154.64246634 0 414.26618809 0 5475
0.07150000 0.07148790 28923.29066567 0 157.32530135 0 7510.48165187 0 1452.91352663 0 -1253.46053191 0 5509
0.07250000 0.07249820 28242.73482092 0 582.73481502 0 5856.97273724 0 397.33769419 0 -137.79148529 0 5916
0.07350000 0.07351270 27054.97853974 0 1254.23691569 0 7815.15683204 0 -2089.69241701 0 -303.71357339 0 5721
0.07450000 0.07449140 25704.18166341 0 1103.38776424 0 6800.72268556 0 -299.13290905 0 -2272.86353461 0 6028
0.07550000 0.07549160 24827.75528057 0 391.91077152 0 8682.95426366 0 -206.76985735 0 -230.16784643 0 6183
0.07650000 0.07648840 24186.01862514 0 141.74660612 0 7567.83423129 0 236.79372749 0 -3348.47672346 0 6330
0.07750000 0.07749960 24105.49653530 0 382.97570326 0 8653.18549105 0 1152.00935342 0 212.34540205 0 6583
0.07850000 0.07848650 23470.96915789 0 464.52040147 0 7905.66099913 0 -822.08506340 0 -1650.82484497 0 6549
0.07950000 0.07947320 23229.51380033 0 209.43174461 0 7645.91625780 0 823.90512882 0 -263.60669611 0 6828
0.08050000 0.08048110 23353.06973433 0 384.53845291 0 9844.81259997 0 -1084.94088548 0 -954.85445471 0 7147
0.08150000 0.08149960 22318.48288300 0 363.59938219 0 9407.88598739 0 -720.86680005 0 -1569.80365126 0 7386
0.08250000 0.08250610 21918.86705696 0 360.60143166 0 9557.71696696 0 -597.33637580 0 -2807.53686590 0 7227
0.08350000 0.08350160 22168.30807632 0 -114.90258214 0 10325.79344683 0 -381.26654981 0 -3013.77767315 0 7798
0.08450000 0.08449610 22248.49743026 0 -92.76233480 0 8339.81481247 0 450.92924873 0 -4167.32870295 0 7371
0.08550000 0.08548940 22359.07666383 0 -38.61755136 0 9140.62141453 0 810.39383270 0 -5375.18223300 0 8256
0.08650000 0.08650700 22420.18915902 0 -165.84001325 0 7407.85480651 0 222.00361636 0 -4170.17914056 0 8037
0.08750000 0.08749060 22281.54919716 0 401.14973858 0 8794.19896905 0 851.68192246 0 -4711.87319951 0 8155
0.08850000 0.08849210 22167.97534041 0 20.35012816 0 7120.75917350 0 176.49865352 0 -2965.97461430 0 8718
0.08950000 0.08949900 21894.46642367 0 144.76562993 0 7322.20858367 0 729.74086673 0 -4021.23545674 0 8571
0.09050000 0.09049190 21634.04511933 0 482.48370404 0 7943.75926065 0 -954.26218479 0 -3481.93709633 0 8932
0.09150000 0.09150830 20966.68779895 0 457.31666905 0 8044.74460886 0 178.43295826 0 -3216.04783189 0 9285
0.09250000 0.09250820 20287.57380981 0 587.93436815 0 8684.40721046 0 -163.08385081 0 -2864.06869674 0 9204
0.09350000 0.09350330 19992.65888296 0 325.19389452 0 7750.43969784 0 45.07839540 0 -2515.52783264 0 9349
0.09450000 0.09448040 19297.35174627 0 289.05322927 0 8785.30382910 0 1233.23018867 0 -3209.44856971 0 9564
0.09550000 0.09549270 19284.70778175 0 401.92834061 0 7646.60391201 0 -264.72468876 0 -1109.53006911 0 10155
0.09650000 0.09649430 18162.38956256 0 190.97266553 0 7884.88718725 0 1235.78116397 0 -2305.28310329 0 9913
0.09750000 0.09749140 18373.23321655 0 360.48386497 0 7652.73734393 0 212.35871149 0 -502.42456704 0 10476
0.09850000 0.09850240 17440.24172926 0 261.60917154 0 6566.02186694 0 904.92521341 0 -707.67825776 0 10575
0.09950000 0.09950330 17623.02465497 0 22.60397029 0 6998.10162645 0 549.98916515 0 461.53021477 0 10882
0.10050000 0.10051200 17335.09718219 0 -90.38294031 0 5930.80683532 0 828.89616745 0 823.45038975 0 10875
0.10150000 0.10150300 17408.29908205 0 113.73911558 0 4914.59809733 0 841.75641031 0 786.44904761 0 11118
0.10250000 0.10250800 17047.28062139 0 230.29206783 0 5876.29360232 0 42.57633228 0 2189.63519272 0 11575
0.10350000 0.10349800 16720.42304732 0 269.02918230 0 5235.42206026 0 30.50367532 0 769.75568708 0 11364
0.10450000 0.10450100 16685.70760088 0 122.73296719 0 5795.18367904 0 -238.18678182 0 724.84521240 0 12093
0.10550000 0.10551000 16361.62282605 0 329.48064214 0 5171.20402993 0 -750.30394587 0 112.36380716 0 12067
0.10650000 0.10649700 15912.20752571 0 441.01260953 0 6120.85449503 0 -206.05225690 0 1216.58230205 0 12054
0.10750000 0.10749900 15657.10999590 0 38.18798930 0 5880.07570048 0 568.15100015 0 -59.15312433 0 12807
0.10850000 0.10850100 15750.05422632 0 -57.27593925 0 6162.60176034 0 538.57854173 0 -148.01424151 0 12736
0.10950000 0.10950300 15713.00962852 0 180.93180494 0 5099.25543532 0 647.14250482 0 478.56074768 0 12933
0.11050000 0.11050200 15294.42785569 0 168.74257949 0 5258.38083794 0 -17.26755179 0 171.92353477 0 13428
0.11150000 0.11150900 15190.72516422 0 113.74577030 0 5215.11407865 0 -11.69899454 0 1130.39261057 0 13453
0.11250000 0.11250000 15274.35278921 0 74.76498224 0 5615.46192369 0 402.12465479 0 656.98594211 0 13668
0.11350000 0.11349100 14886.38271997 0 109.60143365 0 5273.20976826 0 128.05674172 0 988.22564809 0 13791
0.11450000 0.11448600 15066.28193447 0 122.50670677 0 4853.33032539 0 208.43575513 0 1421.04851779 0 14205
0.11550000 0.11549300 14758.61213112 0 -129.91784457 0 5227.92441112 0 821.53494003 0 1918.01177945 0 14776
0.11650000 0.11649800 15012.71145321 0 43.17115318 0 4681.89369416 0 11.74724125 0 2013.66226193 0 14553
0.11750000 0.11747300 14786.45103546 0 267.93226292 0 4836.76007715 0 159.28844321 0 1893.94388208 0 14568
0.11850000 0.11849100 14411.45766664 0 467.46955073 0 5432.05789095 0 -542.28078327 0 1595.57959297 0 16015
0.11950000 0.11950300 13920.11764184 0 320.98922176 0 5306.59427107 0 -533.58750310 0 1604.49691532 0 15270
0.12050000 0.12050700 13728.46175857 0 93.39852585 0 5946.91125329 0 80.95387014 0 1433.58157035 0 15999
0.12150000 0.12150000 13897.15886415 0 -226.39129387 0 5103.24826623 0 647.38096555 0 755.68095815 0 15670
0.12250000 0.12250700 14003.19070698 0 -32.10236045 0 5144.87352837 0 535.86119848 0 1108.97772750 0 16887
0.12350000 0.12352200 13822.62602066 0 117.98815314 0 4877.90841783 0 -171.83591432 0 774.49717377 0 16407
0.12450000 0.12449800 13610.67324698 0 246.74142203 0 5200.83970817 0 -225.39641350 0 692.05519774 0 16306
0.12550000 0.12549900 13547.45342438 0 222.48830166 0 4865.16463253 0 -212.34207469 0 -342.72020394 0 17523
0.12650000 0.12650100 13080.84676876 0 344.09994884 0 5382.34714623 0 -418.86127099 0 274.07013131 0 17154
0.12750000 0.12750600 12841.72056256 0 74.11248713 0 4847.34107904 0 230.90984750 0 -567.82491896 0 18007
0.12850000 0.12850300 12701.41692117 0 91.19215404 0 5277.66842943 0 160.11251914 0 -659.83194325 0 17496
0.12950000 0.12949900 12501.33172822 0 162.77884289 0 4352.79569831 0 333.33372396 0 -758.85082224 0 18405
0.13050000 0.13049000 12227.37916360 0 114.48998962 0 4639.71387217 0 458.28603966 0 -1284.79316329 0 18100
0.13150000 0.13148800 12214.29155120 0 124.67281754 0 4087.06171063 0 106.03306286 0 -586.45591159 0 19059
0.13250000 0.13249300 11947.32644066 0 8.81806722 0 3867.91075013 0 459.59923738 0 -1059.82486999 0 18957
0.13350000 0.13349100 11789.05506020 0 93.18446575 0 3208.29508523 0 305.37392558 0 -298.20790323 0 19468
0.13450000 0.13450700 12003.33698524 0 -45.73920892 0 3038.26703601 0 278.88703814 0 -1114.59874611 0 19953
0.13550000 0.13551000 11754.00687785 0 36.33354117 0 2913.19160803 0 454.37195626 0 -578.42255765 0 19956
0.13650000 0.13649900 11669.82469301 0 155.49414474 0 2400.46775550 0 -218.82377019 0 -514.21118203 0 19723
0.13750000 0.13749600 11653.52063350 0 29.52177165 0 2744.84942075 0 343.11505055 0 -340.00840629 0 20946
0.13850000 0.13851100 11392.32294537 0 59.69670389 0 2253.32084559 0 294.14852514 0 -251.35092348 0 20955
0.13950000 0.13949800 11386.55552295 0 190.75195071 0 2610.41302254 0 -94.53537354 0 75.95695318 0 20506
0.14050000 0.14048300 11291.83670102 0 221.75406442 0 2553.84791810 0 -228.74262762 0 18.10981729 0 21447
0.14150000 0.14148400 10954.87504653 0 76.79910776 0 3012.24708797 0 103.31050674 0 419.44355883 0 21771
0.14250000 0.14249400 10998.78509525 0 54.54229194 0 2484.70539633 0 287.44833307 0 451.85647279 0 22470
0.14350000 0.14350900 10976.92434607 0 9.17367318 0 2889.94445922 0 -100.88486197 0 631.78230616 0 22519
0.14450000 0.14449900 10882.20552413 0 133.65003235 0 2860.73024646 0 62.64241489 0 535.75472299 0 22218
0.14550000 0.14550500 10788.52927470 0 242.73639081 0 3228.43669889 0 -382.29581289 0 863.97984163 0 23559
0.14650000 0.14650700 10528.54052704 0 82.39140018 0 3122.27176170 0 -103.06483673 0 85.07114427 0 23044
0.14750000 0.14750500 10446.74294955 0 198.61117287 0 3901.70562723 0 -231.66959450 0 280.00613992 0 23649
0.14850000 0.14849900 10326.43673625 0 244.66958644 0 4080.83954914 0 -668.43205736 0 -34.99461188 0 23640
0.14950000 0.14949500 10021.81701207 0 169.99255739 0 4265.16415123 0 44.71138770 0 68.35748686 0 24457
0.15050000 0.15050000 9933.99691463 0 63.92089716 0 4004.69848209 0 501.19122594 0 229.69536144 0 24591
0.15150000 0.15149900 9844.84587356 0 -18.61136122 0 3825.02109153 0 660.93108086 0 336.35274777 0 25020
0.15250000 0.15250500 9700.01702381 0 43.73968793 0 3503.52056560 0 611.18484431 0 923.47967678 0 25297
0.15350000 0.15350100 9713.30427775 0 111.71053566 0 2972.36314375 0 530.69824630 0 1593.89373104 0 25452
0.15450000 0.15450400 9430.16820206 0 133.09990898 0 2778.01209962 0 475.32211817 0 1685.81757134 0 26061
0.15550000 0.15549900 9209.05409970 0 16.41940796 0 2485.33759455 0 94.68011366 0 1856.51109238 0 26128
0.15650000 0.15649500 9095.05877747 0 86.11194219 0 2126.57064687 0 98.86826054 0 1510.31047083 0 26331
0.15750000 0.15749700 9164.66712951 0 91.68948332 0 2261.51724014 0 -74.75278193 0 1395.78277115 0 27345
0.15850000 0.15849900 9098.85196682 0 20.38595273 0 1842.94655851 0 -123.04241158 0 1145.49882081 0 26980
0.15950000 0.15949700 8987.58507904 0 68.32598786 0 2331.97961435 0 -286.78951597 0 230.97084909 0 27777
0.16050000 0.16050000 8968.38621712 0 119.71505250 0 2154.04354171 0 -498.81438243 0 186.02931905 0 28224
0.16150000 0.16150500 9059.06784337 0 -50.53814801 0 2372.55121279 0 91.24827550 0 -487.49803418 0 28075
0.16250000 0.16249700 8935.74482450 0 -33.92697326 0 2242.75093490 0 160.08700939 0 -458.13519938 0 28590
0.16350000 0.16349900 9086.85129172 0 55.03695932 0 2279.71789433 0 43.38543510 0 -246.16357067 0 29163
0.16450000 0.16449100 8927.70370671 0 41.20313119 0 2033.51550447 0 383.95838331 0 -341.20403732 0 28996
0.16550000 0.16550500 8985.56648119 0 110.26557452 0 2060.53366024 0 140.35133354 0 206.81644037 0 30777
0.16650000 0.16650700 8794.68698171 0 105.10883341 0 1961.26744755 0 168.32776872 0 218.52319875 0 29211
0.16750000 0.16749900 8615.69724536 0 84.12295785 0 2077.35900601 0 81.80134850 0 833.78960354 0 30922
0.16850000 0.16850800 8710.41606730 0 -10.52682139 0 1712.99100387 0 303.21779689 0 708.36923933 0 30867
0.16950000 0.16949900 8592.84937965 0 52.65678846 0 1637.60413821 0 172.94281577 0 1008.78096339 0 30852
0.17050000 0.17049200 8537.95904595 0 84.22288953 0 1509.93337014 0 19.99886995 0 599.36162836 0 31257
0.17150000 0.17149500 8500.35988830 0 63.15715734 0 1705.06079805 0 70.74786162 0 878.29857689 0 32608
0.17250000 0.17250900 8373.16604170 0 162.75000578 0 1698.09552636 0 -92.26844380 0 999.43108436 0 32361
0.17350000 0.17350400 8214.63956372 0 66.93215714 0 1738.97767831 0 -118.35970823 0 872.24056512 0 32508
0.17450000 0.17449800 8118.17942386 0 45.33637665 0 1752.50893859 0 211.50358020 0 778.67190031 0 32791
0.17550000 0.17549800 8156.47732692 0 49.94432533 0 1668.03838263 0 62.19233412 0 864.84717323 0 33633
0.17650000 0.17650100 7886.68396115 0 136.92969928 0 1728.82923311 0 -70.98022220 0 1023.45239871 0 33984
0.17750000 0.17750300 8037.94570513 0 58.38605715 0 1897.77034502 0 192.65630923 0 1219.10000376 0 34069
0.17850000 0.17849800 7802.00267245 0 -15.20714014 0 1926.56309230 0 99.62756388 0 1230.22447430 0 34536
