### header ###
fiducial parameters:
Omega_m = 0.31
Omega_nu = 0
Omega_de = 0.69
Omega_k = 0
H_0 = 100
w_de = -1
zeff = 0
beta = 0
fgrowth = 0
b_1 = 2
gamma = 0.55
Lx = 3500 Ly = 3500 Lz = 3500
nx = 700 ny = 700 nz = 700
xoffset = 1379.75464 yoffset = 22.6059522 zoffset = 368.141391
bins = 400 dk = 0.001
kx_ny = 0.628318531 ky_ny = 0.628318531 kz_ny = 0.628318531
############################
A(data) = 3.30400099 (not used)
A(ran) = 3.3039838 (used)
Ngal = 186149
weighted Ngal = 0
Nran = 9399747
weighted Nran = 0
SN(data) = 6635.40331
SN(ran) = 131.41722
SN(data+ran) = 6766.82053
############################
13 columns: k_central k_mean P_0(k) sigma^{lin}_{P_0(k)} P^img_1(k) sigma^{lin}_{P_1(k)} P_2(k) sigma^{lin}_{P_2(k)} P^img_3(k) sigma^{lin}_{P_3(k)} P_4(k) sigma^{lin}_{P_4(k)} N_modes
### header ###
0.00050000 0 0 0 0 0 0 0 0 0 0 0 0
0.00150000 0.00179520 -1076.78441924 0 -1819.01175549 0 -9480.88824570 0 9947.78327244 0 -1010.69197662 0 3
0.00250000 0.00253879 8965.08104043 0 -7091.98860862 0 -893.15634433 0 -7432.28871338 0 12606.03262741 0 6
0.00350000 0.00331552 13793.01252481 0 -7947.63008838 0 -3242.05668874 0 -4259.27472565 0 -13415.91182857 0 7
0.00450000 0.00420575 26503.30240353 0 -7924.64912831 0 3820.50697438 0 -13343.81904841 0 -2583.58341712 0 24
0.00550000 0.00557378 41125.82554810 0 -9543.67551163 0 678.22336602 0 -3838.16415992 0 5262.22948328 0 45
0.00650000 0.00659388 67651.97581735 0 -7998.97123906 0 20739.76190939 0 -13177.22927024 0 -31426.46290491 0 40
0.00750000 0.00754703 60021.56505288 0 -4489.83852781 0 1151.80971188 0 -20543.22589947 0 -31108.47828841 0 57
0.00850000 0.00846663 74413.61312486 0 4691.82031543 0 33693.94720901 0 -15405.45073714 0 -37499.44779391 0 75
0.00950000 0.00948925 75033.61103427 0 -2292.82768912 0 31699.86090968 0 -25633.08709098 0 -39657.12924822 0 112
0.01050000 0.01054430 81682.33995685 0 -2683.21563930 0 47192.04480696 0 125.14308429 0 -40493.51641008 0 105
0.01150000 0.01145670 80870.79707615 0 -134.68040454 0 41721.86647210 0 18747.89384946 0 -31732.46902871 0 144
0.01250000 0.01249090 80346.51619641 0 5219.05145356 0 32442.19472143 0 -3975.91682601 0 -32212.38512066 0 169
0.01350000 0.01339930 88775.82587705 0 -513.29504917 0 23534.07806853 0 7642.92163463 0 -16324.35640430 0 180
0.01450000 0.01448870 74898.52025544 0 3341.13435108 0 23186.03630829 0 7594.25346242 0 -14096.24584937 0 267
0.01550000 0.01550050 68346.39565828 0 174.81500982 0 8627.34300216 0 8226.35186769 0 -26078.28773648 0 238
0.01650000 0.01653350 65608.75551555 0 5458.39948370 0 22138.69458047 0 -12813.21618640 0 -14058.31395581 0 315
0.01750000 0.01747870 63327.18539133 0 6509.13511779 0 17707.76139965 0 1857.20983778 0 -15485.08553123 0 297
0.01850000 0.01844180 61184.25522896 0 -2581.70900483 0 17529.85860060 0 7199.51776303 0 -16127.26583453 0 388
0.01950000 0.01947590 59761.36557247 0 373.60031448 0 20953.04562670 0 -2686.77591353 0 -23922.93543353 0 399
0.02050000 0.02045430 58948.38083617 0 3633.13229313 0 23477.40205212 0 -3789.35180215 0 -10049.20117733 0 462
0.02150000 0.02154770 58054.98492199 0 1359.95820500 0 26380.85558923 0 -592.83778632 0 -6560.02152939 0 571
0.02250000 0.02255340 60260.91308302 0 -50.81753527 0 32646.71639315 0 381.51166527 0 -1364.99360842 0 510
0.02350000 0.02348930 58682.19210941 0 -2449.41320764 0 26821.61975595 0 10325.44961972 0 -6986.12313375 0 555
0.02450000 0.02439640 64199.95167918 0 -3338.77192613 0 33127.51978086 0 7225.02751601 0 3171.86050325 0 592
0.02550000 0.02547300 66760.68723059 0 -3338.90502049 0 21115.97530987 0 5879.84278534 0 7345.62210043 0 837
0.02650000 0.02652900 71219.12657984 0 1859.15079725 0 15789.20615155 0 7621.98145479 0 512.66285094 0 723
0.02750000 0.02749970 68243.80208651 0 2773.84180957 0 22507.36596703 0 -7889.47894279 0 13258.74956781 0 826
0.02850000 0.02848090 63702.40058409 0 4210.51782386 0 20542.56042765 0 -3085.91481810 0 -508.76762257 0 831
0.02950000 0.02946900 61819.00443031 0 1973.23484906 0 32700.06505048 0 1778.83944015 0 5922.35534325 0 996
0.03050000 0.03053250 57360.23234515 0 1858.88460852 0 25109.36077108 0 1804.19391637 0 4816.34118357 0 1041
0.03150000 0.03150510 56475.48756459 0 3241.57976727 0 26680.31790683 0 41.21133868 0 2171.27926177 0 1036
0.03250000 0.03246190 52763.70759390 0 2391.92753385 0 33013.94592411 0 2827.31247006 0 12158.05918267 0 1059
0.03350000 0.03345080 51095.14792501 0 416.56095674 0 25731.90965578 0 7386.61516435 0 5702.49454614 0 1302
0.03450000 0.03451200 49930.46133348 0 160.97097779 0 25746.10638788 0 3355.97437259 0 10852.52548109 0 1339
0.03550000 0.03553350 48477.95818114 0 1487.86188821 0 24498.12490726 0 1495.18207820 0 6647.81944443 0 1365
0.03650000 0.03647120 47294.19473085 0 1427.81414793 0 23895.87291298 0 2930.06131858 0 10092.32375107 0 1308
0.03750000 0.03744890 46117.08599874 0 648.00207258 0 21573.81991990 0 -278.87594695 0 10352.78942020 0 1579
0.03850000 0.03847530 45497.42082524 0 527.41081552 0 21971.88297837 0 1738.15692974 0 7588.94077908 0 1662
0.03950000 0.03950240 43782.94360099 0 925.11230097 0 21102.11131369 0 3274.03260954 0 8280.04435212 0 1683
0.04050000 0.04050350 43743.01529197 0 438.49490783 0 20482.44614019 0 1940.24962933 0 6409.42525723 0 1822
0.04150000 0.04152450 42251.47112638 0 399.74781129 0 19224.81531823 0 397.88116284 0 3358.56971268 0 1887
0.04250000 0.04250150 42229.84329233 0 958.90052336 0 17704.32312860 0 -319.45863658 0 2596.53793515 0 1920
0.04350000 0.04349210 41143.90419913 0 665.94430188 0 18194.66494568 0 552.80743829 0 5152.02735040 0 2005
0.04450000 0.04448520 41781.53711168 0 -1000.68549874 0 16703.67533993 0 4062.11760870 0 7186.50778901 0 2151
0.04550000 0.04548030 42208.43728222 0 -1326.54042860 0 16794.62315491 0 6560.42081248 0 6502.26966688 0 2274
0.04650000 0.04648670 43613.24828768 0 -32.73367138 0 11800.25716912 0 4007.24945739 0 9709.76618593 0 2311
0.04750000 0.04749250 43118.46999182 0 1048.90115011 0 8789.74030788 0 -1269.69804424 0 7365.00951269 0 2568
0.04850000 0.04851840 41387.91053199 0 1770.65413680 0 14408.01939559 0 -346.52670273 0 12478.70568645 0 2493
0.04950000 0.04949480 39417.78121807 0 1657.76793426 0 12152.40267223 0 -905.50306477 0 8911.56601515 0 2644
0.05050000 0.05050630 36448.00232322 0 843.27701341 0 12450.53404620 0 1296.68292641 0 6664.86661414 0 2829
0.05150000 0.05149060 36657.95868145 0 993.38194555 0 13687.20250592 0 -2229.84078165 0 1917.65686115 0 2784
0.05250000 0.05249300 34991.28451604 0 229.08312737 0 12997.44096771 0 139.57494976 0 4268.65787827 0 3055
0.05350000 0.05348950 34909.09874665 0 451.29082175 0 11075.46963095 0 1515.39023904 0 -1082.99216217 0 3009
0.05450000 0.05448610 35112.06765081 0 -506.55492878 0 8580.66015420 0 1205.72402024 0 1267.86799674 0 3336
0.05550000 0.05550870 33681.30324448 0 543.89677067 0 9174.52720360 0 2633.94854246 0 -1612.01674685 0 3349
0.05650000 0.05647670 33747.40677830 0 904.08671892 0 6380.92088107 0 441.22001492 0 1195.29829511 0 3324
0.05750000 0.05747970 32445.63299248 0 410.72698715 0 7861.65112964 0 37.32143408 0 1006.65367182 0 3639
0.05850000 0.05849280 31635.31014345 0 906.79629833 0 7764.21496445 0 -965.84361265 0 710.77159259 0 3846
0.05950000 0.05951020 31159.94144224 0 129.36661208 0 10203.57954765 0 -451.73446962 0 3671.41910500 0 3787
0.06050000 0.06049470 31797.13070692 0 -288.61845435 0 10323.09828597 0 -571.67467342 0 -1985.43516570 0 3930
0.06150000 0.06148310 31641.41030177 0 526.58784871 0 10837.59673000 0 -400.50977652 0 1855.73470859 0 4083
0.06250000 0.06249100 30916.48966923 0 376.07586964 0 11684.90872086 0 -239.58316352 0 165.32649083 0 4303
0.06350000 0.06350600 32089.27283454 0 -622.69085202 0 10601.09913747 0 1873.69135645 0 2826.81336619 0 4470
0.06450000 0.06451750 31962.38954145 0 -641.73443718 0 9904.57196913 0 2494.94257111 0 59.55174195 0 4479
0.06550000 0.06550280 32933.09109836 0 46.87916214 0 8193.25573600 0 1086.27626559 0 2299.70423123 0 4636
0.06650000 0.06648880 33176.76469531 0 202.49198268 0 8589.74384451 0 11.25756490 0 2044.35160389 0 4653
0.06750000 0.06749660 31391.08198665 0 691.91544866 0 6537.75040592 0 -14.69095583 0 1352.48273826 0 5220
0.06850000 0.06852730 31227.37591969 0 847.73789282 0 8556.31497690 0 -2195.22515598 0 -113.53503756 0 5029
0.06950000 0.06949320 30221.29344452 0 333.48567336 0 6978.76967017 0 293.29006650 0 -2720.47096985 0 5040
0.07050000 0.07048030 29539.85030402 0 1024.90423639 0 10236.75331773 0 -883.15873940 0 -385.68971916 0 5475
0.07150000 0.07148790 28350.65216723 0 512.49204651 0 9173.59554306 0 -866.77815062 0 -3354.97616487 0 5509
0.07250000 0.07249820 27638.70823512 0 637.36117823 0 10752.66034377 0 -162.35737741 0 -3981.29605653 0 5916
0.07350000 0.07351270 26596.80119381 0 1184.69511083 0 10564.19872523 0 -1380.80965527 0 -4326.28773761 0 5721
0.07450000 0.07449140 25591.38419045 0 744.24593410 0 12338.73478096 0 172.53465973 0 -3079.03827599 0 6028
0.07550000 0.07549160 24697.76645233 0 497.62651524 0 12074.32064571 0 341.61995720 0 -2765.49013827 0 6183
0.07650000 0.07648840 24466.29317202 0 316.82669554 0 12823.30917563 0 1496.74593697 0 -2351.54448577 0 6330
0.07750000 0.07749960 23668.61428751 0 503.90413271 0 11345.73991818 0 13.62631183 0 -2186.27456004 0 6583
0.07850000 0.07848650 23685.69473081 0 51.89193951 0 11157.85504188 0 1345.43982820 0 1068.71113698 0 6549
0.07950000 0.07947320 23109.17431344 0 -318.77098237 0 10475.46914964 0 2045.92655386 0 1146.16429263 0 6828
0.08050000 0.08048110 24128.67713692 0 -205.17937970 0 9772.73091100 0 1194.45536414 0 802.02996108 0 7147
0.08150000 0.08149960 23249.92160271 0 415.32761564 0 9010.59931271 0 38.42578456 0 1104.39706316 0 7386
0.08250000 0.08250610 23440.24654234 0 398.31704688 0 9686.97377620 0 -746.03161681 0 907.03032259 0 7227
0.08350000 0.08350160 22520.56449140 0 383.43931530 0 9783.44500725 0 -532.52607555 0 -202.67055095 0 7798
0.08450000 0.08449610 22079.57850074 0 582.46529893 0 10311.85181226 0 -982.75990623 0 -1020.82489416 0 7371
0.08550000 0.08548940 21744.95708881 0 325.35804424 0 10375.08272606 0 -539.87288441 0 -2897.35337878 0 8256
0.08650000 0.08650700 21551.19387812 0 -164.94828101 0 10826.17279714 0 931.03167278 0 -2109.25728843 0 8037
0.08750000 0.08749060 21628.05587297 0 -15.46589776 0 10353.52143920 0 -219.22638064 0 -4897.88366353 0 8155
0.08850000 0.08849210 21603.65523969 0 565.79744816 0 9466.61387523 0 -523.62095352 0 -3605.08265605 0 8718
0.08950000 0.08949900 20766.93534191 0 503.00020016 0 10079.59105697 0 62.84017093 0 -3887.99690781 0 8571
0.09050000 0.09049190 20376.74703327 0 49.94865090 0 9686.19739241 0 1288.55307905 0 -3421.34588741 0 8932
0.09150000 0.09150830 20218.80838873 0 371.19130651 0 8782.64194183 0 1236.66845973 0 -3997.84412238 0 9285
0.09250000 0.09250820 19344.15659740 0 740.42279851 0 8628.07502116 0 218.17826253 0 -2619.07524735 0 9204
0.09350000 0.09350330 18166.27148149 0 572.13273986 0 8382.58246791 0 647.01939253 0 -1108.05050344 0 9349
0.09450000 0.09448040 17685.02444591 0 -238.46738910 0 7430.15920357 0 1805.73559275 0 176.88573629 0 9564
0.09550000 0.09549270 18323.65556619 0 -629.79365455 0 5281.93854026 0 2472.68253883 0 -299.63977675 0 10155
0.09650000 0.09649430 18536.49563563 0 -204.91651834 0 4048.77489877 0 1652.77689563 0 895.20045192 0 9913
0.09750000 0.09749140 18243.79894816 0 363.04593147 0 3075.87728486 0 -1.51988217 0 1329.66814614 0 10476
0.09850000 0.09850240 17757.33905001 0 534.18531862 0 3288.20715924 0 -659.60346459 0 844.85307250 0 10575
0.09950000 0.09950330 17179.04404113 0 558.94530668 0 3016.75011393 0 -526.94387613 0 676.48759370 0 10882
0.10050000 0.10051200 16484.29146430 0 438.32521251 0 3577.70958198 0 105.70742531 0 671.80599947 0 10875
0.10150000 0.10150300 15952.35765866 0 100.74344921 0 4022.64403876 0 320.32596818 0 833.28495408 0 11118
0.10250000 0.10250800 15941.04463777 0 258.21304703 0 3550.46960228 0 486.46766199 0 1479.61003768 0 11575
0.10350000 0.10349800 15339.56902727 0 186.50956788 0 3594.04691509 0 326.36956140 0 825.83943357 0 11364
0.10450000 0.10450100 14878.06432225 0 566.82892948 0 3882.35148856 0 -654.37951083 0 1301.67396504 0 12093
0.10550000 0.10551000 14697.05598806 0 200.34250872 0 4409.41625874 0 -555.21311891 0 1070.96597732 0 12067
0.10650000 0.10649700 14184.53177708 0 59.37217547 0 4514.23916109 0 355.48173515 0 462.71253636 0 12054
0.10750000 0.10749900 14543.55382230 0 -121.44527922 0 4723.71859785 0 -63.21394427 0 518.92826810 0 12807
0.10850000 0.10850100 14447.39314475 0 118.31312521 0 3993.25236684 0 -37.82186889 0 -1029.14218275 0 12736
0.10950000 0.10950300 14686.40843899 0 214.19874106 0 4691.74267705 0 -509.49631421 0 -537.00470088 0 12933
0.11050000 0.11050200 14130.96129582 0 122.33812058 0 4620.44846307 0 -460.96789108 0 -1291.48115504 0 13428
0.11150000 0.11150900 14135.06503869 0 167.31957892 0 5598.73639869 0 -173.24671457 0 -34.08779561 0 13453
0.11250000 0.11250000 14047.99914265 0 -17.85183605 0 4823.07354012 0 402.46626366 0 -1986.20045829 0 13668
0.11350000 0.11349100 14382.39873064 0 -167.02011660 0 4810.91758826 0 829.37641627 0 304.52433989 0 13791
0.11450000 0.11448600 14442.40210613 0 -265.40014265 0 4135.43042052 0 758.31400831 0 -570.15185208 0 14205
0.11550000 0.11549300 14564.62709650 0 118.33419848 0 4388.33189334 0 257.68843342 0 1440.02555577 0 14776
0.11650000 0.11649800 14455.26789459 0 310.54575071 0 3955.88612433 0 -99.76099098 0 512.69723365 0 14553
0.11750000 0.11747300 14199.72671690 0 146.34057989 0 4642.93031928 0 -533.52206504 0 1599.57242387 0 14568
0.11850000 0.11849100 14024.70762906 0 114.39904180 0 4997.28297058 0 268.33930985 0 1432.68318339 0 16015
0.11950000 0.11950300 14145.82349973 0 32.34181939 0 4624.74075629 0 195.01429770 0 1130.23733381 0 15270
0.12050000 0.12050700 14045.55907932 0 15.31006644 0 4921.39700106 0 92.01068438 0 1123.52715966 0 15999
0.12150000 0.12150000 14028.47863602 0 282.43289381 0 5089.02935174 0 -13.10225278 0 1050.41177114 0 15670
0.12250000 0.12250700 13622.20809181 0 65.61175014 0 4989.70768307 0 -115.88304395 0 1276.98496063 0 16887
0.12350000 0.12352200 13729.45996630 0 48.52032655 0 4985.47084583 0 -41.92527902 0 400.53861363 0 16407
0.12450000 0.12449800 13723.35980797 0 54.55160854 0 4759.46552562 0 219.77317665 0 438.32853987 0 16306
0.12550000 0.12549900 13542.24056181 0 -121.69039468 0 4010.37717493 0 339.69008893 0 -180.36282653 0 17523
0.12650000 0.12650100 13934.97984575 0 -62.44809712 0 4442.40147846 0 368.76344349 0 99.36281701 0 17154
0.12750000 0.12750600 13633.29928876 0 271.97500421 0 3930.37637134 0 -548.18351829 0 -701.54149849 0 18007
0.12850000 0.12850300 13232.68525499 0 669.86947648 0 4932.78766033 0 -733.64274982 0 -734.28936660 0 17496
0.12950000 0.12949900 12792.47564811 0 240.40834857 0 4977.31881608 0 -283.32129868 0 -698.84522851 0 18405
0.13050000 0.13049000 12253.33256446 0 66.96409978 0 5111.71084950 0 583.99699323 0 -654.95625307 0 18100
0.13150000 0.13148800 12147.63345754 0 243.25324059 0 5237.42956690 0 586.59898804 0 487.88955344 0 19059
0.13250000 0.13249300 11898.63608605 0 181.75144439 0 4919.84423349 0 587.29662432 0 646.12211470 0 18957
0.13350000 0.13349100 11856.48953765 0 -185.52799695 0 4489.27287676 0 1364.50559575 0 1997.49129678 0 19468
0.13450000 0.13450700 11733.59907546 0 -33.44262069 0 3283.10520864 0 914.26511036 0 2247.56451438 0 19953
0.13550000 0.13551000 11961.41226078 0 5.29631273 0 3087.21248814 0 58.93917514 0 2749.49663227 0 19956
0.13650000 0.13649900 11787.83502854 0 158.98898089 0 2874.87152257 0 236.75269006 0 2642.64404087 0 19723
0.13750000 0.13749600 11561.02005095 0 135.79174248 0 2760.37709647 0 -368.33643241 0 2179.97476017 0 20946
0.13850000 0.13851100 11560.79822701 0 -19.55311475 0 2739.27054868 0 73.76400172 0 2404.90423428 0 20955
0.13950000 0.13949800 11446.44798647 0 56.54669305 0 2922.92967895 0 -25.16925323 0 1863.65382321 0 20506
0.14050000 0.14048300 11613.48141251 0 82.42888842 0 2536.68983642 0 73.77975122 0 1651.20194567 0 21447
0.14150000 0.14148400 11199.33611847 0 221.69639020 0 2864.27942948 0 -33.32804862 0 1812.65649964 0 21771
0.14250000 0.14249400 11147.42931675 0 207.27007033 0 3329.16694957 0 -423.33324160 0 1871.15147235 0 22470
0.14350000 0.14350900 10902.46914095 0 195.04535305 0 3524.60493099 0 54.73272779 0 1789.35389485 0 22519
0.14450000 0.14449900 10589.03191519 0 288.97226353 0 4053.36665430 0 -438.82875285 0 1573.24192232 0 22218
0.14550000 0.14550500 10491.95066831 0 77.49452581 0 3739.47468947 0 66.40388342 0 2268.63778858 0 23559
0.14650000 0.14650700 10297.98781608 0 2.70067318 0 4258.33197391 0 588.58098493 0 1661.40584686 0 23044
0.14750000 0.14750500 10488.13529656 0 34.32359446 0 3698.19325443 0 130.83619568 0 2282.98979743 0 23649
0.14850000 0.14849900 10366.87524032 0 131.59372443 0 3914.47159492 0 1.44967490 0 1464.98074891 0 23640
0.14950000 0.14949500 10237.37442475 0 151.45916729 0 3594.31310381 0 -219.85968798 0 2268.31614387 0 24457
0.15050000 0.15050000 9995.48651051 0 28.15533619 0 3940.53590775 0 11.87822828 0 1569.71492169 0 24591
0.15150000 0.15149900 10067.12455160 0 77.95880332 0 3853.66965325 0 122.72076687 0 1886.20222661 0 25020
0.15250000 0.15250500 10061.14639644 0 -31.21029548 0 3695.58682315 0 222.51048406 0 938.96742420 0 25297
0.15350000 0.15350100 10049.81119316 0 3.92824686 0 3352.12572725 0 74.33420015 0 1379.94454190 0 25452
0.15450000 0.15450400 9936.18188043 0 91.06759990 0 3393.71771581 0 102.99207848 0 942.12176061 0 26061
0.15550000 0.15549900 9982.64290444 0 154.53919268 0 3371.65732508 0 -157.64472782 0 995.49481857 0 26128
0.15650000 0.15649500 9628.92245137 0 168.92336600 0 3231.84169635 0 251.35757820 0 1126.08922615 0 26331
0.15750000 0.15749700 9444.03219825 0 114.15836283 0 3263.42942526 0 103.09711211 0 1031.58224608 0 27345
0.15850000 0.15849900 9304.78222056 0 108.84911776 0 3267.38898257 0 373.24428706 0 1267.12488655 0 26980
0.15950000 0.15949700 9171.15547973 0 153.01193486 0 2950.19184105 0 41.17673414 0 1179.00532679 0 27777
0.16050000 0.16050000 8983.39260659 0 152.84113043 0 3140.96042855 0 49.88598563 0 1118.12574674 0 28224
0.16150000 0.16150500 8776.40868914 0 91.91297093 0 2994.35698729 0 -59.60165234 0 1079.85002608 0 28075
0.16250000 0.16249700 8800.17712420 0 37.52007742 0 2821.33431490 0 142.33998515 0 844.17207300 0 28590
0.16350000 0.16349900 8684.65121679 0 97.19781537 0 2724.69671589 0 189.79810778 0 970.88567078 0 29163
0.16450000 0.16449100 8532.39126509 0 76.52460064 0 2608.69388701 0 21.03390045 0 715.21694433 0 28996
0.16550000 0.16550500 8444.06097259 0 43.41915234 0 2193.10673736 0 416.73730677 0 834.61146123 0 30777
0.16650000 0.16650700 8248.83372391 0 50.28027769 0 2171.86709520 0 293.60062001 0 956.58800879 0 29211
0.16750000 0.16749900 8321.76943504 0 45.90280407 0 1632.64637317 0 355.86659968 0 1068.93628828 0 30922
0.16850000 0.16850800 8201.14157703 0 -77.32937789 0 1808.36420642 0 375.67436831 0 1277.36206133 0 30867
0.16950000 0.16949900 8278.73559088 0 91.33534140 0 1253.70453824 0 -209.52047419 0 1478.45655320 0 30852
0.17050000 0.17049200 8188.37560934 0 45.81351994 0 1318.36621645 0 148.15731795 0 1154.07231605 0 31257
0.17150000 0.17149500 8207.56338006 0 -8.24656003 0 1331.25418730 0 -20.82937878 0 1125.49030152 0 32608
0.17250000 0.17250900 8145.27521800 0 140.81050910 0 1319.51970093 0 -101.56708149 0 997.41692300 0 32361
0.17350000 0.17350400 8020.86526183 0 146.39603588 0 1698.68335980 0 -143.79625931 0 949.24785465 0 32508
0.17450000 0.17449800 7887.73762486 0 50.02928390 0 1221.06314562 0 -71.33624962 0 649.20879481 0 32791
0.17550000 0.17549800 7848.14205176 0 100.53282738 0 1853.53865159 0 37.93710643 0 599.88069638 0 33633
0.17650000 0.17650100 7711.13249586 0 53.81947863 0 1511.26431377 0 -27.98120440 0 662.79551107 0 33984
0.17750000 0.17750300 7731.96176373 0 105.31568424 0 1834.22887771 0 -68.77218671 0 547.75872544 0 34069
0.17850000 0.17849800 7483.90714398 0 121.19129081 0 1589.78998816 0 -163.51308013 0 367.47131905 0 34536
