### header ###
fiducial parameters:
Omega_m = 0.31
Omega_nu = 0
Omega_de = 0.69
Omega_k = 0
H_0 = 100
w_de = -1
zeff = 0
beta = 0
fgrowth = 0
b_1 = 2
gamma = 0.55
Lx = 3500 Ly = 3500 Lz = 3500
nx = 700 ny = 700 nz = 700
xoffset = 1379.75464 yoffset = 22.6059522 zoffset = 368.141391
bins = 400 dk = 0.001
kx_ny = 0.628318531 ky_ny = 0.628318531 kz_ny = 0.628318531
############################
A(data) = 3.35375379 (not used)
A(ran) = 3.3524671 (used)
Ngal = 188511
weighted Ngal = 0
Nran = 9399747
weighted Nran = 0
SN(data) = 6671.77989
SN(ran) = 133.345662
SN(data+ran) = 6805.12555
############################
13 columns: k_central k_mean P_0(k) sigma^{lin}_{P_0(k)} P^img_1(k) sigma^{lin}_{P_1(k)} P_2(k) sigma^{lin}_{P_2(k)} P^img_3(k) sigma^{lin}_{P_3(k)} P_4(k) sigma^{lin}_{P_4(k)} N_modes
### header ###
0.00050000 0 0 0 0 0 0 0 0 0 0 0 0
0.00150000 0.00179520 14204.38501962 0 -15471.44335898 0 -23438.13921492 0 7352.96447281 0 -40339.90333235 0 3
0.00250000 0.00253879 28333.12807605 0 -17148.09960165 0 -15840.11474554 0 -5932.83652436 0 7920.20155833 0 6
0.00350000 0.00331552 36473.84481211 0 -13898.37889582 0 -30078.54973979 0 -13764.61906062 0 12287.27162712 0 7
0.00450000 0.00420575 47577.68572485 0 -13077.29758574 0 -36629.45430529 0 -12568.32255779 0 -5825.31846115 0 24
0.00550000 0.00557378 64209.93375644 0 -13343.04266462 0 -54333.33378601 0 -9414.23015205 0 -10088.88548001 0 45
0.00650000 0.00659388 65963.56290592 0 -299.69745098 0 -33045.99948329 0 -38503.09020575 0 -2884.95342060 0 40
0.00750000 0.00754703 74717.51192124 0 -253.11442379 0 -60248.93459032 0 -24295.48873902 0 -9748.29700413 0 57
0.00850000 0.00846663 71398.47123449 0 -2626.14033981 0 -21737.63689882 0 -25153.06008706 0 -28342.11194558 0 75
0.00950000 0.00948925 69910.69807585 0 -727.67679498 0 -22156.99505543 0 -25965.49026351 0 -32194.19555767 0 112
0.01050000 0.01054430 83994.85452055 0 -5649.67826627 0 -14555.53231500 0 -8281.22001900 0 -25012.20188581 0 105
0.01150000 0.01145670 77364.64789688 0 3122.47140324 0 -1694.65725531 0 -15683.17430873 0 -19965.37453846 0 144
0.01250000 0.01249090 85504.81007309 0 5789.72681014 0 10460.66240172 0 -6473.13309250 0 -16449.02145800 0 169
0.01350000 0.01339930 82749.53492721 0 -493.45067959 0 30933.57011253 0 1253.62689986 0 -3731.52230126 0 180
0.01450000 0.01448870 80893.42311792 0 572.36676411 0 23174.16872756 0 -1876.58615885 0 11164.39884808 0 267
0.01550000 0.01550050 84252.17028975 0 6041.45261608 0 47364.06927163 0 14774.91619064 0 -7762.48473773 0 238
0.01650000 0.01653350 76366.77290744 0 1295.08579405 0 44379.42817286 0 -2122.64436315 0 23792.94660530 0 315
0.01750000 0.01747870 75386.64383313 0 8793.21185252 0 50988.22878643 0 10282.44904915 0 16976.74060880 0 297
0.01850000 0.01844180 69459.73000794 0 4644.37217489 0 71463.90929648 0 -1990.70348425 0 33230.33517657 0 388
0.01950000 0.01947590 64671.32754948 0 7613.59650990 0 65630.38334960 0 4410.08173055 0 11028.42077350 0 399
0.02050000 0.02045430 56044.26182725 0 4386.09147155 0 67659.96147915 0 10537.26929904 0 33742.52665164 0 462
0.02150000 0.02154770 54481.17944133 0 -1907.94097262 0 60951.78374093 0 18757.21045490 0 31570.75937721 0 571
0.02250000 0.02255340 58006.51639133 0 -2170.35869242 0 57116.44783623 0 12893.96010019 0 20667.44730529 0 510
0.02350000 0.02348930 64411.23898105 0 -4464.24004525 0 35365.16876516 0 20270.60427848 0 24983.36477375 0 555
0.02450000 0.02439640 61763.32662163 0 -1380.11090986 0 40308.73706893 0 2094.08453101 0 14629.28877471 0 592
0.02550000 0.02547300 64675.98585220 0 2853.09950296 0 28777.10868989 0 -2900.04853964 0 19993.43526674 0 837
0.02650000 0.02652900 64259.95505467 0 96.68041103 0 38839.81894510 0 4717.08606208 0 5812.21975755 0 723
0.02750000 0.02749970 63298.34827926 0 1213.96477957 0 33068.73643703 0 -4107.15895950 0 4084.12254344 0 826
0.02850000 0.02848090 61689.01560208 0 1891.20435643 0 36061.58502154 0 3186.65615998 0 -2220.72381776 0 831
0.02950000 0.02946900 61526.08591891 0 270.29246963 0 37274.51831980 0 1463.57216689 0 7118.16383342 0 996
0.03050000 0.03053250 60330.12215198 0 -86.38534020 0 35546.95348314 0 3949.03176461 0 5076.49629919 0 1041
0.03150000 0.03150510 58738.31356597 0 1384.71375659 0 32361.67263158 0 4621.26921164 0 -1668.16038580 0 1036
0.03250000 0.03246190 60405.98593910 0 2939.47774479 0 38595.59078830 0 -347.50938278 0 8851.66246044 0 1059
0.03350000 0.03345080 52353.55513076 0 3295.50516683 0 29657.19516773 0 -477.82872868 0 -1566.62047774 0 1302
0.03450000 0.03451200 53083.68862586 0 1576.95747330 0 40824.36681505 0 1014.11582912 0 472.83436270 0 1339
0.03550000 0.03553350 48171.84114537 0 1298.08041723 0 27821.49116083 0 2026.81642152 0 -4973.65872108 0 1365
0.03650000 0.03647120 49608.04023819 0 703.35934567 0 42594.85458389 0 856.92916773 0 -5568.75689334 0 1308
0.03750000 0.03744890 46854.09603595 0 -45.58892320 0 20418.33902183 0 4806.11509998 0 -6216.63807187 0 1579
0.03850000 0.03847530 48067.80571799 0 -1099.60455696 0 26324.51230873 0 7459.90579378 0 -4860.85015692 0 1662
0.03950000 0.03950240 49300.48134682 0 -1125.20193040 0 17528.41674500 0 4497.66891285 0 -956.63902830 0 1683
0.04050000 0.04050350 49094.96146737 0 -782.53496420 0 11100.40264169 0 7549.06792605 0 -4213.27953190 0 1822
0.04150000 0.04152450 49838.18257487 0 951.25092482 0 10649.46784737 0 -474.34609284 0 -3783.57328854 0 1887
0.04250000 0.04250150 47473.87212142 0 2563.50835064 0 6771.79684392 0 -5051.67420042 0 -2897.61956751 0 1920
0.04350000 0.04349210 43162.28021976 0 3252.03876599 0 17875.23847357 0 -1187.86719315 0 -178.45181330 0 2005
0.04450000 0.04448520 40916.53466169 0 1395.82713593 0 15330.91789365 0 -3275.09736445 0 -642.53965808 0 2151
0.04550000 0.04548030 40223.55667636 0 -81.00843883 0 19502.98253769 0 6061.68295931 0 -63.61222915 0 2274
0.04650000 0.04648670 39778.24511889 0 119.64961444 0 15143.14392932 0 1372.06979207 0 -257.15383772 0 2311
0.04750000 0.04749250 40198.37965929 0 319.73037091 0 15345.89100953 0 -20.00042272 0 3282.83901992 0 2568
0.04850000 0.04851840 40501.83480779 0 -652.32763939 0 15109.75942650 0 4296.37477944 0 3703.71667051 0 2493
0.04950000 0.04949480 39256.29339051 0 521.85412585 0 16479.30042567 0 -1638.81307868 0 2739.92492930 0 2644
0.05050000 0.05050630 39774.58502390 0 969.68227591 0 14234.44216335 0 -160.78353656 0 2254.31905332 0 2829
0.05150000 0.05149060 38832.16601921 0 947.72725155 0 17608.71701091 0 -1795.78678908 0 672.63007540 0 2784
0.05250000 0.05249300 38375.09779297 0 -509.25896260 0 13702.06470983 0 2710.87708449 0 182.28049448 0 3055
0.05350000 0.05348950 38456.83991448 0 -209.16333765 0 15109.64851453 0 1455.63086988 0 -2580.41133479 0 3009
0.05450000 0.05448610 37519.19012448 0 1123.98189873 0 12354.48428063 0 -496.49299491 0 -2160.68716868 0 3336
0.05550000 0.05550870 37097.94646438 0 1201.22099428 0 13123.10422914 0 -1073.98611025 0 -2661.19961336 0 3349
0.05650000 0.05647670 33954.25760138 0 1296.83820317 0 13411.69717373 0 -229.63768721 0 -1781.91170170 0 3324
0.05750000 0.05747970 33272.03807710 0 1186.41424635 0 15299.64071826 0 368.49947301 0 -4135.36387334 0 3639
0.05850000 0.05849280 32227.69097245 0 -76.87386243 0 12272.07668730 0 1351.09633864 0 -1123.76007479 0 3846
0.05950000 0.05951020 31973.81347431 0 -192.31137300 0 13566.19754722 0 2871.54416349 0 -1100.39868666 0 3787
0.06050000 0.06049470 32712.26536712 0 -222.45613719 0 11438.90597255 0 -201.42500954 0 -1531.36156264 0 3930
0.06150000 0.06148310 32367.77278991 0 -68.56910689 0 10693.16716334 0 1067.52992451 0 -1478.33455003 0 4083
0.06250000 0.06249100 33047.99589874 0 724.37827301 0 11731.26992410 0 -592.11020380 0 -2118.39643472 0 4303
0.06350000 0.06350600 31841.38458274 0 579.73797360 0 11690.23249540 0 -1181.86685561 0 -1011.37186700 0 4470
0.06450000 0.06451750 31231.92331044 0 470.14142008 0 12587.73215245 0 2190.37830291 0 468.84264092 0 4479
0.06550000 0.06550280 30462.63789011 0 101.37010184 0 11927.58411009 0 920.16673625 0 -284.06995448 0 4636
0.06650000 0.06648880 30772.63684481 0 871.98879495 0 10615.76169984 0 1808.64148635 0 280.06159590 0 4653
0.06750000 0.06749660 28795.40916485 0 974.61120383 0 12824.52920729 0 -598.72610278 0 1898.32490487 0 5220
0.06850000 0.06852730 28562.27220500 0 131.83107605 0 11197.11787908 0 661.44349416 0 4920.76480284 0 5029
0.06950000 0.06949320 28488.95939317 0 -198.36938478 0 11849.50208357 0 1658.97687473 0 1891.04907967 0 5040
0.07050000 0.07048030 28473.43171745 0 -162.82875328 0 10868.95154377 0 602.14662792 0 4063.92547380 0 5475
0.07150000 0.07148790 28502.49065345 0 -84.28488932 0 8989.72568005 0 197.67174849 0 1044.07204296 0 5509
0.07250000 0.07249820 29095.98060215 0 227.41833871 0 11297.49321146 0 -799.17841434 0 3544.52472071 0 5916
0.07350000 0.07351270 28112.96781663 0 805.99950047 0 11312.46632734 0 -1371.31559068 0 296.31241767 0 5721
0.07450000 0.07449140 28218.22327567 0 121.57393711 0 11388.21920250 0 112.66770596 0 3065.03009425 0 6028
0.07550000 0.07549160 27504.94839993 0 -49.76231879 0 11776.30018371 0 1364.69414610 0 1138.23408681 0 6183
0.07650000 0.07648840 28290.42696780 0 -202.51194684 0 10386.63975328 0 2417.55929000 0 1529.07677607 0 6330
0.07750000 0.07749960 28286.10140099 0 -42.24880924 0 9282.18945238 0 444.78028914 0 1695.01217361 0 6583
0.07850000 0.07848650 27722.33586011 0 492.78188041 0 9453.52626283 0 308.19996256 0 3244.15292496 0 6549
0.07950000 0.07947320 27249.18539830 0 782.47396262 0 9227.98677289 0 -470.66048810 0 1978.35898205 0 6828
0.08050000 0.08048110 25671.57354439 0 917.26860649 0 8916.66796575 0 -847.17556914 0 56.27551328 0 7147
0.08150000 0.08149960 24831.19355162 0 1084.54714798 0 10668.68889168 0 -1396.24860142 0 184.31462001 0 7386
0.08250000 0.08250610 23456.88333777 0 643.96598601 0 10933.53558360 0 -824.37872293 0 -2259.57628067 0 7227
0.08350000 0.08350160 22755.58695473 0 482.07222064 0 10287.69518531 0 689.44100262 0 -3071.39644130 0 7798
0.08450000 0.08449610 22290.08941881 0 104.51035243 0 9759.66548100 0 435.23076856 0 -3500.73667516 0 7371
0.08550000 0.08548940 21966.55920383 0 29.29284935 0 8738.63207234 0 1263.50915634 0 -4192.03988975 0 8256
0.08650000 0.08650700 21870.06579038 0 366.42652830 0 8725.12299446 0 510.89047767 0 -2896.67681577 0 8037
0.08750000 0.08749060 21315.50594297 0 406.41140241 0 7803.63307841 0 -506.04362460 0 -5031.84314027 0 8155
0.08850000 0.08849210 20824.60956604 0 347.62362211 0 7475.57765507 0 137.16705090 0 -4038.99246306 0 8718
0.08950000 0.08949900 20413.90254305 0 267.25680902 0 8672.48417374 0 -494.71285780 0 -4269.02388776 0 8571
0.09050000 0.09049190 19879.19593818 0 285.91552965 0 7644.33021664 0 414.55345009 0 -4781.53700755 0 8932
0.09150000 0.09150830 19846.03325930 0 149.61026475 0 7392.41586035 0 751.10251205 0 -4359.27295733 0 9285
0.09250000 0.09250820 19073.97503974 0 102.01194940 0 7587.76511220 0 275.64175392 0 -4478.71405727 0 9204
0.09350000 0.09350330 19098.04293711 0 591.97821856 0 7369.92291294 0 -308.93974539 0 -3870.62809338 0 9349
0.09450000 0.09448040 18868.12242438 0 440.93386204 0 7439.05434352 0 -91.38502996 0 -3719.92090925 0 9564
0.09550000 0.09549270 18079.98196924 0 -4.70403172 0 7964.16706303 0 622.16956577 0 -1435.88853931 0 10155
0.09650000 0.09649430 18159.39493939 0 -12.98069326 0 7179.35396698 0 857.30405019 0 -3013.65566998 0 9913
0.09750000 0.09749140 18303.69141168 0 53.20391720 0 8215.16084997 0 702.98113585 0 -822.48434649 0 10476
0.09850000 0.09850240 18266.53590191 0 74.29416093 0 6861.20298252 0 447.78267615 0 -316.02369289 0 10575
0.09950000 0.09950330 18087.63489513 0 209.89202929 0 6548.53104935 0 550.21542557 0 923.55620604 0 10882
0.10050000 0.10051200 18026.96604782 0 157.17335195 0 7964.93235562 0 214.26085177 0 1695.08981199 0 10875
0.10150000 0.10150300 17740.81316656 0 79.23329276 0 6625.63705054 0 829.31763293 0 1842.88001133 0 11118
0.10250000 0.10250800 17639.21780251 0 166.40122781 0 7666.81207285 0 372.40690169 0 2452.10836849 0 11575
0.10350000 0.10349800 17262.78257809 0 372.24829757 0 6538.90389040 0 17.59363298 0 1929.70190104 0 11364
0.10450000 0.10450100 16617.60765161 0 490.55144070 0 7579.21379936 0 -33.65035880 0 2220.87909452 0 12093
0.10550000 0.10551000 16364.17380135 0 502.74510263 0 7308.14494594 0 19.27971674 0 2577.99345386 0 12067
0.10650000 0.10649700 15299.64071826 0 330.80271282 0 7039.84889176 0 230.37414269 0 2346.49799115 0 12054
0.10750000 0.10749900 15403.78705760 0 78.17763263 0 6706.83570339 0 456.55581294 0 2017.59963685 0 12807
0.10850000 0.10850100 14838.46874915 0 202.30010498 0 6940.36085514 0 605.57269865 0 1851.53114495 0 12736
0.10950000 0.10950300 14542.11196669 0 316.02258377 0 5884.56763524 0 81.35825518 0 2100.51742524 0 12933
0.11050000 0.11050200 14326.38818605 0 9.77070122 0 5751.57309264 0 443.62125906 0 1427.54795921 0 13428
0.11150000 0.11150900 14409.68307513 0 121.92663717 0 5771.54833834 0 -66.35275301 0 1271.25081181 0 13453
0.11250000 0.11250000 13683.65332290 0 261.88201498 0 5398.48483779 0 122.60430931 0 990.75665923 0 13668
0.11350000 0.11349100 14306.42403154 0 -301.87798030 0 5101.81750182 0 478.21581146 0 1842.32545148 0 13791
0.11450000 0.11448600 14446.06220112 0 -528.04190463 0 4203.33072824 0 1294.24286309 0 525.39665416 0 14205
0.11550000 0.11549300 15156.45336565 0 -275.98669014 0 3294.87296861 0 733.24568497 0 946.16893838 0 14776
0.11650000 0.11649800 14913.44524052 0 259.68595799 0 3593.49235524 0 -748.80108869 0 1017.50751715 0 14553
0.11750000 0.11747300 14515.16035811 0 608.27784159 0 3669.58905750 0 -833.22838897 0 1014.63822450 0 14568
0.11850000 0.11849100 14082.38185319 0 467.50171521 0 4876.01182315 0 -346.86831160 0 920.31646741 0 16015
0.11950000 0.11950300 13725.91078327 0 74.49812805 0 4706.98198166 0 -311.99315191 0 406.98370818 0 15270
0.12050000 0.12050700 13854.23593196 0 -53.11008567 0 5347.97552689 0 845.84573462 0 1064.70499664 0 15999
0.12150000 0.12150000 13612.44783849 0 112.31722414 0 4315.10781108 0 61.13035201 0 541.46003470 0 15670
0.12250000 0.12250700 13810.31479205 0 34.60076347 0 5101.97277858 0 532.27208714 0 2037.06468750 0 16887
0.12350000 0.12352200 13446.41262018 0 11.57887688 0 4697.47682587 0 398.50116075 0 1703.38602731 0 16407
0.12450000 0.12449800 13518.94904822 0 234.02647385 0 4458.99390909 0 -38.71459933 0 2095.49311302 0 16306
0.12550000 0.12549900 13334.94609085 0 103.80861240 0 4867.72669903 0 72.15655455 0 2050.15229989 0 17523
0.12650000 0.12650100 13062.10264592 0 238.35647714 0 4802.22208985 0 -134.53289162 0 1932.71870661 0 17154
0.12750000 0.12750600 12950.41429265 0 70.93596832 0 5014.21922832 0 44.53925232 0 2244.01533135 0 18007
0.12850000 0.12850300 12872.11044220 0 -81.67379974 0 4578.57919459 0 360.55928511 0 1643.88175568 0 17496
0.12950000 0.12949900 12860.57559737 0 41.55893679 0 4517.93252968 0 477.53924844 0 2110.08912820 0 18405
0.13050000 0.13049000 12916.25340605 0 76.53347360 0 4248.15025511 0 -78.15911033 0 1260.74744830 0 18100
0.13150000 0.13148800 13030.49273462 0 -32.44352567 0 4232.09020193 0 32.80620781 0 2150.88255058 0 19059
0.13250000 0.13249300 12806.11782036 0 125.11979277 0 4447.18178434 0 -226.47558696 0 1027.26777046 0 18957
0.13350000 0.13349100 12820.98002427 0 57.58815644 0 3953.25751065 0 -217.69468634 0 949.97765541 0 19468
0.13450000 0.13450700 12804.23231688 0 133.78423583 0 4520.12858667 0 -57.30732734 0 -59.17464125 0 19953
0.13550000 0.13551000 12637.30980280 0 296.10833964 0 4819.96800497 0 -593.60086067 0 171.19817049 0 19956
0.13650000 0.13649900 12059.23661786 0 378.77213962 0 4604.79878418 0 -181.17026567 0 -363.87888036 0 19723
0.13750000 0.13749600 11915.16196951 0 143.72083917 0 4900.33481806 0 311.53619460 0 -135.82057959 0 20946
0.13850000 0.13851100 11589.19169120 0 -67.93446860 0 4338.88733734 0 838.54661791 0 -347.97077657 0 20955
0.13950000 0.13949800 11874.34636474 0 96.65057571 0 4025.84939467 0 538.29460709 0 -127.28812178 0 20506
0.14050000 0.14048300 11473.73233097 0 83.76193938 0 3556.76940214 0 166.31360736 0 91.37981710 0 21447
0.14150000 0.14148400 11159.40780945 0 167.58133117 0 3117.18090230 0 192.82156806 0 -72.76357575 0 21771
0.14250000 0.14249400 11052.14484377 0 154.98616792 0 2990.67470991 0 -105.10295508 0 81.20974405 0 22470
0.14350000 0.14350900 10796.55930129 0 109.93716418 0 2808.37979687 0 135.30816629 0 -893.87838125 0 22519
0.14450000 0.14449900 10788.85091941 0 129.44535958 0 3098.23713791 0 -190.96601082 0 -517.09045676 0 22218
0.14550000 0.14550500 10506.12521801 0 121.66932140 0 2827.26810527 0 -230.72240628 0 -478.15702811 0 23559
0.14650000 0.14650700 10557.55509826 0 22.28188193 0 3414.19206537 0 80.01677491 0 -1027.55281423 0 23044
0.14750000 0.14750500 10509.50803308 0 45.10279604 0 3054.12744765 0 232.94840950 0 -685.68995981 0 23649
0.14850000 0.14849900 10505.27119584 0 -25.42157797 0 2573.21314797 0 569.45310667 0 -372.20282367 0 23640
0.14950000 0.14949500 10521.03178671 0 11.00471889 0 3071.19679975 0 350.16239709 0 147.31105963 0 24457
0.15050000 0.15050000 10538.64460746 0 54.83376859 0 2664.61570202 0 91.11007919 0 445.60658331 0 24591
0.15150000 0.15149900 10247.62269073 0 264.33649687 0 3158.50670213 0 -325.40573638 0 806.58511567 0 25020
0.15250000 0.15250500 10118.45461108 0 275.31012713 0 3167.59039243 0 -408.20706720 0 410.40423332 0 25297
0.15350000 0.15350100 9739.93424163 0 99.60460511 0 3662.45741786 0 323.06327559 0 736.49762391 0 25452
0.15450000 0.15450400 9790.09972542 0 111.12159310 0 3548.66173717 0 -122.48230614 0 523.25494402 0 26061
0.15550000 0.15549900 9730.51781542 0 58.59268615 0 3462.61623125 0 98.29174012 0 426.51863336 0 26128
0.15650000 0.15649500 9594.73938238 0 -13.88750952 0 3701.34315436 0 205.08066805 0 805.44604974 0 26331
0.15750000 0.15749700 9515.85878968 0 70.15093340 0 2907.24672646 0 205.72063012 0 459.18331749 0 27345
0.15850000 0.15849900 9539.13921208 0 6.27762856 0 3192.82286548 0 400.28795258 0 816.57162940 0 26980
0.15950000 0.15949700 9527.51563767 0 120.46370829 0 2562.93160840 0 61.41173568 0 483.72480898 0 27777
0.16050000 0.16050000 9175.09285464 0 222.58368596 0 2883.14555549 0 82.54978247 0 697.63628804 0 28224
0.16150000 0.16150500 9040.50117968 0 227.67121800 0 3003.60704555 0 -303.09468460 0 804.48222472 0 28075
0.16250000 0.16249700 8802.19572205 0 56.08319193 0 2791.01098244 0 359.82061139 0 609.20506566 0 28590
0.16350000 0.16349900 8809.95955991 0 -126.24111278 0 2655.46546454 0 469.88632255 0 950.25049886 0 29163
0.16450000 0.16449100 8781.00044468 0 -1.13742443 0 1855.04705438 0 378.92630726 0 732.28185995 0 28996
0.16550000 0.16550500 8901.28447558 0 98.71631114 0 1993.22118596 0 -75.45485469 0 814.29460666 0 30777
0.16650000 0.16650700 8557.47955258 0 186.27332539 0 1891.14890044 0 -207.86566761 0 654.96512602 0 29211
0.16750000 0.16749900 8350.45127035 0 250.09650911 0 2135.06650373 0 51.59658094 0 746.76807228 0 30922
0.16850000 0.16850800 8267.65548513 0 59.42075491 0 1999.44334745 0 52.18008881 0 626.25999920 0 30867
0.16950000 0.16949900 8166.99178163 0 -23.09575397 0 1648.08531932 0 192.70400138 0 556.86127078 0 30852
0.17050000 0.17049200 8124.39049415 0 96.60332721 0 1975.61945640 0 46.41488464 0 294.49900697 0 31257
0.17150000 0.17149500 7843.78321136 0 147.16243759 0 1542.45275959 0 -225.35648519 0 303.84888600 0 32608
0.17250000 0.17250900 7960.09659375 0 67.46675283 0 1884.97110374 0 17.17250023 0 396.54356449 0 32361
0.17350000 0.17350400 7733.74744644 0 11.33797608 0 1867.10318546 0 96.15635197 0 -23.04118528 0 32508
0.17450000 0.17449800 7846.92202009 0 -25.42934180 0 1684.48662771 0 126.10801842 0 279.06449729 0 32791
0.17550000 0.17549800 7950.42507002 0 -23.05005823 0 1589.66798500 0 -20.09003959 0 -186.02155522 0 33633
0.17650000 0.17650100 7849.52845138 0 119.20929392 0 1713.98921159 0 -190.84068029 0 107.88728916 0 33984
0.17750000 0.17750300 7753.96669847 0 153.21712200 0 1838.62099170 0 -232.68665726 0 81.21517874 0 34069
0.17850000 0.17849800 7752.18101576 0 -50.14363414 0 1775.83372577 0 203.52457312 0 451.72559667 0 34536
