### header ###
fiducial parameters:
Omega_m = 0.31
Omega_nu = 0
Omega_de = 0.69
Omega_k = 0
H_0 = 100
w_de = -1
zeff = 0
beta = 0
fgrowth = 0
b_1 = 2
gamma = 0.55
Lx = 3500 Ly = 3500 Lz = 3500
nx = 700 ny = 700 nz = 700
xoffset = 1379.75464 yoffset = 22.6059522 zoffset = 368.141391
bins = 400 dk = 0.001
kx_ny = 0.628318531 ky_ny = 0.628318531 kz_ny = 0.628318531
############################
A(data) = 3.3632681 (not used)
A(ran) = 3.35849084 (used)
Ngal = 188285
weighted Ngal = 0
Nran = 9399747
weighted Nran = 0
SN(data) = 6629.03731
SN(ran) = 133.585259
SN(data+ran) = 6762.62257
############################
13 columns: k_central k_mean P_0(k) sigma^{lin}_{P_0(k)} P^img_1(k) sigma^{lin}_{P_1(k)} P_2(k) sigma^{lin}_{P_2(k)} P^img_3(k) sigma^{lin}_{P_3(k)} P_4(k) sigma^{lin}_{P_4(k)} N_modes
### header ###
0.00050000 0 0 0 0 0 0 0 0 0 0 0 0
0.00150000 0.00179520 -567.51436545 0 -5695.58473044 0 -8557.26881984 0 10416.73017060 0 5318.90549969 0 3
0.00250000 0.00253879 9808.50002116 0 -9702.77873185 0 -6542.49743821 0 -4321.98435319 0 -13883.62760388 0 6
0.00350000 0.00331552 19729.13204347 0 -12637.97527462 0 -29358.50923391 0 24769.52649659 0 33640.15490381 0 7
0.00450000 0.00420575 36652.41308297 0 -15483.42185169 0 -17934.57637725 0 -14587.03131433 0 4075.84851052 0 24
0.00550000 0.00557378 59779.55513547 0 -9739.46841135 0 -26921.32961651 0 -24448.21452100 0 814.56966835 0 45
0.00650000 0.00659388 52673.86889862 0 2080.22053482 0 -10200.35200934 0 -12572.86994854 0 -55922.81322066 0 40
0.00750000 0.00754703 72277.22676870 0 1086.57683702 0 -1836.91294737 0 -40673.52653655 0 1977.64914544 0 57
0.00850000 0.00846663 55063.02363324 0 5892.69748261 0 6526.91430650 0 -6984.94746687 0 -30084.09533827 0 75
0.00950000 0.00948925 57591.70562546 0 7007.32950231 0 38116.45108014 0 -2688.40631948 0 -5040.82700980 0 112
0.01050000 0.01054430 56821.08926150 0 -7794.21665220 0 11600.39380012 0 10267.83085157 0 -7968.82536575 0 105
0.01150000 0.01145670 71180.64012643 0 -9824.87062786 0 16902.87323712 0 25522.72968134 0 -19173.35216439 0 144
0.01250000 0.01249090 77915.32582536 0 -4352.79569831 0 13338.71709781 0 -13738.99839567 0 -6506.78378404 0 169
0.01350000 0.01339930 69153.61297217 0 4368.83356910 0 -1007.76168239 0 -1065.29393920 0 -11911.61278648 0 180
0.01450000 0.01448870 76769.60518060 0 5235.31114829 0 22263.24872220 0 -2931.78045411 0 11178.15193230 0 267
0.01550000 0.01550050 65318.05524353 0 -700.08411521 0 4033.35813501 0 -2255.76090892 0 -31776.27925666 0 238
0.01650000 0.01653350 80189.79758353 0 -9607.07279338 0 14875.73517090 0 18106.15719403 0 3360.15575384 0 315
0.01750000 0.01747870 72322.03520437 0 1892.40220570 0 3378.73350873 0 -3659.25206195 0 -19285.92781342 0 297
0.01850000 0.01844180 77544.87984728 0 5627.83969948 0 10493.30379433 0 -10879.49927207 0 2438.05582196 0 388
0.01950000 0.01947590 71262.82589581 0 4443.97642843 0 16013.02650597 0 -4629.65415654 0 -20537.56938902 0 399
0.02050000 0.02045430 72242.40041028 0 -354.28388588 0 22797.95532707 0 -4105.18472645 0 -1627.11186590 0 462
0.02150000 0.02154770 63517.17759505 0 4146.82107979 0 24944.87832034 0 -1144.72243703 0 -16355.41175576 0 571
0.02250000 0.02255340 62293.59674772 0 6465.92381448 0 26910.79297941 0 -9924.34757328 0 -9061.36372114 0 510
0.02350000 0.02348930 59116.52338190 0 1039.83853309 0 38334.28218820 0 -902.08364875 0 -3699.62401884 0 555
0.02450000 0.02439640 61382.45491843 0 -1589.73453218 0 33962.24326318 0 12217.72982225 0 -13295.12869380 0 592
0.02550000 0.02547300 58146.93094469 0 1673.18469802 0 34939.82136220 0 1807.05544518 0 2409.09670673 0 837
0.02650000 0.02652900 60236.73427367 0 3170.00827336 0 33292.88952736 0 3006.89003984 0 -1482.59356966 0 723
0.02750000 0.02749970 52023.37019761 0 729.50240600 0 35793.62170327 0 7301.02439750 0 7667.39990629 0 826
0.02850000 0.02848090 54100.86229798 0 839.64353729 0 29007.14011459 0 8345.03876624 0 8886.13390055 0 831
0.02950000 0.02946900 53234.41799238 0 -126.58826725 0 28227.53988110 0 5946.19032549 0 15457.35753886 0 996
0.03050000 0.03053250 50576.30173177 0 1459.44624163 0 23648.20648512 0 2154.43173360 0 9853.29736563 0 1041
0.03150000 0.03150510 49418.71350629 0 1273.09195050 0 20894.92775470 0 2096.52459433 0 10662.87710448 0 1036
0.03250000 0.03246190 48462.87415329 0 978.90904265 0 20096.69431033 0 1846.62883589 0 15827.35986905 0 1059
0.03350000 0.03345080 45090.48480921 0 -866.06609578 0 16768.78066602 0 4991.81501049 0 4010.67663725 0 1302
0.03450000 0.03451200 48284.30588242 0 307.49678067 0 13072.30654711 0 -1110.97192471 0 3492.14099753 0 1339
0.03550000 0.03553350 47782.09648461 0 280.09819685 0 13094.04529313 0 535.59390063 0 -3960.31151191 0 1365
0.03650000 0.03647120 45995.19374428 0 1287.47723295 0 12229.48649102 0 -2334.66368401 0 -301.31343837 0 1308
0.03750000 0.03744890 44721.70251068 0 1107.31293884 0 17554.25923389 0 -4826.35653441 0 -5523.12770909 0 1579
0.03850000 0.03847530 44815.64494884 0 -217.10685290 0 12258.87816293 0 3260.32389011 0 -8779.86914259 0 1662
0.03950000 0.03950240 44215.16754606 0 -708.30269215 0 15408.66718426 0 130.90939758 0 -8961.96441409 0 1683
0.04050000 0.04050350 45533.24539139 0 1863.69818800 0 16162.97948871 0 -3505.48370746 0 -7819.26057491 0 1822
0.04150000 0.04152450 43106.15876321 0 1573.43047267 0 15906.66192723 0 -1366.70165275 0 -11154.30585886 0 1887
0.04250000 0.04250150 41824.68186781 0 623.09789895 0 19685.98728734 0 -1328.79194158 0 -12258.54542702 0 1920
0.04350000 0.04349210 40977.64715687 0 -293.85571754 0 16896.21851895 0 3106.28934689 0 -7282.92356408 0 2005
0.04450000 0.04448520 41728.63210224 0 15.45292106 0 17258.90065916 0 2142.93016237 0 -14370.75297384 0 2151
0.04550000 0.04548030 41976.74217797 0 758.26631616 0 12160.94289388 0 1030.50972733 0 -9885.65038713 0 2274
0.04650000 0.04648670 39706.26325070 0 1228.82698348 0 14973.22679207 0 -1070.41252659 0 -8769.83160935 0 2311
0.04750000 0.04749250 37436.11705934 0 906.49350866 0 13206.73185413 0 678.25553050 0 -10910.01115488 0 2568
0.04850000 0.04851840 38290.13922435 0 845.41650530 0 14025.15127694 0 912.12783671 0 -5053.09387363 0 2493
0.04950000 0.04949480 35547.39713102 0 832.74037631 0 12869.78129084 0 -239.30588359 0 -11777.18747947 0 2644
0.05050000 0.05050630 35654.09444566 0 663.02509885 0 14438.63109917 0 1455.83051142 0 -1095.09376716 0 2829
0.05150000 0.05149060 34204.58591650 0 -161.01645170 0 13939.74906043 0 2067.37692875 0 -2540.22792825 0 2784
0.05250000 0.05249300 36510.22393810 0 -551.51087737 0 11318.78830960 0 3570.08992968 0 60.19458773 0 3055
0.05350000 0.05348950 35845.19576908 0 -72.61118271 0 12331.74732688 0 2768.07438716 0 -1454.61047976 0 3009
0.05450000 0.05448610 34710.78814522 0 1380.90947604 0 12051.47278000 0 -1632.06963093 0 5305.66261053 0 3336
0.05550000 0.05550870 33615.86518249 0 1414.23852287 0 14039.12618509 0 -1173.80355542 0 4489.50579190 0 3349
0.05650000 0.05647670 32184.10256844 0 624.72275931 0 14024.92945300 0 996.67270368 0 5482.61156664 0 3324
0.05750000 0.05747970 31704.40830043 0 470.50188398 0 14968.23575344 0 1265.46120700 0 3729.83643932 0 3639
0.05850000 0.05849280 31925.23403167 0 -464.74555276 0 12972.15303867 0 2616.84591677 0 5069.51993631 0 3846
0.05950000 0.05951020 31771.39913000 0 -400.82809387 0 11392.43385734 0 2066.22344427 0 5985.66389543 0 3787
0.06050000 0.06049470 32517.72577265 0 17.60683151 0 9796.45498127 0 168.93112984 0 3194.04289715 0 3930
0.06150000 0.06148310 30834.96937166 0 725.03043539 0 10501.89947197 0 -1143.89059725 0 3348.02198438 0 4083
0.06250000 0.06249100 31343.38983977 0 829.40303515 0 12085.52275463 0 -1988.52960965 0 2172.25528710 0 4303
0.06350000 0.06350600 29460.32642190 0 1372.49125755 0 12282.16967652 0 -2349.65898228 0 -86.45976213 0 4470
0.06450000 0.06451750 29070.58176114 0 416.91365680 0 13642.83771813 0 607.45376566 0 -684.69618856 0 4479
0.06550000 0.06550280 27818.16380175 0 363.01265788 0 15164.66085140 0 -625.54572612 0 -1292.52372756 0 4636
0.06650000 0.06648880 28513.69276237 0 206.50034126 0 14742.30807161 0 938.04685485 0 -415.42854553 0 4653
0.06750000 0.06749660 28369.39629007 0 -372.47788535 0 12190.55638973 0 1663.34680632 0 -2241.67508880 0 5220
0.06850000 0.06852730 28446.14737295 0 -110.01435891 0 13955.38764813 0 -52.49274965 0 608.65383317 0 5029
0.06950000 0.06949320 27869.84877952 0 930.60798906 0 12573.53542035 0 -455.22154194 0 -2439.12057687 0 5040
0.07050000 0.07048030 27782.00649969 0 375.44699877 0 14233.77669153 0 213.75731142 0 1106.70957773 0 5475
0.07150000 0.07148790 27238.20511332 0 14.58059842 0 12396.51991706 0 734.69641353 0 -1798.14921403 0 5509
0.07250000 0.07249820 27509.49579068 0 -176.77593344 0 12651.83927081 0 1512.99454049 0 -593.80493869 0 5916
0.07350000 0.07351270 27381.17064199 0 89.70049897 0 11980.60003150 0 1109.97371699 0 -1039.27288204 0 5721
0.07450000 0.07449140 27307.41418228 0 759.09815593 0 10530.51476010 0 240.89525212 0 -50.15117615 0 6028
0.07550000 0.07549160 25953.06812293 0 548.89446401 0 12205.19676970 0 -632.29471946 0 277.53058476 0 6183
0.07650000 0.07648840 25430.89457061 0 676.14265748 0 10880.30892945 0 642.73929963 0 -1682.26838832 0 6330
0.07750000 0.07749960 24667.48748466 0 103.96189274 0 11752.67593421 0 355.92871039 0 241.06494743 0 6583
0.07850000 0.07848650 24537.49865643 0 146.15424779 0 10967.64101422 0 319.84571935 0 -1399.85324043 0 6549
0.07950000 0.07947320 24573.87778242 0 137.24912576 0 11018.01723076 0 1025.56859909 0 -349.54794478 0 6828
0.08050000 0.08048110 23995.80459748 0 66.07580582 0 9649.89590480 0 479.36264122 0 -1412.99630881 0 7147
0.08150000 0.08149960 24351.72110755 0 14.66988256 0 9309.71780320 0 293.46198005 0 -1307.06428676 0 7386
0.08250000 0.08250610 23874.68872680 0 327.87020035 0 9692.92974896 0 -67.69922432 0 -1868.98868894 0 7227
0.08350000 0.08350160 23601.62345794 0 557.82509579 0 9182.27995027 0 -699.73696075 0 -3042.03804297 0 7798
0.08450000 0.08449610 22792.52064057 0 560.09102733 0 10637.25643953 0 -804.42344138 0 -1193.94516908 0 7371
0.08550000 0.08548940 22053.07054003 0 512.03508919 0 10178.46907776 0 257.92023943 0 -2406.42372827 0 8256
0.08650000 0.08650700 21467.89898904 0 517.57181471 0 11298.04777131 0 431.66494875 0 -1728.89578029 0 8037
0.08750000 0.08749060 21439.83826076 0 192.28586325 0 10427.03389257 0 947.19265586 0 -2387.70178782 0 8155
0.08850000 0.08849210 21258.82992657 0 -154.28631339 0 10046.08455099 0 1333.10641719 0 -537.34741887 0 8718
0.08950000 0.08949900 20629.73723566 0 272.24562941 0 9841.68488243 0 153.85930231 0 -327.35224145 0 8571
0.09050000 0.09049190 20413.56980714 0 595.49745535 0 9340.90624902 0 -164.93608070 0 -257.24034906 0 8932
0.09150000 0.09150830 19827.40004843 0 493.54606388 0 9220.89949804 0 561.66708642 0 -513.26510293 0 9285
0.09250000 0.09250820 19453.73762324 0 -169.64318468 0 8656.62376210 0 1223.52539134 0 382.45996260 0 9204
0.09350000 0.09350330 19327.18706606 0 -91.05928150 0 8046.23082925 0 1043.89125645 0 -461.39933864 0 9349
0.09450000 0.09448040 19472.70357002 0 232.62232831 0 6931.95372785 0 571.69352846 0 -106.28560941 0 9564
0.09550000 0.09549270 18531.72642094 0 347.22766638 0 6320.74004643 0 23.76189125 0 166.11729317 0 10155
0.09650000 0.09649430 18394.63922666 0 269.60814278 0 6162.05829169 0 565.79190256 0 38.93941789 0 9913
0.09750000 0.09749140 17961.63889780 0 283.85478526 0 6537.00729572 0 -113.73356999 0 821.71905390 0 10476
0.09850000 0.09850240 17593.18933518 0 287.73004947 0 5991.38695305 0 242.94712355 0 -719.83642785 0 10575
0.09950000 0.09950330 17059.48093803 0 390.52104455 0 6732.53400672 0 -638.24181927 0 -559.74498198 0 10882
0.10050000 0.10051200 16674.28366802 0 165.81672174 0 6417.08927432 0 -262.70720004 0 -1084.44732721 0 10875
0.10150000 0.10150300 16836.43696740 0 -90.60121507 0 6371.23826613 0 398.75293092 0 -1218.05743125 0 11118
0.10250000 0.10250800 16642.89558066 0 -7.71899615 0 6275.88724597 0 382.00633265 0 -1245.18649898 0 11575
0.10350000 0.10349800 17033.08388929 0 47.86971694 0 5879.80951175 0 26.56408216 0 -1498.95308516 0 11364
0.10450000 0.10450100 16765.00965906 0 359.48011165 0 6628.65385611 0 -421.48877555 0 -1227.59586062 0 12093
0.10550000 0.10551000 16443.36494756 0 272.32659515 0 7286.56147668 0 -323.27511745 0 -1482.47156649 0 12067
0.10650000 0.10649700 16391.67996978 0 -48.48760752 0 7168.91715065 0 50.95994623 0 -674.15178763 0 12054
0.10750000 0.10749900 16331.12203444 0 180.87967631 0 7332.85613274 0 570.05535867 0 -379.02280067 0 12807
0.10850000 0.10850100 16076.24632857 0 289.89505111 0 7225.85935578 0 44.21294931 0 32.29434907 0 12736
0.10950000 0.10950300 15425.52580362 0 468.63079905 0 7422.43973049 0 246.77913210 0 343.15054238 0 12933
0.11050000 0.11050200 15054.96891358 0 537.22985218 0 8403.37846218 0 212.47516906 0 872.40693307 0 13428
0.11150000 0.11150900 14291.34000369 0 297.88847676 0 7633.18356371 0 -93.20531720 0 1491.10051772 0 13453
0.11250000 0.11250000 14517.82224538 0 -42.61792427 0 7922.95217518 0 726.71407908 0 1593.88263984 0 13668
0.11350000 0.11349100 14270.37764146 0 -117.53785054 0 6814.93050885 0 611.11275153 0 1363.05264895 0 13791
0.11450000 0.11448600 14379.07137155 0 -207.78913835 0 6502.45821723 0 468.13058607 0 753.78214523 0 14205
0.11550000 0.11549300 14631.83975000 0 -10.61608334 0 6075.95732978 0 133.91511195 0 400.03729153 0 14776
0.11650000 0.11649800 14784.34370804 0 88.83205825 0 5587.34573942 0 80.75323039 0 251.64040372 0 14553
0.11750000 0.11747300 14474.23384137 0 40.32548478 0 5731.12092546 0 -195.50120125 0 -755.31494865 0 14568
0.11850000 0.11849100 14194.18111843 0 286.03753282 0 5249.05314131 0 -236.27355035 0 -1066.93210899 0 16015
0.11950000 0.11950300 14154.58554532 0 324.25114278 0 5879.03312797 0 -251.25110271 0 -1779.33854401 0 15270
0.12050000 0.12050700 13692.85901637 0 100.30124319 0 5891.86564283 0 188.72558903 0 -1147.31777711 0 15999
0.12150000 0.12150000 13463.49306348 0 149.87423524 0 6016.25341661 0 283.97124282 0 -1998.85551401 0 15670
0.12250000 0.12250700 13512.07250611 0 110.28975333 0 5363.24810509 0 -104.85484500 0 -1465.45767037 0 16887
0.12350000 0.12352200 12997.66279165 0 192.60972620 0 5357.52504746 0 592.06140253 0 -1966.48031012 0 16407
0.12450000 0.12449800 13096.92900434 0 75.70618122 0 5376.13607594 0 -21.72000190 0 -572.92797868 0 16306
0.12550000 0.12549900 13059.88440653 0 -91.22143480 0 4882.11198147 0 924.31928039 0 -837.91996528 0 17523
0.12650000 0.12650100 13024.17075236 0 27.56949917 0 4488.33012502 0 579.39081914 0 -94.78647824 0 17154
0.12750000 0.12750600 12979.02958078 0 48.70310948 0 3885.44593251 0 361.09831728 0 122.19615326 0 18007
0.12850000 0.12850300 12880.76157582 0 122.19726238 0 4328.35070024 0 529.72111185 0 1171.70731920 0 17496
0.12950000 0.12949900 12644.74090476 0 168.64054048 0 3559.84166370 0 106.11547045 0 895.55647934 0 18405
0.13050000 0.13049000 12521.62861863 0 23.07057695 0 3522.78597469 0 601.33586142 0 1410.36769513 0 18100
0.13150000 0.13148800 12419.36778277 0 85.07968449 0 2968.42576883 0 337.29993599 0 1767.71496961 0 19059
0.13250000 0.13249300 12234.92117752 0 99.25212687 0 3503.60929517 0 151.18632384 0 1334.74791434 0 18957
0.13350000 0.13349100 12106.37420489 0 222.21767646 0 3416.89831743 0 -292.17429209 0 1438.56151778 0 19468
0.13450000 0.13450700 11704.87287537 0 260.21611720 0 3109.05105493 0 -285.73252490 0 870.29738741 0 19953
0.13550000 0.13551000 11510.22236893 0 230.23439361 0 3638.77771238 0 -324.97872530 0 679.66743987 0 19956
0.13650000 0.13649900 11371.69331904 0 7.32070018 0 3860.21345945 0 160.05040844 0 863.10918267 0 19723
0.13750000 0.13749600 11455.76459191 0 -3.14917901 0 3313.29544674 0 191.31316528 0 -166.54541337 0 20946
0.13850000 0.13851100 11299.37871494 0 135.91818212 0 3158.76179966 0 3.11454120 0 399.36294675 0 20955
0.13950000 0.13949800 11000.90351387 0 120.26295763 0 3218.38807445 0 -148.47119883 0 -339.27971465 0 20506
0.14050000 0.14048300 11067.30651000 0 168.70265118 0 3607.99964085 0 -192.49770511 0 293.98437543 0 21447
0.14150000 0.14148400 10730.94378015 0 173.12582052 0 3278.22508199 0 214.03237311 0 -584.61033642 0 21771
0.14250000 0.14249400 10701.79611457 0 81.26287089 0 3324.88574755 0 122.87382539 0 136.53818003 0 22470
0.14350000 0.14350900 10554.48283670 0 -65.78421825 0 3292.53272605 0 349.07878715 0 -192.34353748 0 22519
0.14450000 0.14449900 10780.72107205 0 -38.20994987 0 2757.26047013 0 459.85988051 0 273.39467741 0 22218
0.14550000 0.14550500 10700.07697904 0 -32.43487453 0 2989.85396133 0 121.79687017 0 510.92596950 0 23559
0.14650000 0.14650700 10705.09020006 0 181.11148233 0 2521.73890294 0 -180.43491931 0 133.13429169 0 23044
0.14750000 0.14750500 10555.75832435 0 180.03563622 0 3119.88715435 0 -242.87170341 0 574.39645315 0 23649
0.14850000 0.14849900 10397.47585270 0 224.17638184 0 3269.41867161 0 -361.38003369 0 124.60737947 0 23640
0.14950000 0.14949500 10221.93547860 0 104.59919292 0 3573.67238629 0 68.36813440 0 247.28156332 0 24457
0.15050000 0.15050000 10105.69973459 0 23.87712879 0 3819.23148673 0 40.26636870 0 132.31908871 0 24591
0.15150000 0.15149900 10053.61547372 0 183.22768270 0 3840.09402819 0 -267.83576950 0 270.99121504 0 25020
0.15250000 0.15250500 9859.30879438 0 263.85735716 0 4151.43501772 0 -199.92658883 0 137.81810416 0 25297
0.15350000 0.15350100 9725.79296552 0 63.65748124 0 4200.08100753 0 52.63249873 0 308.76894096 0 25452
0.15450000 0.15450400 9669.18349629 0 -37.17525211 0 4195.67780235 0 589.75776093 0 231.13167144 0 26061
0.15550000 0.15549900 9800.20380584 0 -128.76879657 0 3440.15655743 0 593.56869620 0 789.28728491 0 26128
0.15650000 0.15649500 9754.09770013 0 -38.43365931 0 2983.95344456 0 784.42046768 0 807.39366392 0 26331
0.15750000 0.15749700 9727.39009788 0 50.22493261 0 2744.20613132 0 311.01601746 0 834.59149708 0 27345
0.15850000 0.15849900 9498.27924252 0 167.23639494 0 2259.33227434 0 -184.96456415 0 988.59720318 0 26980
0.15950000 0.15949700 9308.99687540 0 221.74519147 0 2398.92607913 0 2.54630590 0 922.42157659 0 27777
0.16050000 0.16050000 9094.18257291 0 115.91520843 0 2364.32154465 0 -186.86892266 0 698.02780730 0 28224
0.16150000 0.16150500 9051.08218157 0 53.57092491 0 2423.02725010 0 -40.19616142 0 318.34729865 0 28075
0.16250000 0.16249700 8879.06880810 0 174.94034034 0 2435.53812025 0 -114.32916726 0 142.13036153 0 28590
0.16350000 0.16349900 8782.36466190 0 11.83286529 0 2415.46305378 0 132.40449093 0 549.21943608 0 29163
0.16450000 0.16449100 8806.31055612 0 45.14815903 0 2588.46354378 0 138.89838674 0 29.26911419 0 28996
0.16550000 0.16550500 8691.13956701 0 151.74864753 0 2647.52416753 0 -142.60173740 0 327.65170377 0 30777
0.16650000 0.16650700 8545.29032714 0 169.62432965 0 2833.00225409 0 -190.26615629 0 437.07412550 0 29211
0.16750000 0.16749900 8423.34261669 0 8.88702120 0 2789.23639093 0 368.84773659 0 966.77083671 0 30922
0.16850000 0.16850800 8479.19788452 0 -34.20037126 0 2735.78791284 0 231.61746587 0 609.74077047 0 30867
0.16950000 0.16949900 8485.70841713 0 59.97165467 0 2425.46731343 0 244.75387954 0 663.30126965 0 30852
0.17050000 0.17049200 8334.25812280 0 209.15668293 0 2632.72851080 0 -176.32008524 0 900.66730290 0 31257
0.17150000 0.17149500 8069.85507875 0 169.24279247 0 2573.50151909 0 -176.72380481 0 854.38928363 0 32608
0.17250000 0.17250900 7962.42574511 0 34.40212013 0 2546.69409607 0 226.60313573 0 914.59340979 0 32361
0.17350000 0.17350400 7972.00853928 0 -8.51720742 0 2245.59028132 0 312.94810397 0 577.25465461 0 32508
0.17450000 0.17449800 7944.34709409 0 -32.45029130 0 2008.66013211 0 316.55717946 0 1014.62824242 0 32791
0.17550000 0.17549800 7972.87365264 0 73.76433446 0 2054.97697057 0 30.26832012 0 590.79035136 0 33633
0.17650000 0.17650100 7913.30283383 0 66.02245716 0 1851.34259460 0 -76.26040833 0 933.08465334 0 33984
0.17750000 0.17750300 7814.34717466 0 69.23369141 0 1931.90904923 0 -22.95345391 0 377.61310954 0 34069
0.17850000 0.17849800 7729.12241731 0 61.18447705 0 2020.48334806 0 -257.95018566 0 561.47742695 0 34536
