### header ###
fiducial parameters:
Omega_m = 0.31
Omega_nu = 0
Omega_de = 0.69
Omega_k = 0
H_0 = 100
w_de = -1
zeff = 0
beta = 0
fgrowth = 0
b_1 = 2
gamma = 0.55
Lx = 3500 Ly = 3500 Lz = 3500
nx = 700 ny = 700 nz = 700
xoffset = 1379.75464 yoffset = 22.6059522 zoffset = 368.141391
bins = 400 dk = 0.001
kx_ny = 0.628318531 ky_ny = 0.628318531 kz_ny = 0.628318531
############################
A(data) = 3.33940982 (not used)
A(ran) = 3.34800797 (used)
Ngal = 188255
weighted Ngal = 0
Nran = 9399747
weighted Nran = 0
SN(data) = 6627.79048
SN(ran) = 133.168299
SN(data+ran) = 6760.95878
############################
13 columns: k_central k_mean P_0(k) sigma^{lin}_{P_0(k)} P^img_1(k) sigma^{lin}_{P_1(k)} P_2(k) sigma^{lin}_{P_2(k)} P^img_3(k) sigma^{lin}_{P_3(k)} P_4(k) sigma^{lin}_{P_4(k)} N_modes
### header ###
0.00050000 0 0 0 0 0 0 0 0 0 0 0 0
0.00150000 0.00179520 68401.18617120 0 -46613.97162202 0 -41986.28060734 0 38946.51625974 0 118730.15421103 0 3
0.00250000 0.00253879 100530.05457884 0 -37079.97872533 0 -31278.83907353 0 -61150.53799024 0 -44600.25390410 0 6
0.00350000 0.00331552 113634.85833301 0 -12505.87911897 0 -39594.57489743 0 -34427.85171107 0 70705.04960129 0 7
0.00450000 0.00420575 116704.90164828 0 1321.46066040 0 -28267.35727815 0 -50829.62467007 0 -14461.81170079 0 24
0.00550000 0.00557378 99120.03071081 0 14637.16352454 0 12357.14616789 0 -42292.84129099 0 4679.46472203 0 45
0.00650000 0.00659388 87375.11861446 0 19028.72295619 0 9607.41662049 0 -14118.76097918 0 -26726.56819810 0 40
0.00750000 0.00754703 79523.32755891 0 5432.09116454 0 47908.75795376 0 -12761.30938469 0 28533.10235703 0 57
0.00850000 0.00846663 75493.34114777 0 787.25537762 0 38121.66394271 0 22980.51642884 0 -13089.49790238 0 75
0.00950000 0.00948925 75817.86957048 0 3510.63002284 0 55839.51833158 0 17517.43646002 0 22840.65643532 0 112
0.01050000 0.01054430 81857.80269257 0 -2056.90683884 0 37055.79991598 0 17378.57467423 0 11811.90292592 0 105
0.01150000 0.01145670 87949.42079244 0 2258.42279619 0 70586.81744182 0 17962.52619355 0 34012.37547339 0 144
0.01250000 0.01249090 74368.02830541 0 7232.51407395 0 53071.04466134 0 12534.82714300 0 36653.96585055 0 169
0.01350000 0.01339930 74676.14175663 0 1668.54857769 0 59618.73277972 0 7768.25216014 0 47880.69722548 0 180
0.01450000 0.01448870 75439.43793060 0 32.40659198 0 51739.99011558 0 31951.52016844 0 34280.67152757 0 267
0.01550000 0.01550050 76482.23226768 0 -920.80226184 0 44197.86527882 0 5588.39940313 0 25384.31154343 0 238
0.01650000 0.01653350 73185.92853466 0 4387.33368561 0 45121.76198461 0 -2574.23353809 0 25365.34559665 0 315
0.01750000 0.01747870 74268.98391666 0 3288.88372225 0 47736.62257712 0 -5324.98347561 0 6450.28522678 0 297
0.01850000 0.01844180 69187.77385877 0 -2148.20957211 0 28103.76212316 0 12683.44918211 0 5921.73423622 0 388
0.01950000 0.01947590 69116.45746239 0 -1671.34355932 0 26819.17969262 0 8386.10946854 0 -18966.50134131 0 399
0.02050000 0.02045430 77053.42891051 0 -150.34893847 0 24661.72006225 0 5853.03536232 0 1703.70767202 0 462
0.02150000 0.02154770 70039.68869636 0 -1010.56331874 0 9624.28633105 0 797.35502157 0 -15952.02492275 0 571
0.02250000 0.02255340 74089.86108594 0 1477.50271026 0 24491.58110107 0 -8407.67075540 0 -7357.23458363 0 510
0.02350000 0.02348930 69022.73684818 0 5410.54096887 0 13393.06396286 0 -7525.68768288 0 -26999.30073106 0 555
0.02450000 0.02439640 67093.53405100 0 6557.65910444 0 33754.39423237 0 -7032.52870178 0 -23203.89313538 0 592
0.02550000 0.02547300 58494.19632114 0 4565.87977408 0 34234.97579614 0 -3034.58475862 0 -8354.88774913 0 837
0.02650000 0.02652900 56642.18825473 0 740.59803942 0 35351.19385701 0 7514.88485706 0 -15301.63713371 0 723
0.02750000 0.02749970 52904.78761908 0 -1788.79933501 0 31536.48757864 0 10639.18630779 0 -1942.07967683 0 826
0.02850000 0.02848090 58516.37871504 0 91.95289924 0 29754.46496497 0 8752.21878860 0 -952.44433761 0 831
0.02950000 0.02946900 56661.81967332 0 623.36963328 0 24834.74273464 0 6728.38589906 0 6762.71315362 0 996
0.03050000 0.03053250 56056.12940798 0 369.49657161 0 26792.33899600 0 -2647.31343478 0 8941.83389163 0 1041
0.03150000 0.03150510 55377.79180263 0 1025.03400340 0 20390.05646961 0 348.84809025 0 -5042.49068934 0 1036
0.03250000 0.03246190 52338.02745503 0 1046.53207044 0 22752.70324352 0 -1688.30199946 0 6795.55418778 0 1059
0.03350000 0.03345080 53284.21746668 0 1840.93905186 0 28091.56180652 0 -6220.29816687 0 -9911.82561193 0 1302
0.03450000 0.03451200 51372.42784872 0 1735.92759915 0 30423.04231701 0 312.51111081 0 -4858.26590803 0 1339
0.03550000 0.03553350 51930.98052703 0 -469.58686023 0 27983.97719612 0 3613.82251925 0 -15752.49428965 0 1365
0.03650000 0.03647120 49361.70475397 0 -69.54213760 0 27487.97886860 0 5198.45510083 0 -3619.41248251 0 1308
0.03750000 0.03744890 50050.13534855 0 393.05871041 0 20192.74407590 0 2757.34919971 0 -8154.92455935 0 1579
0.03850000 0.03847530 50151.17615275 0 559.18265830 0 21644.24902052 0 5557.05568056 0 -2162.07356830 0 1662
0.03950000 0.03950240 47185.83373667 0 904.92299517 0 14240.20958576 0 6003.52072251 0 -1501.31551011 0 1683
0.04050000 0.04050350 46785.99608669 0 795.61703100 0 14521.81507628 0 3089.14235641 0 4644.66054601 0 1822
0.04150000 0.04152450 44149.28583619 0 -127.22046547 0 7600.15397919 0 3413.97024144 0 6695.05685223 0 1887
0.04250000 0.04250150 44582.28616505 0 1061.78690273 0 10366.16540372 0 1869.79834632 0 4624.81839467 0 1920
0.04350000 0.04349210 42203.11350768 0 971.68423696 0 5495.90991178 0 1211.48035146 0 4062.71653333 0 2005
0.04450000 0.04448520 42228.73417263 0 765.00754567 0 7754.14415762 0 -4296.95152168 0 3253.09242970 0 2151
0.04550000 0.04548030 40928.62406636 0 1370.90521639 0 9867.67155688 0 -1265.83830770 0 -85.54540385 0 2274
0.04650000 0.04648670 39021.04910324 0 688.78884024 0 11390.54835386 0 -1866.43771364 0 -1657.85666384 0 2311
0.04750000 0.04749250 39353.67409971 0 553.71469820 0 12813.99257019 0 -378.01904735 0 -4919.38949441 0 2568
0.04850000 0.04851840 37924.01881309 0 442.24373240 0 14095.46946559 0 -2644.30772041 0 -1986.24482308 0 2493
0.04950000 0.04949480 38517.84149770 0 -100.97514431 0 13696.51911136 0 991.57962604 0 -6525.35044773 0 2644
0.05050000 0.05050630 38902.70603180 0 -153.31028806 0 17069.24119135 0 -96.03567975 0 -2555.68905679 0 2829
0.05150000 0.05149060 38688.09137085 0 1122.59549911 0 13079.40491316 0 -1653.04308436 0 -8454.37578575 0 2784
0.05250000 0.05249300 38387.74175749 0 673.42642334 0 18906.16522991 0 835.64294255 0 -1680.48270561 0 3055
0.05350000 0.05348950 37669.80857903 0 520.56089229 0 19864.00099836 0 941.70140425 0 -749.36895797 0 3009
0.05450000 0.05448610 37129.77819963 0 -41.27566762 0 14801.20232740 0 1233.09709431 0 -3935.63359870 0 3336
0.05550000 0.05550870 36388.77533152 0 891.69785193 0 16976.18604895 0 1182.99815769 0 -510.91709654 0 3349
0.05650000 0.05647670 35307.16180512 0 786.31373500 0 15989.95681631 0 -885.55776530 0 -3913.16283368 0 3324
0.05750000 0.05747970 35006.47945586 0 687.28709217 0 17539.84067786 0 1042.41390902 0 264.25220377 0 3639
0.05850000 0.05849280 34486.63505489 0 -147.72808863 0 15412.10545531 0 1810.22752751 0 -2652.16028785 0 3846
0.05950000 0.05951020 33389.49385278 0 46.64059049 0 12971.37665489 0 307.24390138 0 -3104.28184025 0 3787
0.06050000 0.06049470 34029.56682866 0 1458.53676348 0 16013.02650597 0 -1489.27047022 0 -4605.90790387 0 3930
0.06150000 0.06148310 32147.94526639 0 1032.45955976 0 15129.61266904 0 -730.63038072 0 -2528.74853941 0 4083
0.06250000 0.06249100 30733.92856746 0 852.39064994 0 16564.81355414 0 906.80295305 0 -3315.73551007 0 4303
0.06350000 0.06350600 30722.72645855 0 -382.42447077 0 16100.97969777 0 2056.25245822 0 -444.06268869 0 4470
0.06450000 0.06451750 30159.84821342 0 -16.65021577 0 12627.43863752 0 2865.16672524 0 -2536.30164453 0 4479
0.06550000 0.06550280 30712.74438129 0 308.55377174 0 13948.06745815 0 1551.44772031 0 1982.51818090 0 4636
0.06650000 0.06648880 29814.46834046 0 -56.00400078 0 10139.37260852 0 2037.76343290 0 2324.18250289 0 4653
0.06750000 0.06749660 29670.17186816 0 -327.06719769 0 11063.79060056 0 3314.06073933 0 5097.32556705 0 5220
0.06850000 0.06852730 30355.27510365 0 -79.93314729 0 7868.26148302 0 1178.48404054 0 5183.68162649 0 5029
0.06950000 0.06949320 30547.92919464 0 139.51727553 0 8332.10643059 0 450.56656659 0 4887.79067431 0 5040
0.07050000 0.07048030 29318.02636505 0 820.99368962 0 7589.66170688 0 -1136.04912101 0 5132.02992231 0 5475
0.07150000 0.07148790 29030.76436409 0 712.87448353 0 9846.32100275 0 -2430.93527352 0 3020.21056738 0 5509
0.07250000 0.07249820 28350.87399117 0 267.93448116 0 10791.49062429 0 -655.07160152 0 2668.89690404 0 5916
0.07350000 0.07351270 28189.16433966 0 -83.16589846 0 11489.70365457 0 -483.39540043 0 -226.91147100 0 5721
0.07450000 0.07449140 28902.66103934 0 228.85797607 0 11286.73475042 0 -362.21409170 0 -812.60541737 0 6028
0.07550000 0.07549160 28246.83856379 0 759.57729564 0 12675.01987243 0 -501.59161815 0 1088.67750973 0 6183
0.07650000 0.07648840 27636.04634786 0 453.06430414 0 12612.02187376 0 -467.79119545 0 -864.25046684 0 6330
0.07750000 0.07749960 26860.32803330 0 524.71343642 0 13984.77932004 0 1541.95365573 0 1221.41806392 0 6583
0.07850000 0.07848650 26069.19295498 0 885.19619228 0 13400.05141693 0 -311.14023887 0 -423.03488840 0 6549
0.07950000 0.07947320 24912.49202525 0 1011.84435199 0 14802.08962316 0 -421.26251513 0 996.34994985 0 6828
0.08050000 0.08048110 24189.45689620 0 818.65011971 0 15795.86086972 0 -653.34470215 0 1833.45249392 0 7147
0.08150000 0.08149960 22515.57345277 0 207.71482733 0 14579.04565253 0 1125.97831418 0 1153.02974354 0 7386
0.08250000 0.08250610 22960.55227433 0 165.61818931 0 15414.76734258 0 1936.23461604 0 1815.01892459 0 7227
0.08350000 0.08350160 23116.93815130 0 -93.09063423 0 12525.84327348 0 1417.69897632 0 625.92615417 0 7798
0.08450000 0.08449610 22283.76743655 0 449.34875316 0 13286.47756018 0 1027.01045469 0 2228.58747640 0 7371
0.08550000 0.08548940 21536.77532209 0 760.33482439 0 11165.84070368 0 282.53936930 0 2476.05426271 0 8256
0.08650000 0.08650700 20555.20439217 0 86.36227051 0 11019.61436312 0 1665.68704888 0 3017.34903857 0 8037
0.08750000 0.08749060 20730.00165608 0 -43.17758607 0 9182.83451011 0 1958.78301943 0 2015.34812387 0 8155
0.08850000 0.08849210 20565.63011730 0 -187.61425110 0 7682.88321723 0 1306.43208853 0 2928.78583094 0 8718
0.08950000 0.08949900 20315.41271415 0 235.52267632 0 6419.69570560 0 604.19849935 0 2732.56037453 0 8571
0.09050000 0.09049190 19800.22661591 0 239.28370120 0 5134.91363351 0 476.80722945 0 2456.07901700 0 8932
0.09150000 0.09150830 19661.25391814 0 132.29690632 0 5180.88664486 0 277.84224739 0 1546.97796794 0 9285
0.09250000 0.09250820 19183.99971346 0 112.68545187 0 5139.76048658 0 -341.09867095 0 271.11987292 0 9204
0.09350000 0.09350330 19063.43840264 0 345.94885137 0 4118.92671946 0 -218.59861889 0 -136.41174039 0 9349
0.09450000 0.09448040 18867.45695256 0 166.57425049 0 4568.24219903 0 -591.80297764 0 -1517.50865765 0 9564
0.09550000 0.09549270 18089.74222255 0 374.92682164 0 5003.19457856 0 -233.08150387 0 -1196.38523241 0 10155
0.09650000 0.09649430 18247.23721922 0 274.39177602 0 4461.62252277 0 115.64125586 0 -2379.02847180 0 9913
0.09750000 0.09749140 17531.52228015 0 50.40915739 0 4152.32231348 0 725.93325882 0 -1272.35993151 0 10476
0.09850000 0.09850240 17425.26861338 0 -79.36549983 0 3837.90906239 0 1014.86337580 0 -2262.78163659 0 10575
0.09950000 0.09950330 18016.76214663 0 -231.01632300 0 2376.47749650 0 1150.47876824 0 -594.85527504 0 10882
0.10050000 0.10051200 17268.10635263 0 232.79867834 0 1749.07066754 0 385.19616089 0 -1177.20855289 0 10875
0.10150000 0.10150300 17144.99406650 0 627.23713365 0 2654.95526948 0 -709.33750082 0 -1110.12899374 0 11118
0.10250000 0.10250800 16497.48998866 0 581.22752135 0 2321.04369416 0 -726.11737269 0 -132.31243399 0 11575
0.10350000 0.10349800 15437.83703223 0 477.89527587 0 3657.71038557 0 -450.64642320 0 -1106.05963358 0 11364
0.10450000 0.10450100 15608.75237720 0 70.21592782 0 4089.40195319 0 -1.04305276 0 -267.68271099 0 12093
0.10550000 0.10551000 15354.65305512 0 -206.77762118 0 4097.65380372 0 693.76435119 0 -1345.51746658 0 12067
0.10650000 0.10649700 15771.34932446 0 29.31913548 0 3550.11468397 0 157.56154385 0 657.44844502 0 12054
0.10750000 0.10749900 15812.60857711 0 -78.01359383 0 4033.94596845 0 625.01556691 0 386.99404392 0 12807
0.10850000 0.10850100 15452.47741220 0 248.62914375 0 4234.99609553 0 -250.71872525 0 817.63860254 0 12736
0.10950000 0.10950300 15575.25696242 0 663.49314736 0 4955.40261091 0 -876.37979982 0 1274.13452302 0 12933
0.11050000 0.11050200 14772.36521534 0 133.57793957 0 5363.40338184 0 -430.51590074 0 1057.49793687 0 13428
0.11150000 0.11150900 14733.54602602 0 124.52086814 0 6300.31006165 0 -36.48593422 0 1374.02184273 0 13453
0.11250000 0.11250000 14642.82003498 0 229.21843997 0 6057.19102455 0 -548.25782931 0 -45.95692911 0 13668
0.11350000 0.11349100 14689.07032626 0 71.42586649 0 6385.57918379 0 286.26712059 0 899.54154641 0 13791
0.11450000 0.11448600 14531.13168171 0 -83.13850320 0 6185.81563555 0 510.01094575 0 348.93460159 0 14205
0.11550000 0.11549300 14715.80011090 0 -159.88847697 0 5413.84614556 0 826.99513629 0 1612.46039473 0 14776
0.11650000 0.11649800 14612.65197928 0 40.74573023 0 5109.22642138 0 1112.66887785 0 1352.02799919 0 14553
0.11750000 0.11747300 14669.43890766 0 192.01191069 0 4546.66982097 0 229.05207202 0 1738.57839522 0 14568
0.11850000 0.11849100 14162.68211909 0 308.69795730 0 4901.97631521 0 -154.50591909 0 2479.33725700 0 16015
0.11950000 0.11950300 13751.08780035 0 413.37889234 0 4135.92952439 0 -167.45267328 0 1384.09264956 0 15270
0.12050000 0.12050700 13390.95663544 0 233.35434731 0 5239.57016792 0 -32.61876658 0 2314.17824325 0 15999
0.12150000 0.12150000 13038.70022036 0 264.91656647 0 4962.57861533 0 -368.64698593 0 801.87801168 0 15670
0.12250000 0.12250700 12885.30896657 0 208.01872612 0 5150.31930607 0 69.80011884 0 1407.87217582 0 16887
0.12350000 0.12352200 12545.14195617 0 -60.05117855 0 4693.79454849 0 308.93419980 0 848.87363139 0 16407
0.12450000 0.12449800 12824.86194320 0 -62.74179202 0 4502.91504901 0 553.60600447 0 673.93218193 0 16306
0.12550000 0.12549900 12840.94417877 0 16.56880639 0 3888.60692364 0 323.57679801 0 138.09427496 0 17523
0.12650000 0.12650100 12606.80901120 0 50.24301126 0 4136.48408423 0 124.43990240 0 562.98361149 0 17154
0.12750000 0.12750600 12490.01870733 0 186.45965750 0 3575.58007217 0 -126.44075433 0 79.57645439 0 18007
0.12850000 0.12850300 12425.35702912 0 197.80151549 0 3885.24629096 0 -126.55832102 0 -179.79384813 0 17496
0.12950000 0.12949900 12100.71769445 0 116.85685105 0 4111.56216469 0 -108.90135730 0 -70.07085496 0 18405
0.13050000 0.13049000 12062.56397695 0 136.36737560 0 3934.66866456 0 -263.04659066 0 -483.36545420 0 18100
0.13150000 0.13148800 11791.93877141 0 156.34483954 0 4546.79182414 0 -180.51699417 0 -449.65265196 0 19059
0.13250000 0.13249300 11885.88120956 0 149.06457786 0 4458.82754114 0 -261.44724006 0 -969.71665862 0 18957
0.13350000 0.13349100 11621.13433841 0 161.57101154 0 4479.39062028 0 21.57858913 0 -886.41955130 0 19468
0.13450000 0.13450700 11551.70344551 0 79.60695518 0 4657.85907038 0 209.33636032 0 -572.38118267 0 19953
0.13550000 0.13551000 11477.17060202 0 33.08448594 0 4579.05611606 0 639.94320888 0 -117.28940773 0 19956
0.13650000 0.13649900 11417.61087441 0 -32.49044143 0 4203.99620006 0 454.18784239 0 -160.44192769 0 19723
0.13750000 0.13749600 11393.65388900 0 25.79246759 0 3625.36845527 0 145.43997470 0 -476.71628163 0 20946
0.13850000 0.13851100 11286.29110254 0 129.25680923 0 3527.14481510 0 401.14973858 0 403.17942762 0 20955
0.13950000 0.13949800 11101.28993745 0 -93.99401222 0 3145.24163058 0 368.91206553 0 103.42008777 0 20506
0.14050000 0.14048300 11439.12779649 0 -66.60008670 0 2362.46931476 0 638.56568222 0 99.20099645 0 21447
0.14150000 0.14148400 11230.16964598 0 93.10305637 0 2389.74256805 0 58.37430048 0 -63.36644823 0 21771
0.14250000 0.14249400 10964.50220548 0 180.29960671 0 2413.74391825 0 -317.71288218 0 66.51912096 0 22470
0.14350000 0.14350900 10784.40334944 0 278.55208400 0 2539.17426454 0 -313.47160847 0 -280.42982364 0 22519
0.14450000 0.14449900 10564.66455550 0 205.03186678 0 2412.83444010 0 -95.52226824 0 -345.19464998 0 22218
0.14550000 0.14550500 10203.04717020 0 227.26084371 0 3376.65945490 0 -287.19212642 0 -556.29561973 0 23559
0.14650000 0.14650700 10086.29013993 0 186.44856630 0 3158.49561093 0 71.88482022 0 41.14157505 0 23044
0.14750000 0.14750500 9942.18221798 0 -8.25917072 0 3424.87288804 0 362.51688137 0 288.36668418 0 23649
0.14850000 0.14849900 10027.14078660 0 -42.14832299 0 3051.64301953 0 160.16686601 0 165.36641914 0 23640
0.14950000 0.14949500 10104.15805821 0 -53.40488969 0 3221.44924481 0 16.29097190 0 635.84168425 0 24457
0.15050000 0.15050000 10242.84238485 0 30.40274543 0 3420.20349412 0 155.46641674 0 353.98775092 0 24591
0.15150000 0.15149900 10075.55386128 0 35.35418848 0 3208.63891233 0 -125.56454977 0 930.44605758 0 25020
0.15250000 0.15250500 10239.01592190 0 -21.64813094 0 3275.28591479 0 343.89919818 0 961.59568421 0 25297
0.15350000 0.15350100 10298.32055199 0 -7.81725307 0 3261.12245629 0 546.24588618 0 1244.55430076 0 25452
0.15450000 0.15450400 10319.18309344 0 -52.42054596 0 2437.39035014 0 431.16029928 0 1236.59082135 0 26061
0.15550000 0.15549900 10222.40130887 0 206.46152207 0 3016.52828999 0 -112.36047980 0 1773.19402090 0 26128
0.15650000 0.15649500 9867.47191533 0 263.53903981 0 2568.99849313 0 -195.27272259 0 1482.82648480 0 26331
0.15750000 0.15749700 9645.89198270 0 194.49301144 0 2961.91523622 0 37.82430895 0 1671.05518820 0 27345
0.15850000 0.15849900 9290.41912051 0 247.41022120 0 2841.18755744 0 -212.61824550 0 1094.87527058 0 26980
0.15950000 0.15949700 9233.13308827 0 130.31158206 0 3000.05786252 0 -67.00813183 0 954.81008992 0 27777
0.16050000 0.16050000 8969.09605373 0 99.00268585 0 2859.08874931 0 -94.73800971 0 470.18245751 0 28224
0.16150000 0.16150500 8900.20862948 0 117.36815523 0 2952.56535719 0 13.03293280 0 368.96419416 0 28075
0.16250000 0.16249700 8668.42479566 0 82.79323424 0 2856.94814830 0 -17.89808634 0 66.85152413 0 28590
0.16350000 0.16349900 8741.47141876 0 -79.92438524 0 2377.54225141 0 264.51950162 0 50.44853114 0 29163
0.16450000 0.16449100 8841.30328249 0 -58.09568961 0 2554.59102830 0 376.07365140 0 -70.37453193 0 28996
0.16550000 0.16550500 8794.01041870 0 144.69797363 0 2032.72802949 0 -138.01552746 0 -387.10606501 0 30777
0.16650000 0.16650700 8712.81176584 0 98.31835900 0 2243.11694440 0 -55.27830377 0 -185.93171652 0 29211
0.16750000 0.16749900 8436.65205303 0 38.39639289 0 2107.10559622 0 100.50454483 0 -213.92146114 0 30922
0.16850000 0.16850800 8512.46038417 0 109.78421658 0 2300.35861185 0 -123.93525294 0 -285.05374365 0 30867
0.16950000 0.16949900 8250.34212669 0 183.77336959 0 2265.27715590 0 3.87612933 0 -543.68825616 0 30852
0.17050000 0.17049200 8155.62330475 0 169.00100438 0 2401.17759211 0 26.96014881 0 -368.70133279 0 31257
0.17150000 0.17149500 7957.40143290 0 25.60081171 0 2245.35736618 0 192.02300188 0 -156.52673517 0 32608
0.17250000 0.17250900 7863.91373382 0 54.77243427 0 2134.41212311 0 293.41206967 0 85.89311288 0 32361
0.17350000 0.17350400 7927.01155326 0 78.10653806 0 2095.26019788 0 -29.52676269 0 -81.39197242 0 32508
0.17450000 0.17449800 7693.89677580 0 114.88927271 0 1944.47537537 0 34.58201935 0 -195.46570942 0 32791
0.17550000 0.17549800 7695.99301202 0 192.43781265 0 2461.36951795 0 -409.71879734 0 73.78274584 0 33633
0.17650000 0.17650100 7500.78794573 0 12.34250579 0 2245.86756124 0 -57.44541274 0 -134.30219473 0 33984
0.17750000 0.17750300 7562.21099443 0 -43.30435845 0 2512.53320947 0 160.65266044 0 -121.90001830 0 34069
