### header ###
fiducial parameters:
Omega_m = 0.31
Omega_nu = 0
Omega_de = 0.69
Omega_k = 0
H_0 = 100
w_de = -1
zeff = 0
beta = 0
fgrowth = 0
b_1 = 2
gamma = 0.55
Lx = 3500 Ly = 3500 Lz = 3500
nx = 700 ny = 700 nz = 700
xoffset = 1379.75464 yoffset = 22.6059522 zoffset = 368.141391
bins = 400 dk = 0.001
kx_ny = 0.628318531 ky_ny = 0.628318531 kz_ny = 0.628318531
############################
A(data) = 3.35224046 (not used)
A(ran) = 3.35575278 (used)
Ngal = 188778
weighted Ngal = 0
Nran = 9399747
weighted Nran = 0
SN(data) = 6654.22221
SN(ran) = 133.476352
SN(data+ran) = 6787.69856
############################
13 columns: k_central k_mean P_0(k) sigma^{lin}_{P_0(k)} P^img_1(k) sigma^{lin}_{P_1(k)} P_2(k) sigma^{lin}_{P_2(k)} P^img_3(k) sigma^{lin}_{P_3(k)} P_4(k) sigma^{lin}_{P_4(k)} N_modes
### header ###
0.00050000 0 0 0 0 0 0 0 0 0 0 0 0
0.00150000 0.00179520 28866.06008941 0 -24265.54250726 0 -27997.39754443 0 29879.57366654 0 4724.81662635 0 3
0.00250000 0.00253879 46969.77722012 0 -12769.40595846 0 -6909.80460755 0 -41892.89272904 0 -5229.96519136 0 6
0.00350000 0.00331552 58241.31703072 0 -6821.19703513 0 -35140.68293893 0 -3629.80493405 0 36527.19346943 0 7
0.00450000 0.00420575 56472.49294142 0 -2092.77576977 0 -16312.04517569 0 -25267.07759168 0 4530.73177096 0 24
0.00550000 0.00557378 52457.92329404 0 8066.88263797 0 -9106.36070716 0 -32341.70847708 0 -12508.54100624 0 45
0.00650000 0.00659388 61732.27127017 0 -4547.94530862 0 2961.40504116 0 5704.96788306 0 -5185.13457329 0 40
0.00750000 0.00754703 56642.85372654 0 -5332.41457757 0 -783.25700112 0 5363.23701389 0 -19994.54438644 0 57
0.00850000 0.00846663 65472.11196914 0 -6493.39670932 0 5137.22060248 0 -8105.61309772 0 2180.88423832 0 75
0.00950000 0.00948925 63823.07280688 0 203.50239073 0 2719.36185016 0 636.58146708 0 -14367.42561476 0 112
0.01050000 0.01054430 74806.01967289 0 -1660.67382786 0 -9678.01208906 0 8996.34712463 0 23753.79468007 0 105
0.01150000 0.01145670 73909.62913554 0 -4757.02546229 0 1469.63905162 0 10188.29587826 0 -2508.56256096 0 144
0.01250000 0.01249090 76976.12326778 0 2618.91997060 0 -1622.77520789 0 -4941.51643233 0 10445.73365062 0 169
0.01350000 0.01339930 74799.03221881 0 5739.82751507 0 -593.79162926 0 -7530.47907997 0 1159.42936418 0 180
0.01450000 0.01448870 63184.88533448 0 6331.19904515 0 18599.71545823 0 -12091.95564886 0 15128.94719722 0 267
0.01550000 0.01550050 62741.45928049 0 -520.84593605 0 17856.49435073 0 9674.25217330 0 -5682.63021241 0 238
0.01650000 0.01653350 67870.36148526 0 -5930.05263393 0 10170.67196631 0 18213.07633262 0 15139.48383432 0 315
0.01750000 0.01747870 73839.08912294 0 -7540.98244348 0 1444.37330498 0 9114.95638479 0 7451.08829221 0 297
0.01850000 0.01844180 77610.53973322 0 4852.68703597 0 8837.57664031 0 -7924.99295541 0 8331.36332040 0 388
0.01950000 0.01947590 68547.70088289 0 7816.22158694 0 11433.58219801 0 -19084.17894093 0 10035.85846740 0 399
0.02050000 0.02045430 62863.12971101 0 1556.66058288 0 23678.04180491 0 7758.54736281 0 22332.67961509 0 462
0.02150000 0.02154770 64978.33188101 0 -5770.29503309 0 19912.46952902 0 19767.06393703 0 18057.46683943 0 571
0.02250000 0.02255340 76434.65103277 0 -5149.99766136 0 3168.88806247 0 14576.93832511 0 10290.40143736 0 510
0.02350000 0.02348930 79271.44647621 0 -8557.14681667 0 -5235.55515462 0 12105.59782111 0 13322.85668617 0 555
0.02450000 0.02439640 82945.73820122 0 532.13566542 0 -6152.42004154 0 -6121.48669325 0 14334.59567179 0 592
0.02550000 0.02547300 78214.56631902 0 7345.40027649 0 -5284.20114444 0 -17628.68116541 0 12511.53562941 0 837
0.02650000 0.02652900 71464.02020845 0 6333.07345744 0 13164.14165785 0 -14943.28056031 0 -9741.77538032 0 723
0.02750000 0.02749970 62760.31431530 0 4437.43262223 0 22056.17607517 0 -3257.22944616 0 3100.74374842 0 826
0.02850000 0.02848090 61564.12872444 0 2218.51666957 0 25051.90837089 0 2853.62078922 0 -17759.33546546 0 831
0.02950000 0.02946900 60078.57380519 0 488.00933836 0 24016.32331183 0 -1000.30063420 0 -6664.42296626 0 996
0.03050000 0.03053250 57778.37047010 0 2494.54328802 0 23776.42072184 0 -1827.60743313 0 -8314.33833308 0 1041
0.03150000 0.03150510 56443.43400541 0 3388.28302930 0 29403.98314140 0 -3120.36407582 0 -11189.02130531 0 1036
0.03250000 0.03246190 50445.09287188 0 1555.36291284 0 29364.83121618 0 1041.41126481 0 -2681.33013582 0 1059
0.03350000 0.03345080 50653.60737450 0 595.31777796 0 25906.48509575 0 3042.81442676 0 -11212.42373087 0 1302
0.03450000 0.03451200 51154.04218081 0 970.42094963 0 31554.23349375 0 5633.54057471 0 -1727.95302855 0 1339
0.03550000 0.03553350 46868.73641592 0 792.26194393 0 19919.34607113 0 4009.85588868 0 -7065.74683664 0 1365
0.03650000 0.03647120 46889.47695421 0 1698.02897918 0 25016.19471672 0 3459.29996336 0 8583.97642209 0 1308
0.03750000 0.03744890 43827.86294863 0 1515.73406614 0 19352.69681905 0 4177.69897209 0 3551.01307093 0 1579
0.03850000 0.03847530 44427.23123171 0 -423.46189948 0 19251.87783879 0 6479.42180117 0 11869.57715005 0 1662
0.03950000 0.03950240 42561.58099305 0 -58.49508362 0 12395.29988539 0 5574.69068371 0 8831.57630276 0 1683
0.04050000 0.04050350 43354.37975091 0 -380.23617762 0 10401.87905789 0 3528.32048197 0 9718.91642341 0 1822
0.04150000 0.04152450 43207.64321528 0 397.77690559 0 9225.23615605 0 -3782.96327271 0 9764.55669885 0 1887
0.04250000 0.04250150 41034.87773313 0 2165.83348406 0 13208.28462170 0 -3370.14892229 0 3371.24695079 0 1920
0.04350000 0.04349210 41014.35901877 0 2292.21767329 0 16305.39045752 0 -5232.92654094 0 1740.02025083 0 2005
0.04450000 0.04448520 37327.75606515 0 948.21637334 0 17209.87756865 0 -2326.43401587 0 -523.25827138 0 2151
0.04550000 0.04548030 38584.94323923 0 678.47513620 0 22438.26781004 0 -1116.19587848 0 -556.57179054 0 2274
0.04650000 0.04648670 37362.13877569 0 84.15734056 0 22338.33612554 0 -555.18428180 0 -4084.20018182 0 2311
0.04750000 0.04749250 37815.76873087 0 484.48677421 0 25115.35001743 0 3019.38981881 0 -1437.65203963 0 2568
0.04850000 0.04851840 38154.16114976 0 -70.85089884 0 22271.01256006 0 -190.65102082 0 762.29574801 0 2493
0.04950000 0.04949480 39242.65121826 0 -902.91992500 0 22881.69386403 0 4355.65722713 0 -10.09430908 0 2644
0.05050000 0.05050630 39756.61728484 0 -98.86604230 0 21882.70975490 0 1988.18578254 0 2244.05969614 0 2829
0.05150000 0.05149060 39363.87800091 0 499.78264392 0 20509.61957271 0 206.75322055 0 2262.21598554 0 2784
0.05250000 0.05249300 39103.34578459 0 846.22505356 0 20925.09581039 0 86.20366639 0 2083.30388757 0 3055
0.05350000 0.05348950 37534.16324036 0 408.64073300 0 19354.24958662 0 1274.67799167 0 135.49449840 0 3009
0.05450000 0.05448610 37534.05232839 0 428.75240043 0 19104.03218347 0 1405.45429488 0 1974.00014165 0 3336
0.05550000 0.05550870 37894.62714118 0 -412.45943211 0 18325.87380558 0 407.86213098 0 -947.87809183 0 3349
0.05650000 0.05647670 36760.10860534 0 25.29735656 0 16382.69610025 0 2030.45433411 0 -3299.00998507 0 3324
0.05750000 0.05747970 36954.31546390 0 92.48705129 0 13432.88135990 0 2234.68763472 0 -3097.20565659 0 3639
0.05850000 0.05849280 36935.57134106 0 138.04658282 0 10770.69463001 0 18.15140928 0 -4718.57228247 0 3846
0.05950000 0.05951020 35169.52005100 0 1107.22310014 0 12259.87637066 0 1385.65650833 0 -2053.24674384 0 3787
0.06050000 0.06049470 35302.39259044 0 264.60823119 0 8794.83116727 0 2059.76836765 0 -2209.25552012 0 3930
0.06150000 0.06148310 32837.81771657 0 244.69842355 0 8481.06120561 0 2202.31243083 0 -1377.43793139 0 4083
0.06250000 0.06249100 33712.13677200 0 1032.53608901 0 6495.52621914 0 919.24283955 0 -2779.09903692 0 4303
0.06350000 0.06350600 31989.00841412 0 771.81975883 0 9334.72845232 0 -943.74662097 0 3126.77478766 0 4470
0.06450000 0.06451750 30473.50726312 0 873.30199267 0 7160.98694483 0 1246.52853381 0 1198.29291829 0 4479
0.06550000 0.06550280 30103.28310899 0 89.84823371 0 8932.75020133 0 542.31072950 0 2540.50520817 0 4636
0.06650000 0.06648880 29132.13790420 0 627.44675728 0 8279.02396200 0 -1096.05648306 0 1453.87846076 0 4653
0.06750000 0.06749660 29263.34676410 0 592.50172305 0 10623.64754087 0 -1216.42702530 0 1232.74217601 0 5220
0.06850000 0.06852730 29423.61456000 0 268.51676900 0 10367.87344805 0 -2068.45277486 0 281.16184264 0 5029
0.06950000 0.06949320 29015.12577640 0 -410.72809627 0 12288.93530666 0 1339.77222656 0 -1270.60752239 0 5040
0.07050000 0.07048030 29152.10205871 0 -51.46393022 0 11173.49362958 0 -168.60172129 0 -1143.29167262 0 5475
0.07150000 0.07148790 29674.05378709 0 529.60576340 0 11363.70765724 0 -522.12253282 0 -3038.27812721 0 5509
0.07250000 0.07249820 28845.54137506 0 556.62391916 0 11767.64905009 0 -26.71858254 0 -1843.32365920 0 5916
0.07350000 0.07351270 28320.92775941 0 160.30661509 0 11112.71387030 0 2356.66861876 0 -1186.21460481 0 5721
0.07450000 0.07449140 27619.85320031 0 181.12035528 0 10140.80337293 0 2154.33191283 0 1437.60767484 0 6028
0.07550000 0.07549160 27471.67480908 0 471.72967948 0 7874.00672304 0 700.87048107 0 -208.03758116 0 6183
0.07650000 0.07648840 26545.33803997 0 424.22164647 0 9277.81952078 0 842.56495857 0 1658.24485573 0 6330
0.07750000 0.07749960 25555.67053628 0 812.57547114 0 7687.71897910 0 -380.45023772 0 2352.95306778 0 6583
0.07850000 0.07848650 24934.89624309 0 -131.90095059 0 7872.06576358 0 15.71178960 0 429.87261132 0 6549
0.07950000 0.07947320 24960.18417213 0 -23.56968081 0 5962.08401071 0 1304.48003787 0 -462.24559697 0 6828
0.08050000 0.08048110 25097.16045444 0 172.60120691 0 6264.36349234 0 -27.90678247 0 -2604.88960646 0 7147
0.08150000 0.08149960 24468.95505929 0 694.28452833 0 6536.74110700 0 -1165.28551617 0 -1883.34069779 0 7386
0.08250000 0.08250610 23660.85044964 0 886.02692293 0 7907.30249628 0 -1435.37834425 0 -2157.19344164 0 7227
0.08350000 0.08350160 22288.64756321 0 391.69227494 0 6923.89042767 0 -376.30434830 0 -2830.79510590 0 7798
0.08450000 0.08449610 22957.11400328 0 -139.56940416 0 8411.59703912 0 1479.15529861 0 -1829.38202464 0 7371
0.08550000 0.08548940 22325.35942511 0 179.19159613 0 7623.27912483 0 427.87619587 0 -2586.58913149 0 8256
0.08650000 0.08650700 22594.98642292 0 441.16344981 0 8425.19484658 0 979.32274430 0 -88.12865454 0 8037
0.08750000 0.08749060 21898.01560669 0 65.40867032 0 7661.18883600 0 -55.53129397 0 -368.68580511 0 8155
0.08850000 0.08849210 21833.68666439 0 439.11490574 0 8414.23674400 0 526.11758196 0 1800.48945659 0 8718
0.08950000 0.08949900 21094.34747582 0 543.13147808 0 8596.11019155 0 132.46105603 0 1245.77433242 0 8571
0.09050000 0.09049190 20425.65921182 0 560.06108110 0 8304.46716780 0 -152.23111459 0 2017.76600481 0 8932
0.09150000 0.09150830 20388.94734992 0 324.96319763 0 9213.20220736 0 401.01220774 0 2421.38575295 0 9285
0.09250000 0.09250820 19177.01225939 0 198.03775799 0 8933.36021716 0 -165.68140913 0 1518.20740306 0 9204
0.09350000 0.09350330 19600.69598281 0 372.59101556 0 8665.78509078 0 436.57169428 0 2351.07865549 0 9349
0.09450000 0.09448040 18891.30302600 0 24.07632669 0 8573.26232584 0 -381.71241593 0 -593.92694186 0 9564
0.09550000 0.09549270 18799.02426739 0 282.87986904 0 8684.07447455 0 -439.20918091 0 978.85913226 0 10155
0.09650000 0.09649430 18567.66189905 0 287.40285916 0 8914.62718551 0 181.28450500 0 -1576.71346696 0 9913
0.09750000 0.09749140 18475.60496438 0 20.62751900 0 8650.29068865 0 141.16986388 0 29.51212231 0 10476
0.09850000 0.09850240 18429.02193720 0 -145.38340960 0 8249.69883727 0 519.60372199 0 -1849.82310062 0 10575
0.09950000 0.09950330 18341.40148131 0 297.36386314 0 8015.25311618 0 544.74635635 0 -736.74939408 0 10882
0.10050000 0.10051200 17993.69245698 0 379.05607426 0 7484.08460313 0 -207.47303923 0 -1494.41678561 0 10875
0.10150000 0.10150300 17197.23360413 0 224.64775771 0 7648.37850352 0 216.74195252 0 -958.37369150 0 11118
0.10250000 0.10250800 17506.12343914 0 177.42920494 0 7640.12665300 0 526.47804586 0 -118.00811729 0 11575
0.10350000 0.10349800 17062.91920908 0 -23.44301934 0 6623.80700304 0 832.57289923 0 -2127.66867537 0 11364
0.10450000 0.10450100 16960.99110913 0 -50.71139251 0 6200.41165074 0 434.48654925 0 -492.20070169 0 12093
0.10550000 0.10551000 16720.86669520 0 279.81980781 0 5902.29136797 0 -55.76820194 0 -1438.21769067 0 12067
0.10650000 0.10649700 16776.65541585 0 139.53058497 0 5418.39353631 0 101.36799451 0 -547.05665268 0 12054
0.10750000 0.10749900 16345.20785457 0 169.30712141 0 5917.07593350 0 436.73695311 0 -1071.92758410 0 12807
0.10850000 0.10850100 16088.11390931 0 190.46468871 0 5348.24171561 0 230.44623547 0 -1002.79615352 0 12736
0.10950000 0.10950300 16186.16009033 0 66.71687700 0 5571.49641899 0 243.35749784 0 -657.57488467 0 12933
0.11050000 0.11050200 15588.23366285 0 540.71581538 0 5578.17331955 0 -428.53501297 0 -1061.38983788 0 13428
0.11150000 0.11150900 15512.36987572 0 281.92935347 0 5798.76613565 0 25.68410660 0 325.37468103 0 13453
0.11250000 0.11250000 14672.21170690 0 107.20085498 0 6038.62436085 0 338.81499349 0 -548.16133589 0 13668
0.11350000 0.11349100 14955.70270089 0 162.05347861 0 6170.18813905 0 498.57148522 0 725.90553082 0 13791
0.11450000 0.11448600 14641.15635544 0 -77.79775914 0 5339.26893728 0 891.39395313 0 490.47269320 0 14205
0.11550000 0.11549300 14471.46104213 0 11.62412896 0 4783.33378145 0 656.83732007 0 1274.47835012 0 14776
0.11650000 0.11649800 14755.61750795 0 135.73739561 0 4415.15040756 0 99.69400015 0 817.87040856 0 14553
0.11750000 0.11747300 14490.87063679 0 -28.05518268 0 4388.07679581 0 339.76772731 0 1092.61155728 0 14568
0.11850000 0.11849100 14444.62034552 0 50.13819945 0 3833.19530368 0 -196.50939105 0 540.13574578 0 16015
0.11950000 0.11950300 14208.26693855 0 276.89727741 0 3737.55591240 0 -264.55055697 0 -775.12937200 0 15270
0.12050000 0.12050700 13949.84204966 0 260.61761853 0 4001.42657900 0 -207.10037502 0 -350.88332489 0 15999
0.12150000 0.12150000 13542.24056181 0 229.47021014 0 3725.74378765 0 -32.26517922 0 -1659.87526168 0 15670
0.12250000 0.12250700 13039.80934006 0 266.36396767 0 3731.58884844 0 234.19616916 0 -1072.09062469 0 16887
0.12350000 0.12352200 13086.50327921 0 82.52981832 0 3527.66610135 0 342.91984548 0 -1497.50013836 0 16407
0.12450000 0.12449800 12874.21776962 0 65.10321876 0 3377.03655560 0 249.06280955 0 -1152.95210516 0 16306
0.12550000 0.12549900 12834.40037257 0 154.17318318 0 3182.51914352 0 -0.04611698 0 -1046.81711421 0 17523
0.12650000 0.12650100 12305.46119011 0 213.28371731 0 3933.72591282 0 -450.96695880 0 -585.98453572 0 17154
0.12750000 0.12750600 12604.92350772 0 52.10744147 0 3438.32650993 0 45.50640469 0 -290.95980602 0 18007
0.12850000 0.12850300 12426.90979670 0 -89.58703602 0 4262.29153122 0 0.72694589 0 -709.16891463 0 17496
0.12950000 0.12949900 12815.76716170 0 -120.27848530 0 4107.25878027 0 181.34550658 0 -1109.07754827 0 18405
0.13050000 0.13049000 12910.48598364 0 34.70734987 0 4254.61642293 0 -434.60855242 0 -948.07662425 0 18100
0.13150000 0.13148800 12854.47543905 0 203.65877660 0 4389.13045952 0 -383.13319826 0 -675.99181720 0 19059
0.13250000 0.13249300 12729.36673748 0 63.62897686 0 4770.62326975 0 -56.43955209 0 -1340.11605366 0 18957
0.13350000 0.13349100 12684.22556590 0 94.20541043 0 4733.11284167 0 479.67097650 0 -917.20205931 0 19468
0.13450000 0.13450700 12650.95197505 0 73.25846496 0 4133.40073148 0 351.54325111 0 -779.43053818 0 19953
0.13550000 0.13551000 12280.94964486 0 7.00240501 0 3649.53617342 0 565.74975601 0 -458.56553782 0 19956
0.13650000 0.13649900 12332.96735855 0 115.56583572 0 3649.04816075 0 716.69761912 0 543.23129885 0 19723
0.13750000 0.13749600 12211.85148787 0 47.24350796 0 2932.21301079 0 475.43746662 0 -119.93243996 0 20946
0.13850000 0.13851100 11824.10324256 0 270.05844537 0 2794.31615914 0 485.67575052 0 1231.44450596 0 20955
0.13950000 0.13949800 11408.18335700 0 361.81924508 0 3067.09305688 0 29.72806792 0 1720.34446744 0 20506
0.14050000 0.14048300 10903.03479200 0 393.13856703 0 2971.17638567 0 -105.89065189 0 2036.73195159 0 21447
0.14150000 0.14148400 10737.70941029 0 119.48879208 0 3384.30128960 0 552.35935394 0 2434.97246921 0 21771
0.14250000 0.14249400 10652.90611842 0 -128.19094521 0 2982.81105127 0 -88.19520172 0 2534.99288329 0 22470
0.14350000 0.14350900 10788.49600111 0 -36.75456301 0 2818.59478925 0 335.69060331 0 2163.87034220 0 22519
0.14450000 0.14449900 11091.64059610 0 -75.55722644 0 2623.47845254 0 -140.83269149 0 1931.69831649 0 22218
0.14550000 0.14550500 10810.62293902 0 56.93954324 0 2591.23634301 0 -32.82894476 0 1620.63460688 0 23559
0.14650000 0.14650700 10844.87255520 0 206.55579725 0 2751.06049104 0 -464.92633927 0 760.28491401 0 23044
0.14750000 0.14750500 10564.23199882 0 290.33204427 0 3229.41272422 0 -515.38573979 0 320.56775627 0 23649
0.14850000 0.14849900 10248.79835761 0 326.34848812 0 3388.88195394 0 -334.33858641 0 -110.84786236 0 23640
0.14950000 0.14949500 10042.43554719 0 20.63317551 0 3424.89507043 0 -88.63030937 0 -85.04031074 0 24457
0.15050000 0.15050000 9989.84109126 0 -42.67770583 0 3345.11609078 0 177.90834465 0 -562.92371903 0 24591
0.15150000 0.15149900 10071.32811524 0 42.80004173 0 3138.84200994 0 161.88378330 0 -701.30414687 0 25020
0.15250000 0.15250500 9953.36214450 0 -21.33513736 0 2886.01817550 0 380.86504848 0 -715.48978777 0 25297
0.15350000 0.15350100 9928.92823762 0 59.82469631 0 2653.32486353 0 247.64868194 0 -271.36942485 0 25452
0.15450000 0.15450400 9952.58576072 0 97.10731120 0 2224.81646943 0 268.03873841 0 -257.87920200 0 26061
0.15550000 0.15549900 9809.60914086 0 83.69195393 0 2282.57942314 0 168.81245403 0 -430.07447110 0 26128
0.15650000 0.15649500 9524.18827859 0 205.20932594 0 2284.45383543 0 -64.11920777 0 -226.63308196 0 26331
0.15750000 0.15749700 9336.29231109 0 235.61695149 0 2374.88036414 0 -175.87311001 0 -256.89430371 0 27345
0.15850000 0.15849900 8962.80734506 0 153.64856956 0 2773.99708633 0 -259.89336337 0 -75.23103434 0 26980
0.15950000 0.15949700 9014.89160592 0 192.44003089 0 2705.88604587 0 -158.99230825 0 -541.14060822 0 27777
0.16050000 0.16050000 8796.52812041 0 23.21698075 0 2884.93123820 0 37.79536093 0 -445.89051795 0 28224
0.16150000 0.16150500 8777.75072397 0 -68.86845830 0 2814.49104638 0 129.10264160 0 -595.55623869 0 28075
0.16250000 0.16249700 8882.15216085 0 74.87289959 0 2545.20787568 0 -22.81348300 0 -901.76644052 0 28590
0.16350000 0.16349900 8882.92854463 0 67.60750012 0 2803.56621739 0 -30.87844686 0 -472.90201900 0 29163
0.16450000 0.16449100 8799.61147316 0 25.24899894 0 2600.50858366 0 221.00097215 0 -937.64535352 0 28996
0.16550000 0.16550500 8746.78410210 0 27.65623233 0 2841.50920215 0 133.43042665 0 -405.69047461 0 30777
0.16650000 0.16650700 8664.34323518 0 48.13268922 0 2372.32938885 0 209.19217476 0 -462.59829703 0 29211
0.16750000 0.16749900 8749.06888867 0 70.05665823 0 2616.94573754 0 220.84902275 0 142.71486761 0 30922
0.16850000 0.16850800 8594.42432962 0 70.97434386 0 2302.51030406 0 91.04109194 0 26.32140677 0 30867
0.16950000 0.16949900 8346.26988910 0 259.89447249 0 2712.37439608 0 -134.09700758 0 250.87178377 0 30852
0.17050000 0.17049200 8244.61906907 0 229.61661394 0 2754.98677476 0 -342.60152813 0 356.88255332 0 31257
0.17150000 0.17149500 7980.44894015 0 81.92601355 0 3025.73398346 0 25.18356088 0 367.67428795 0 32608
0.17250000 0.17250900 7930.68273945 0 -14.01406008 0 3182.65223788 0 146.05553613 0 648.81949380 0 32361
0.17350000 0.17350400 8012.54686412 0 62.44421520 0 2941.17469793 0 254.65831841 0 345.28559779 0 32508
0.17450000 0.17449800 8042.82583179 0 -23.84607344 0 3048.00510693 0 150.57187153 0 761.18108272 0 32791
0.17550000 0.17549800 7996.02098067 0 2.76572305 0 2694.92794328 0 149.77441447 0 686.33214011 0 33633
0.17650000 0.17650100 8030.49242078 0 22.54008500 0 2879.44109571 0 -92.59275039 0 859.28715620 0 33984
0.17750000 0.17750300 8004.17301043 0 37.17580667 0 2807.39268034 0 -37.75776177 0 881.64811837 0 34069
0.17850000 0.17849800 8030.78079191 0 108.78789435 0 2918.67065932 0 49.08475757 0 757.09841312 0 34536
