### header ###
fiducial parameters:
Omega_m = 0.31
Omega_nu = 0
Omega_de = 0.69
Omega_k = 0
H_0 = 100
w_de = -1
zeff = 0
beta = 0
fgrowth = 0
b_1 = 2
gamma = 0.55
Lx = 3500 Ly = 3500 Lz = 3500
nx = 700 ny = 700 nz = 700
xoffset = 1379.75464 yoffset = 22.6059522 zoffset = 368.141391
bins = 400 dk = 0.001
kx_ny = 0.628318531 ky_ny = 0.628318531 kz_ny = 0.628318531
############################
A(data) = 3.27553848 (not used)
A(ran) = 3.28462177 (used)
Ngal = 185031
weighted Ngal = 0
Nran = 9399747
weighted Nran = 0
SN(data) = 6624.40578
SN(ran) = 130.647088
SN(data+ran) = 6755.05287
############################
13 columns: k_central k_mean P_0(k) sigma^{lin}_{P_0(k)} P^img_1(k) sigma^{lin}_{P_1(k)} P_2(k) sigma^{lin}_{P_2(k)} P^img_3(k) sigma^{lin}_{P_3(k)} P_4(k) sigma^{lin}_{P_4(k)} N_modes
### header ###
0.00050000 0 0 0 0 0 0 0 0 0 0 0 0
0.00150000 0.00179520 35556.71373646 0 -23185.70357238 0 -12767.18771907 0 15371.17893857 0 101142.51047432 0 3
0.00250000 0.00253879 57947.84395947 0 -26782.24600678 0 -30527.52139226 0 -1396.70334049 0 6164.99745888 0 6
0.00350000 0.00331552 70615.32181797 0 -14693.39589307 0 -6501.62637746 0 -39191.40988836 0 -24217.51762447 0 7
0.00450000 0.00420575 81787.48450392 0 -1843.81167187 0 -20764.38436661 0 -24914.71026464 0 -5022.79272356 0 24
0.00550000 0.00557378 74038.17610817 0 5236.25390003 0 8007.48927831 0 -3735.39312899 0 34437.05740454 0 45
0.00650000 0.00659388 70206.16756255 0 8562.35967924 0 -20007.07743899 0 -7255.99413789 0 -36560.68888421 0 40
0.00750000 0.00754703 57107.35305473 0 9160.87394016 0 36408.29583814 0 -2112.00790527 0 24887.64774409 0 57
0.00850000 0.00846663 56529.72351767 0 7055.70930340 0 13636.73755981 0 6375.61928893 0 -11563.12737837 0 75
0.00950000 0.00948925 48030.42838428 0 2907.44636801 0 42349.62821937 0 8029.31675391 0 41222.98443337 0 112
0.01050000 0.01054430 43401.73916188 0 -2534.01685796 0 21468.23172495 0 21417.10130702 0 1819.89905125 0 105
0.01150000 0.01145670 55998.23335991 0 -4104.16433633 0 29776.42553492 0 13812.31120750 0 33632.61288988 0 144
0.01250000 0.01249090 53301.07608604 0 -1258.81758003 0 14791.55298606 0 11922.59307146 0 15729.42460000 0 169
0.01350000 0.01339930 68212.19217520 0 -446.12454221 0 21002.95601297 0 12272.07668730 0 49306.24876923 0 180
0.01450000 0.01448870 57799.11100839 0 747.35923308 0 27505.94660765 0 6237.75571086 0 37276.84747116 0 267
0.01550000 0.01550050 60852.40661627 0 -4549.94172407 0 8579.53994331 0 11921.92759964 0 15384.71019885 0 238
0.01650000 0.01653350 66099.87371641 0 -2251.57952767 0 22793.85158420 0 9118.06191994 0 42002.14101898 0 315
0.01750000 0.01747870 70778.02967720 0 -1216.37156931 0 12060.45664953 0 3445.94616224 0 23693.12583276 0 297
0.01850000 0.01844180 76248.98439585 0 -1039.77198590 0 17613.04257772 0 -266.97287438 0 36139.88887200 0 388
0.01950000 0.01947590 71875.50361523 0 2843.09524331 0 25133.53958043 0 -10736.31191947 0 8935.61173014 0 399
0.02050000 0.02045430 68329.98068679 0 5335.38701835 0 31617.89696424 0 -9709.73291234 0 10642.41384611 0 462
0.02150000 0.02154770 65012.04911973 0 2788.58201031 0 40108.87369992 0 -239.97357365 0 5897.81052440 0 571
0.02250000 0.02255340 65425.41802999 0 -1100.42197818 0 32973.24123131 0 3288.21825044 0 -7231.17203912 0 510
0.02350000 0.02348930 66464.44136010 0 -101.57129615 0 37162.27540668 0 -1716.34054534 0 -9933.74181710 0 555
0.02450000 0.02439640 64565.62844257 0 1805.58031599 0 27520.91972353 0 659.91623634 0 -20100.02166942 0 592
0.02550000 0.02547300 62414.60170643 0 1076.55483146 0 33493.19654424 0 4074.63957005 0 -5040.79373621 0 837
0.02650000 0.02652900 60175.51086652 0 2293.41552256 0 25170.36235430 0 3424.60669931 0 -11120.36679620 0 723
0.02750000 0.02749970 60826.23139147 0 439.24689098 0 23196.24020948 0 10284.09054630 0 -1593.06189126 0 826
0.02850000 0.02848090 55673.59402524 0 659.66890265 0 19815.31064376 0 2587.47642725 0 -2799.88394000 0 831
0.02950000 0.02946900 60385.35631278 0 -124.72494616 0 22720.20603646 0 5246.45780122 0 14771.03427170 0 996
0.03050000 0.03053250 56597.71255496 0 -531.51123103 0 19530.15597022 0 3589.46625075 0 7339.62176288 0 1041
0.03150000 0.03150510 58002.41264846 0 2020.62753362 0 20096.47248639 0 -5359.37727735 0 8398.16559962 0 1036
0.03250000 0.03246190 59198.26550341 0 1178.57277011 0 30438.45908076 0 -6557.07127100 0 4261.79242735 0 1059
0.03350000 0.03345080 56945.08884338 0 1665.54286332 0 30676.47616727 0 -3051.05518609 0 146.01560782 0 1302
0.03450000 0.03451200 56077.64633006 0 1611.55091658 0 38218.93373994 0 -282.08130286 0 4828.80768894 0 1339
0.03550000 0.03553350 56728.81050289 0 -135.55771822 0 36709.31092332 0 2452.17491568 0 -1173.39318114 0 1365
0.03650000 0.03647120 56384.76157356 0 1578.52133206 0 40726.76428190 0 3003.76232231 0 833.48459562 0 1308
0.03750000 0.03744890 52597.89419953 0 3350.61732447 0 37737.24305648 0 300.23759227 0 37.70330399 0 1579
0.03850000 0.03847530 48242.49206993 0 2705.60876594 0 39899.13916563 0 1831.99954712 0 4297.55044632 0 1662
0.03950000 0.03950240 46632.71574486 0 1045.10019692 0 37521.85201175 0 6148.44939303 0 6044.66906319 0 1683
0.04050000 0.04050350 45931.97392167 0 -205.35462062 0 35334.55706159 0 8939.57128745 0 6176.49903012 0 1822
0.04150000 0.04152450 43853.48361358 0 -472.13339905 0 22887.46128644 0 8915.53666366 0 11119.25767650 0 1887
0.04250000 0.04250150 44076.52758421 0 525.59740482 0 21769.57954603 0 3811.19036894 0 6332.59653597 0 1920
0.04350000 0.04349210 43482.59398763 0 983.58509128 0 16882.02178686 0 2740.61258351 0 13331.61873176 0 2005
0.04450000 0.04448520 40742.95742945 0 1346.14966480 0 17688.24089303 0 -1489.80284768 0 3651.21094416 0 2151
0.04550000 0.04548030 39439.85270000 0 2054.57768748 0 18812.99917554 0 -3566.76257059 0 8493.81608210 0 2274
0.04650000 0.04648670 37578.86076406 0 142.77254184 0 14739.31344843 0 510.83169432 0 -802.07321675 0 2311
0.04750000 0.04749250 37919.02777446 0 -566.84889363 0 18937.88605318 0 1305.12332729 0 -259.74252309 0 2568
0.04850000 0.04851840 38480.68598792 0 268.73748382 0 15898.67626543 0 1630.84959927 0 -4522.44664683 0 2493
0.04950000 0.04949480 37679.23609644 0 -134.28999441 0 15097.89184577 0 1491.11160892 0 -3998.43195582 0 2644
0.05050000 0.05050630 38419.68440470 0 -285.92218437 0 12865.34481206 0 -251.07697092 0 -2747.05656894 0 2829
0.05150000 0.05149060 39500.74337125 0 317.20601448 0 16308.49599267 0 128.25860151 0 -1534.78874250 0 2784
0.05250000 0.05249300 38528.15631086 0 403.66300381 0 14791.22025015 0 981.25261257 0 -2496.46206509 0 3055
0.05350000 0.05348950 38291.91381586 0 860.69351998 0 15081.92052216 0 -1547.96508447 0 -4597.32331743 0 3009
0.05450000 0.05448610 36984.92716748 0 405.47308715 0 17445.34367986 0 194.61723285 0 2429.60432989 0 3336
0.05550000 0.05550870 37532.49956082 0 181.79470006 0 17778.41232421 0 1089.22541486 0 -263.47692910 0 3349
0.05650000 0.05647670 37638.30957970 0 346.13518348 0 16734.06521957 0 530.03277448 0 480.80893330 0 3324
0.05750000 0.05747970 35609.84056984 0 1523.81954872 0 18553.02151908 0 -992.43475733 0 424.86382678 0 3639
0.05850000 0.05849280 35360.17772654 0 1388.56240193 0 19806.43768620 0 -1377.92594406 0 -662.88534977 0 3846
0.05950000 0.05951020 32996.64365687 0 937.56882427 0 22012.47675920 0 510.79287513 0 2454.17133113 0 3787
0.06050000 0.06049470 32392.61707107 0 804.50884360 0 21595.44775395 0 2451.35416710 0 1390.11516951 0 3930
0.06150000 0.06148310 31318.21282270 0 -481.73172089 0 18303.35867577 0 1746.12040915 0 4371.99456023 0 4083
0.06250000 0.06249100 32206.06313840 0 -399.23872535 0 18320.21729514 0 4729.61911463 0 2082.83805730 0 4303
0.06350000 0.06350600 32330.83910407 0 -27.30918877 0 15089.68436003 0 1501.78134038 0 4546.08198753 0 4470
0.06450000 0.06451750 32130.19935128 0 325.00645329 0 13639.17762314 0 966.63663323 0 4877.34276678 0 4479
0.06550000 0.06550280 31502.10486810 0 413.90128771 0 13169.02178450 0 1341.63554764 0 3939.39351446 0 4636
0.06650000 0.06648880 30991.79889651 0 447.37562922 0 13039.80934006 0 229.69203408 0 3401.76992479 0 4653
0.06750000 0.06749660 30437.12813713 0 27.84245352 0 10645.48610766 0 1785.19469600 0 3834.47079133 0 5220
0.06850000 0.06852730 29720.30407837 0 369.73392323 0 10861.72008336 0 1339.48385544 0 6379.24611033 0 5029
0.06950000 0.06949320 29307.48972795 0 497.51671239 0 9574.97486942 0 1625.55909832 0 5178.32457837 0 5040
0.07050000 0.07048030 28901.55191965 0 219.88630686 0 9275.85637892 0 598.94792672 0 6906.64361642 0 5475
0.07150000 0.07148790 28399.23160986 0 642.17697594 0 8847.08179610 0 737.01336457 0 5696.97113006 0 5509
0.07250000 0.07249820 27525.91076216 0 251.71693298 0 9645.92525629 0 -332.75365436 0 7254.34154955 0 5916
0.07350000 0.07351270 27539.66384638 0 89.73854177 0 8585.46264248 0 449.79572840 0 5537.90118343 0 5721
0.07450000 0.07449140 28028.89654376 0 48.88766700 0 8075.18994449 0 619.65630054 0 5155.62089821 0 6028
0.07550000 0.07549160 26930.20257407 0 53.96920979 0 8333.73683655 0 400.86691306 0 4757.21401264 0 6183
0.07650000 0.07648840 27016.38117436 0 169.17513617 0 7318.92558937 0 1239.30816460 0 3907.48414084 0 6330
0.07750000 0.07749960 27021.37221299 0 377.24266356 0 7343.14876351 0 333.98477722 0 4541.20186087 0 6583
0.07850000 0.07848650 26132.85642546 0 503.24975209 0 6231.66664374 0 276.20296848 0 3632.57773328 0 6549
0.07950000 0.07947320 25353.47801591 0 850.76468047 0 7471.39627382 0 -388.17081991 0 3618.00390049 0 6828
0.08050000 0.08048110 24368.46881494 0 694.91007183 0 7313.97891554 0 -1500.83858864 0 2657.55060957 0 7147
0.08150000 0.08149960 23478.06752394 0 440.97489946 0 7678.70183598 0 985.62587152 0 3093.76738554 0 7386
0.08250000 0.08250610 23009.13171697 0 116.07048518 0 7223.50802203 0 783.50322570 0 2662.89656650 0 7227
0.08350000 0.08350160 22838.32728396 0 592.20115161 0 7315.56495670 0 336.28065499 0 2691.60058420 0 7798
0.08450000 0.08449610 22074.47655014 0 591.04766713 0 7816.87596756 0 342.41519602 0 3598.68303541 0 7371
0.08550000 0.08548940 21144.70150997 0 608.00499815 0 7715.21405633 0 -116.22132546 0 3747.84854317 0 8256
0.08650000 0.08650700 20587.03612741 0 536.52334293 0 8123.10391530 0 83.70204692 0 4121.20041484 0 8037
0.08750000 0.08749060 19717.48628667 0 559.43221023 0 8659.41874373 0 54.84230881 0 3053.56179660 0 8155
0.08850000 0.08849210 19634.08048562 0 10.50653559 0 7523.96854736 0 420.85435908 0 4840.07634504 0 8718
0.08950000 0.08949900 19339.16555877 0 -120.72989702 0 7890.57697128 0 913.58965646 0 2545.81789151 0 8571
0.09050000 0.09049190 19621.76925701 0 -167.27854149 0 7216.36529119 0 899.19328282 0 4949.90137722 0 8932
0.09150000 0.09150830 19533.81606521 0 -320.29047635 0 4399.60054944 0 2302.82085757 0 3331.72901606 0 9285
0.09250000 0.09250820 20057.87512101 0 -21.32171701 0 4748.27450790 0 1362.91955459 0 4380.75660582 0 9204
0.09350000 0.09350330 19277.49850374 0 314.31121208 0 2677.80313519 0 191.78232291 0 5039.16333026 0 9349
0.09450000 0.09448040 19138.63671794 0 680.94403664 0 4523.35612498 0 -401.01553510 0 4449.23365578 0 9564
0.09550000 0.09549270 18213.40906852 0 596.25609322 0 4234.65226842 0 -1393.77526450 0 4221.10991695 0 10155
0.09650000 0.09649430 17382.56750513 0 438.16328104 0 4980.49089840 0 -253.72554875 0 3142.20264261 0 9913
0.09750000 0.09749140 17155.97435148 0 281.20398919 0 6340.06091151 0 -1152.64155165 0 2755.71879376 0 10476
0.09850000 0.09850240 17138.45026030 0 4.94496579 0 5381.50421526 0 -230.87546479 0 869.89810432 0 10575
0.09950000 0.09950330 16990.05004513 0 122.19504414 0 7190.42298153 0 -134.19128276 0 756.06804093 0 10882
0.10050000 0.10051200 16776.65541585 0 217.02145069 0 6317.70105846 0 -765.93587885 0 -27.06795524 0 10875
0.10150000 0.10150300 16475.97306658 0 282.15117741 0 6566.96461868 0 -92.67626711 0 -1083.35151695 0 11118
0.10250000 0.10250800 16667.85077379 0 80.88809934 0 7156.08463578 0 -578.26949913 0 -801.56523993 0 11575
0.10350000 0.10349800 16130.81501756 0 -18.28816374 0 6585.95274785 0 609.15848263 0 -2427.24190494 0 11364
0.10450000 0.10450100 16323.24728461 0 104.63912122 0 6837.61200661 0 255.16074963 0 -1619.10402170 0 12093
0.10550000 0.10551000 16208.67522013 0 115.45381463 0 5313.83682268 0 416.15058245 0 -2760.43255246 0 12067
0.10650000 0.10649700 16235.84865266 0 159.38715486 0 5675.35438721 0 446.38629446 0 -1367.43367175 0 12054
0.10750000 0.10749900 15415.54372637 0 236.11161887 0 5398.15210188 0 129.46865110 0 -2778.54447707 0 12807
0.10850000 0.10850100 15487.19285865 0 211.00336722 0 4901.80994725 0 285.14358234 0 -2093.16396166 0 12736
0.10950000 0.10950300 14765.15593732 0 204.68360320 0 4960.14964320 0 -59.28122766 0 -2698.80986221 0 12933
0.11050000 0.11050200 14720.01476574 0 286.41241527 0 4599.20882091 0 -126.56053926 0 -2604.25740823 0 13428
0.11150000 0.11150900 14441.84754628 0 100.11746205 0 4633.29206914 0 39.86087454 0 -2727.76897745 0 13453
0.11250000 0.11250000 14155.69466502 0 383.27738382 0 4683.06936104 0 -398.99360990 0 -3458.29066444 0 13668
0.11350000 0.11349100 13711.71405118 0 223.64622262 0 4671.83397853 0 5.45234369 0 -2790.01277472 0 13791
0.11450000 0.11448600 13773.60293015 0 -47.91929459 0 4781.22645403 0 417.86749974 0 -3359.22409330 0 14205
0.11550000 0.11549300 13635.62844011 0 113.35979665 0 4455.00107819 0 56.13188228 0 -3028.62878586 0 14776
0.11650000 0.11649800 13388.29474817 0 198.86072480 0 4500.33080012 0 16.28708998 0 -2824.11820534 0 14553
0.11750000 0.11747300 13335.94429857 0 -55.07156385 0 4641.14463657 0 297.41377353 0 -2525.46554511 0 14568
0.11850000 0.11849100 13505.08505203 0 5.06892101 0 4499.83169626 0 212.65262821 0 -2532.67482313 0 16015
0.11950000 0.11950300 13321.41483057 0 110.87769768 0 4016.42187727 0 53.27656454 0 -2846.28950803 0 15270
0.12050000 0.12050700 13303.11435561 0 63.54113458 0 4377.70652666 0 266.04786856 0 -1576.58037260 0 15999
0.12150000 0.12150000 13392.50940301 0 -139.87884855 0 3773.38047854 0 230.51278265 0 -2378.62918871 0 15670
0.12250000 0.12250700 13504.97414006 0 -146.85410231 0 3627.23177636 0 655.73707333 0 -1326.56261099 0 16887
0.12350000 0.12352200 13769.49918728 0 52.58846668 0 3530.64963333 0 171.47877778 0 -1809.25150218 0 16407
0.12450000 0.12449800 13527.93291775 0 219.33063789 0 3239.05097437 0 118.43956485 0 -363.48403375 0 16306
0.12550000 0.12549900 13249.76569829 0 116.07935814 0 3223.29038350 0 416.06628936 0 -489.96582550 0 17523
0.12650000 0.12650100 13131.86627473 0 72.09976762 0 3275.72956267 0 565.03326469 0 -33.38328278 0 17154
0.12750000 0.12750600 12885.64170248 0 309.35344704 0 2956.23654338 0 32.55144301 0 64.40469517 0 18007
0.12850000 0.12850300 12540.15091754 0 258.07440707 0 3313.57272666 0 8.20989253 0 728.49199795 0 17496
0.12950000 0.12949900 12338.18022111 0 216.41365309 0 3594.87875486 0 -513.35494163 0 998.28536372 0 18405
0.13050000 0.13049000 12128.88933470 0 11.16107149 0 3135.55901564 0 594.79649170 0 541.81938948 0 18100
0.13150000 0.13148800 12079.64442025 0 -29.75845780 0 3276.43939928 0 338.58762396 0 761.41954345 0 19059
0.13250000 0.13249300 12079.20077237 0 106.43312233 0 2818.84988678 0 30.21996250 0 774.31195079 0 18957
0.13350000 0.13349100 11864.69702339 0 244.27363071 0 3248.09029988 0 -128.83534375 0 797.58350022 0 19468
0.13450000 0.13450700 11677.14488300 0 243.32533337 0 3642.98127602 0 -260.75182201 0 846.57442626 0 19953
0.13550000 0.13551000 11480.49796111 0 12.68577833 0 3105.20240959 0 277.85999331 0 996.91116442 0 19956
0.13650000 0.13649900 11474.84145066 0 -48.37603008 0 3535.96231667 0 232.10769677 0 890.64086086 0 19723
0.13750000 0.13749600 11567.34203321 0 82.52061262 0 3061.84692072 0 -10.74231226 0 385.22943448 0 20946
0.13850000 0.13851100 11528.74466783 0 27.96878226 0 3514.25684424 0 145.85811283 0 1043.97554955 0 20955
0.13950000 0.13949800 11406.96332534 0 52.31351591 0 3214.22887559 0 -59.47621090 0 611.80816958 0 20506
0.14050000 0.14048300 11419.38546592 0 41.00648427 0 3324.00954299 0 10.68585806 0 1137.66843577 0 21447
0.14150000 0.14148400 11465.74666916 0 67.41617697 0 3120.06461350 0 286.26379323 0 293.46974389 0 21771
0.14250000 0.14249400 11462.86295796 0 -36.51222035 0 3244.81839678 0 -71.17476179 0 674.30706438 0 22470
0.14350000 0.14350900 11268.65609939 0 82.54024404 0 3007.64424124 0 195.84170099 0 161.42571686 0 22519
0.14450000 0.14449900 11351.39642863 0 289.91945175 0 3391.97639789 0 -492.24506648 0 39.39105143 0 22218
0.14550000 0.14550500 10897.53355831 0 180.12214756 0 2966.08552627 0 -374.20256648 0 -346.35257094 0 23559
0.14650000 0.14650700 10688.54213421 0 278.64968653 0 3579.45089990 0 -173.98095181 0 -604.39592266 0 23044
0.14750000 0.14750500 10362.53858232 0 131.80445717 0 3249.19941957 0 112.85181983 0 -581.31070533 0 23649
0.14850000 0.14849900 10230.22060272 0 28.84332314 0 3040.80692011 0 807.02987266 0 -725.38535369 0 23640
0.14950000 0.14949500 10303.11194907 0 -15.00328394 0 2649.28766784 0 538.43435617 0 -172.51025909 0 24457
0.15050000 0.15050000 10090.19424125 0 2.23832555 0 1744.62309756 0 632.24591820 0 -352.62686105 0 24591
0.15150000 0.15149900 10048.74643826 0 134.13582677 0 2138.29404204 0 127.16390037 0 605.05806712 0 25020
0.15250000 0.15250500 9920.67638709 0 114.94251045 0 1540.57834731 0 -261.78108509 0 135.85274406 0 25297
0.15350000 0.15350100 9610.02305177 0 293.59840178 0 2141.06684128 0 -209.71235190 0 181.65606010 0 25452
0.15450000 0.15450400 9357.93123634 0 169.44687050 0 2266.81883228 0 -381.69356090 0 -40.03578271 0 26061
0.15550000 0.15549900 9302.16469808 0 96.37784318 0 2704.10036316 0 -64.25895685 0 77.52103377 0 26128
0.15650000 0.15649500 9306.68990644 0 24.69222085 0 2524.84443808 0 83.26782656 0 -475.14244078 0 26331
0.15750000 0.15749700 9253.55198186 0 114.66301229 0 2858.06835919 0 -21.94504228 0 -234.50228620 0 27345
0.15850000 0.15849900 8989.07129943 0 238.30102115 0 2862.77102670 0 -262.57854215 0 -70.19052897 0 26980
0.15950000 0.15949700 8884.69204495 0 172.89401451 0 3135.02663819 0 85.20102219 0 36.80513886 0 27777
0.16050000 0.16050000 8597.96242144 0 61.54017174 0 2782.89222628 0 564.44432213 0 804.95914619 0 28224
0.16150000 0.16150500 8593.89195216 0 -114.87707239 0 2535.43653117 0 778.02750176 0 1076.50713932 0 28075
0.16250000 0.16249700 8757.89748144 0 -102.17820645 0 1838.11079664 0 724.57236895 0 1247.89275104 0 28590
0.16350000 0.16349900 8777.95036552 0 -14.76249405 0 1536.58551640 0 425.62357377 0 1456.89526633 0 29163
0.16450000 0.16449100 8598.66116685 0 170.62142825 0 1315.23849891 0 -249.54527662 0 1418.63063686 0 28996
0.16550000 0.16550500 8292.35558073 0 276.15083986 0 1536.74079316 0 -497.72744513 0 1216.31611333 0 30777
0.16650000 0.16650700 8203.21563086 0 114.76616042 0 1556.17257021 0 -201.13442018 0 777.26775477 0 29211
0.16750000 0.16749900 8054.56031816 0 25.95650639 0 1589.43506986 0 147.62272226 0 664.60892177 0 30922
0.16850000 0.16850800 8017.67099711 0 -105.92481277 0 1393.30943423 0 65.55851239 0 309.97677231 0 30867
0.16950000 0.16949900 8234.51498865 0 68.69122097 0 1264.97319434 0 295.85435123 0 517.89456854 0 30852
0.17050000 0.17049200 8101.06570697 0 6.05379712 0 1029.53370200 0 -18.42769099 0 166.78387411 0 31257
0.17150000 0.17149500 8061.03757718 0 68.69632292 0 1166.18390312 0 -114.96247461 0 573.78310996 0 32608
0.17250000 0.17250900 8046.87411868 0 98.22430565 0 1374.77604413 0 -20.84313186 0 521.36056759 0 32361
0.17350000 0.17350400 7999.88071721 0 40.27779263 0 1436.16581923 0 -176.66723971 0 241.35664591 0 32508
0.17450000 0.17449800 7906.63702446 0 134.10144406 0 1635.54117558 0 -266.83756178 0 313.98624001 0 32791
0.17550000 0.17549800 7881.14945388 0 132.54091265 0 1851.16513545 0 -105.97272675 0 55.48593097 0 33633
0.17650000 0.17650100 7786.30862877 0 49.52596538 0 2283.93254917 0 -233.28003629 0 31.33706786 0 33984
0.17750000 0.17750300 7702.35935907 0 65.72133116 0 2025.92912576 0 110.27677663 0 119.32020589 0 34069
0.17850000 0.17849800 7599.42196020 0 55.75078876 0 2187.42804452 0 132.58749568 0 225.54836290 0 34536
