### header ###
fiducial parameters:
Omega_m = 0.31
Omega_nu = 0
Omega_de = 0.69
Omega_k = 0
H_0 = 100
w_de = -1
zeff = 0
beta = 0
fgrowth = 0
b_1 = 2
gamma = 0.55
Lx = 3500 Ly = 3500 Lz = 3500
nx = 700 ny = 700 nz = 700
xoffset = 1379.75464 yoffset = 22.6059522 zoffset = 368.141391
bins = 400 dk = 0.001
kx_ny = 0.628318531 ky_ny = 0.628318531 kz_ny = 0.628318531
############################
A(data) = 3.33223871 (not used)
A(ran) = 3.3299563 (used)
Ngal = 187063
weighted Ngal = 0
Nran = 9399747
weighted Nran = 0
SN(data) = 6665.20656
SN(ran) = 132.450287
SN(data+ran) = 6797.65684
############################
13 columns: k_central k_mean P_0(k) sigma^{lin}_{P_0(k)} P^img_1(k) sigma^{lin}_{P_1(k)} P_2(k) sigma^{lin}_{P_2(k)} P^img_3(k) sigma^{lin}_{P_3(k)} P_4(k) sigma^{lin}_{P_4(k)} N_modes
### header ###
0.00050000 0 0 0 0 0 0 0 0 0 0 0 0
0.00150000 0.00179520 -3335.20056071 0 -6702.05539751 0 -6560.65372762 0 3444.48212424 0 -5208.70336681 0 3
0.00250000 0.00253879 7526.07587478 0 -13751.75327216 0 -9994.58812356 0 -5533.22069832 0 3107.40955779 0 6
0.00350000 0.00331552 26991.98054107 0 -20200.61882574 0 -16230.41396615 0 -18976.59433053 0 -18208.75076581 0 7
0.00450000 0.00420575 48541.17800374 0 -16055.39487831 0 -22494.72200251 0 -18104.49351449 0 -3700.95496247 0 24
0.00550000 0.00557378 55791.38253683 0 2066.26780906 0 -8599.79246894 0 -25967.93032684 0 10144.11964081 0 45
0.00650000 0.00659388 63442.09019171 0 -3771.98298773 0 9045.56985668 0 14777.02351806 0 26560.97662766 0 40
0.00750000 0.00754703 63506.19731007 0 -10483.25516990 0 5045.99550758 0 14955.03722907 0 -8645.32183241 0 57
0.00850000 0.00846663 86717.07789953 0 -11119.36858847 0 -20736.98911015 0 23031.75775874 0 12125.22923971 0 75
0.00950000 0.00948925 83778.68709203 0 6932.16446059 0 2401.65451358 0 -17497.02865764 0 15582.90988831 0 112
0.01050000 0.01054430 83787.78187353 0 -4829.31788400 0 4268.15877440 0 -2046.59202567 0 16657.64687260 0 105
0.01150000 0.01145670 88600.80678921 0 -4265.47470474 0 12144.63883436 0 1190.68435718 0 -10118.87607656 0 144
0.01250000 0.01249090 94431.67084883 0 2085.41121499 0 16947.57076082 0 -23753.90559204 0 -7561.93371451 0 169
0.01350000 0.01339930 92076.67700082 0 7346.13229549 0 20574.94672274 0 -20739.54008545 0 -22082.12947603 0 180
0.01450000 0.01448870 85734.28693794 0 9386.85707798 0 58069.62530196 0 -14713.02731166 0 3014.45423616 0 267
0.01550000 0.01550050 70256.41068473 0 8499.66114289 0 25781.70913008 0 10572.99404441 0 -27851.88104047 0 238
0.01650000 0.01653350 74235.82123778 0 741.74043271 0 63601.02704398 0 23610.82915141 0 15775.00941946 0 315
0.01750000 0.01747870 64972.67537057 0 -963.14734267 0 29484.72705519 0 23808.03063315 0 -3686.84695995 0 297
0.01850000 0.01844180 74894.63833651 0 84.12062869 0 48835.76019469 0 19461.39054914 0 37781.27510836 0 388
0.01950000 0.01947590 63948.07059649 0 -1862.78870985 0 18003.67453423 0 11750.45769482 0 20852.89211826 0 399
0.02050000 0.02045430 72919.29616003 0 426.42546731 0 28750.82255312 0 2795.12581651 0 32772.60147852 0 462
0.02150000 0.02154770 68701.97943244 0 1951.24100551 0 22032.21908977 0 -6601.55806196 0 18837.28889686 0 571
0.02250000 0.02255340 66314.93202524 0 2791.78736623 0 25476.70121401 0 1692.80502542 0 18752.77397612 0 510
0.02350000 0.02348930 65806.28973319 0 3147.69278510 0 38695.96612068 0 -4259.13054009 0 16645.66837989 0 555
0.02450000 0.02439640 59955.57243104 0 2105.85229097 0 26411.02364492 0 22.14568203 0 -695.75854840 0 592
0.02550000 0.02547300 62955.51938159 0 231.25367461 0 38998.31214949 0 6618.17267499 0 6175.40100162 0 837
0.02650000 0.02652900 58739.31177370 0 702.02840203 0 22377.04440289 0 -1724.65894305 0 -1753.78442624 0 723
0.02750000 0.02749970 63244.33415012 0 -941.20451862 0 29038.41728999 0 9641.47768632 0 15879.59940668 0 826
0.02850000 0.02848090 58050.88117912 0 989.97583897 0 19092.16460273 0 2257.10294375 0 -5150.30821488 0 831
0.02950000 0.02946900 59123.95448386 0 1844.69896763 0 21389.26240268 0 1395.92695671 0 4298.27137412 0 996
0.03050000 0.03053250 54819.35003628 0 2194.10494509 0 13708.27578013 0 3811.73383759 0 -3914.87087801 0 1041
0.03150000 0.03150510 52141.38053314 0 1605.68367339 0 17230.17445906 0 -1464.13781794 0 -1970.53968820 0 1036
0.03250000 0.03246190 51016.40042668 0 255.81069377 0 13560.87377268 0 1746.75260738 0 -5698.88990713 0 1059
0.03350000 0.03345080 49809.56728674 0 221.33038070 0 8913.17423871 0 773.74962710 0 -14270.48855343 0 1302
0.03450000 0.03451200 49402.40944677 0 -27.73997086 0 9290.77403881 0 -133.77314463 0 -7705.75326534 0 1339
0.03550000 0.03553350 49567.44645736 0 -660.10035021 0 1394.69583385 0 3235.90107443 0 -11934.79338810 0 1365
0.03650000 0.03647120 49606.93111850 0 -742.80518761 0 4510.20196540 0 2065.99052914 0 -7141.11151990 0 1308
0.03750000 0.03744890 47941.47698475 0 1923.84574905 0 340.46092712 0 615.74443538 0 -9614.57044252 0 1579
0.03850000 0.03847530 47280.77438255 0 2177.97834472 0 4643.83979743 0 -1096.45798439 0 -737.20080580 0 1662
0.03950000 0.03950240 43880.10248625 0 819.71265637 0 3802.07340505 0 -555.50481739 0 -1740.37516913 0 1683
0.04050000 0.04050350 43359.48170150 0 937.62649849 0 8604.41749807 0 1759.30784232 0 -2358.72049019 0 1822
0.04150000 0.04152450 43666.37512106 0 1037.45836222 0 8887.62012094 0 -1862.28960599 0 3126.88569963 0 1887
0.04250000 0.04250150 39909.23215485 0 983.74147716 0 7402.07629290 0 -3025.00196446 0 -3527.86574290 0 1920
0.04350000 0.04349210 41219.54616231 0 935.57906353 0 13335.72247463 0 355.60262919 0 4996.69513714 0 2005
0.04450000 0.04448520 41272.22934782 0 -721.80400619 0 11995.46223541 0 -228.22799608 0 -2845.13602355 0 2151
0.04550000 0.04548030 40831.68700503 0 -513.00778716 0 13119.55504611 0 179.89588714 0 -886.67243059 0 2274
0.04650000 0.04648670 40673.97018443 0 1837.96661108 0 15934.38991960 0 -3362.75109393 0 -4699.68397407 0 2311
0.04750000 0.04749250 39702.38133177 0 1966.89068440 0 16730.95968442 0 -2244.91371830 0 -4812.60345020 0 2568
0.04850000 0.04851840 37961.61797074 0 141.93737471 0 20428.32109908 0 -653.79611387 0 -3457.81374297 0 2493
0.04950000 0.04949480 39189.63529685 0 -826.38179310 0 17366.81800547 0 2429.32704996 0 -4744.75859846 0 2644
0.05050000 0.05050630 39051.88263075 0 -191.61817320 0 16709.99732219 0 2309.57539651 0 -4742.81763900 0 2829
0.05150000 0.05149060 38519.61608921 0 1312.98698593 0 17277.09022215 0 -1771.94071564 0 -4375.48828727 0 2784
0.05250000 0.05249300 37730.25560240 0 1854.30394418 0 18357.37280491 0 540.47180905 0 -2476.40918101 0 3055
0.05350000 0.05348950 35048.84782820 0 1125.52357511 0 18610.91756715 0 -1315.03885736 0 -5195.38283927 0 3009
0.05450000 0.05448610 34304.40668904 0 382.93577495 0 18319.66273529 0 2563.61926261 0 -1598.89586086 0 3336
0.05550000 0.05550870 33001.63469550 0 -364.15172380 0 14477.89393636 0 4076.14797284 0 -2199.69490835 0 3349
0.05650000 0.05647670 33656.34805135 0 105.91483070 0 15499.17135135 0 1417.06677809 0 -1670.87772905 0 3324
0.05750000 0.05747970 32796.78028786 0 668.44093032 0 11571.44577608 0 166.92473231 0 -2040.58059693 0 3639
0.05850000 0.05849280 33198.17070542 0 293.36215928 0 12028.18126641 0 -117.36926435 0 -4873.62721581 0 3846
0.05950000 0.05951020 31054.68598321 0 599.20524249 0 10261.18722460 0 -75.93122160 0 -3985.36652581 0 3787
0.06050000 0.06049470 30836.07849136 0 688.15109641 0 11555.58536444 0 -1359.21509481 0 -8413.92619048 0 3930
0.06150000 0.06148310 30402.30177871 0 848.81817541 0 12141.31147528 0 -1000.97497898 0 -5575.71107383 0 4083
0.06250000 0.06249100 29562.14360988 0 269.02363670 0 11666.16459802 0 681.85573303 0 -9596.17014678 0 4303
0.06350000 0.06350600 28958.11702408 0 -305.64122342 0 11921.15121586 0 1318.36621645 0 -4754.74067572 0 4470
0.06450000 0.06451750 29687.47413540 0 129.91118985 0 9520.11780931 0 258.25741182 0 -9606.68460149 0 4479
0.06550000 0.06550280 29646.99126654 0 369.48437130 0 10839.08295039 0 930.60355258 0 -7217.72950842 0 4636
0.06650000 0.06648880 28011.59427652 0 584.40736752 0 10603.80538953 0 -326.42501738 0 -6187.95623656 0 4653
0.06750000 0.06749660 28096.33102121 0 469.46707530 0 10405.70552084 0 602.23424837 0 -3746.40668756 0 5220
0.06850000 0.06852730 28072.15221186 0 -635.68197101 0 9661.05364893 0 3365.79008189 0 -3359.52355562 0 5029
0.06950000 0.06949320 27746.18193355 0 -17.55647747 0 8796.40611724 0 356.70065769 0 -3848.15732837 0 5040
0.07050000 0.07048030 28364.84889932 0 500.21076413 0 8355.15393785 0 377.85822499 0 -1873.58044448 0 5475
0.07150000 0.07148790 27668.09990704 0 500.33609465 0 7956.65832270 0 28.41841938 0 -952.58963229 0 5509
0.07250000 0.07249820 26482.11821736 0 608.74145362 0 8109.16228074 0 -820.38921939 0 -1473.28805542 0 5916
0.07350000 0.07351270 26003.75489299 0 872.16403586 0 9512.24305948 0 -162.07455188 0 -809.50875518 0 5721
0.07450000 0.07449140 25657.15498835 0 -14.87839706 0 8711.95774368 0 281.21064390 0 -1472.63367480 0 6028
0.07550000 0.07549160 25235.35676841 0 -67.31535799 0 9254.68328395 0 1441.85560327 0 -119.64406884 0 6183
0.07650000 0.07648840 25402.83384233 0 307.07753343 0 7841.38751282 0 569.98992061 0 -1047.03006519 0 6330
0.07750000 0.07749960 24626.00640808 0 -1.85407103 0 8684.90631432 0 206.88742403 0 -1034.35171795 0 6583
0.07850000 0.07848650 24489.36286168 0 221.79842921 0 6981.67556377 0 505.64988711 0 -973.20151270 0 6549
0.07950000 0.07947320 24599.38753540 0 214.77659242 0 6975.09848398 0 406.97039874 0 -436.03820770 0 6828
0.08050000 0.08048110 23942.89958804 0 135.39689587 0 6236.86841511 0 203.17409130 0 -1974.76543424 0 7147
0.08150000 0.08149960 23707.98803667 0 432.54337154 0 5728.03757271 0 180.71663572 0 -802.66215931 0 7386
0.08250000 0.08250610 23189.80731525 0 461.93060698 0 6126.51100547 0 -191.24772722 0 -2864.83398933 0 7227
0.08350000 0.08350160 22500.37851295 0 326.54147495 0 5811.07736426 0 581.32956037 0 -582.43424358 0 7798
0.08450000 0.08449610 21996.28361165 0 235.80217448 0 5784.58049475 0 -85.04607817 0 -2684.14729985 0 7371
0.08550000 0.08548940 21967.66832353 0 279.09888001 0 6312.89857019 0 -429.63304147 0 -2066.21235308 0 8256
0.08650000 0.08650700 21637.37247841 0 352.28968867 0 5371.37795245 0 -168.93223896 0 -2581.46499850 0 8037
0.08750000 0.08749060 21123.85005971 0 220.52072332 0 6881.66624089 0 543.51079701 0 -1389.08368819 0 8155
0.08850000 0.08849210 20979.22085150 0 -49.07211360 0 5206.48512742 0 314.91568231 0 -1047.39829293 0 8718
0.08950000 0.08949900 20976.33714030 0 301.69164819 0 6753.30781861 0 328.52790832 0 -1599.19532318 0 8571
0.09050000 0.09049190 20560.08451883 0 551.58740663 0 5441.47431716 0 -211.86626234 0 -1062.47344782 0 8932
0.09150000 0.09150830 19728.24474771 0 603.17145452 0 6844.78801104 0 -604.41034121 0 -1013.39822868 0 9285
0.09250000 0.09250820 19060.44377946 0 587.39311774 0 7458.14229347 0 -122.93149962 0 -46.49817953 0 9204
0.09350000 0.09350330 18868.56607226 0 -4.54538324 0 6590.71087135 0 1561.68489510 0 813.22208792 0 9349
0.09450000 0.09448040 18551.80148741 0 -230.77564402 0 6586.58494608 0 1100.65156595 0 669.89831360 0 9564
0.09550000 0.09549270 18961.51030268 0 130.01433799 0 5856.14089746 0 816.18011015 0 1794.15638313 0 10155
0.09650000 0.09649430 18491.90902389 0 305.78984546 0 6192.20416500 0 -138.90947794 0 2218.94922625 0 9913
0.09750000 0.09749140 18035.72809341 0 547.51360999 0 6771.69702315 0 -1001.58388569 0 3290.50303701 0 10476
0.09850000 0.09850240 17717.07800509 0 230.17561027 0 7262.78195042 0 -62.72637525 0 2150.42781150 0 10575
0.09950000 0.09950330 17464.30962664 0 195.54445692 0 7889.47894279 0 -227.22867924 0 2369.57877200 0 10882
0.10050000 0.10051200 17288.29233107 0 345.58173275 0 8135.18222878 0 -371.67488269 0 1748.83775240 0 10875
0.10150000 0.10150300 16784.97381356 0 339.59914112 0 9411.29098485 0 -574.12804619 0 1619.45894000 0 11118
0.10250000 0.10250800 16677.27829119 0 192.32024596 0 8578.73028594 0 321.60145583 0 2128.97743661 0 11575
0.10350000 0.10349800 16206.45698074 0 218.76942332 0 9343.64577467 0 578.91611591 0 1110.53936803 0 11364
0.10450000 0.10450100 16145.45539753 0 127.97799423 0 8639.23276529 0 342.51058032 0 2010.45690602 0 12093
0.10550000 0.10551000 16144.56810177 0 48.28863145 0 8265.84762003 0 943.50150551 0 1512.75053416 0 12067
0.10650000 0.10649700 16039.86720258 0 74.51543031 0 8005.16012696 0 288.79369526 0 2061.16585846 0 12054
0.10750000 0.10749900 15781.88596156 0 221.55775024 0 7349.75911689 0 414.08318334 0 1574.40649800 0 12807
0.10850000 0.10850100 15446.04451797 0 116.64168183 0 6679.08552863 0 158.88583276 0 1431.24132779 0 12736
0.10950000 0.10950300 15264.81435984 0 -15.21667857 0 6868.83372602 0 480.59930968 0 1431.87352602 0 12933
0.11050000 0.11050200 15240.52463852 0 61.18791532 0 5429.06326778 0 503.21204202 0 283.03958228 0 13428
0.11150000 0.11150900 15092.23533532 0 96.18441270 0 5275.81619954 0 699.55284688 0 920.77564297 0 13453
0.11250000 0.11250000 14504.84554495 0 366.41543710 0 4924.20307389 0 -417.12438955 0 -16.87292701 0 13668
0.11350000 0.11349100 14618.86304957 0 238.52728157 0 4958.36396049 0 151.57895221 0 154.94069401 0 13791
0.11450000 0.11448600 13960.93324661 0 166.07181926 0 4979.91415616 0 -54.13258312 0 -1562.03981340 0 14205
0.11550000 0.11549300 13675.00218928 0 338.98690705 0 5126.15158792 0 -365.95626155 0 88.32031042 0 14776
0.11650000 0.11649800 13365.11414655 0 12.34228396 0 4431.99793572 0 339.80543738 0 -1545.70248030 0 14553
0.11750000 0.11747300 13581.28157507 0 -237.53794680 0 4478.08185904 0 792.92187015 0 -629.63172307 0 14568
0.11850000 0.11849100 13864.77256906 0 -277.73799014 0 3239.97154371 0 574.49294657 0 -1238.48741603 0 16015
0.11950000 0.11950300 13954.50035238 0 224.34164067 0 3069.56639380 0 26.82516894 0 -1073.69108441 0 15270
0.12050000 0.12050700 13637.51394360 0 232.07885966 0 3206.83104723 0 -211.08655120 0 -396.54578273 0 15999
0.12150000 0.12150000 13531.14936486 0 93.60005290 0 3351.63771459 0 297.59123268 0 -1074.85122361 0 15670
0.12250000 0.12250700 13439.42516610 0 -10.69979970 0 3363.08382984 0 427.39040144 0 -11.03221396 0 16887
0.12350000 0.12352200 13391.62210725 0 28.98795234 0 3223.57875462 0 418.60617346 0 -55.10738842 0 16407
0.12450000 0.12449800 13584.38711021 0 146.09324620 0 2811.34114645 0 -129.51190676 0 -183.74342336 0 16306
0.12550000 0.12549900 13057.44434320 0 306.01056028 0 3620.90979410 0 -622.03203493 0 -303.94094293 0 17523
0.12650000 0.12650100 12910.15324773 0 302.69207415 0 3529.44069286 0 -626.97094493 0 -236.08943648 0 17154
0.12750000 0.12750600 12614.01828921 0 -24.02042705 0 4405.21269509 0 -364.48445971 0 -1038.84476184 0 18007
0.12850000 0.12850300 12894.18192413 0 19.97613300 0 4332.39898713 0 84.66576102 0 -1426.58302507 0 17496
0.12950000 0.12949900 12889.41270944 0 71.00173912 0 4631.41765685 0 160.50625664 0 -1078.25400284 0 18405
0.13050000 0.13049000 12649.73194339 0 -99.46773974 0 3990.84557711 0 392.33778261 0 -1244.46557118 0 18100
0.13150000 0.13148800 12916.47522999 0 -18.35227085 0 4281.44602835 0 240.37507498 0 -234.91709696 0 19059
0.13250000 0.13249300 12793.36294387 0 236.96453192 0 3943.70799008 0 207.92001447 0 -626.19234290 0 18957
0.13350000 0.13349100 12483.03125326 0 220.71925575 0 4135.41932933 0 139.00264399 0 2.21058646 0 19468
0.13450000 0.13450700 12249.22882159 0 126.46182760 0 4091.50928061 0 -104.39511489 0 477.95516833 0 19953
0.13550000 0.13551000 12151.95902435 0 184.35343919 0 4399.32326951 0 475.81123996 0 205.23927217 0 19956
0.13650000 0.13649900 12005.33340070 0 -51.07551651 0 3894.08597493 0 10.90883549 0 1103.99223447 0 19723
0.13750000 0.13749600 11940.22807461 0 135.80948839 0 3900.43013958 0 443.28630491 0 221.66977133 0 20946
0.13850000 0.13851100 11756.77967709 0 170.04579513 0 3672.88314299 0 -13.91313019 0 957.32779163 0 20955
0.13950000 0.13949800 11586.41889196 0 157.39628501 0 3555.26099936 0 251.86222766 0 731.17052202 0 20506
0.14050000 0.14048300 11290.28393344 0 136.44834134 0 3577.84267635 0 206.43712144 0 928.69919407 0 21447
0.14150000 0.14148400 11146.32019706 0 205.11948724 0 3321.84675958 0 -81.48602577 0 586.74761007 0 21771
0.14250000 0.14249400 10896.49098580 0 141.09666198 0 3410.63179115 0 88.62809113 0 699.62715790 0 22470
0.14350000 0.14350900 10701.16391634 0 85.09554491 0 3322.43459302 0 93.62944457 0 674.42463107 0 22519
0.14450000 0.14449900 10657.05422608 0 93.63831753 0 2982.45613297 0 129.22686300 0 35.90863742 0 22218
0.14550000 0.14550500 10565.37439210 0 92.58720480 0 2909.63133381 0 -23.59252868 0 661.16621424 0 23559
0.14650000 0.14650700 10363.61442842 0 51.70893476 0 2794.06106161 0 257.91136647 0 -65.55562868 0 23044
0.14750000 0.14750500 10418.39385015 0 42.01667049 0 2700.87282485 0 458.51119096 0 995.03897037 0 23649
0.14850000 0.14849900 10171.68126523 0 15.70557853 0 2011.82112324 0 476.10072020 0 672.74986033 0 23640
0.14950000 0.14949500 10289.66941837 0 7.67993296 0 1844.67678523 0 495.46927743 0 1252.85051607 0 24457
0.15050000 0.15050000 10204.99922086 0 207.11590269 0 1941.04819551 0 -108.57838164 0 1176.39889551 0 24591
0.15150000 0.15149900 9875.55739791 0 162.08897044 0 1783.84156997 0 -224.61448412 0 1369.69627592 0 25020
0.15250000 0.15250500 9686.36376037 0 181.79359094 0 2151.39274564 0 -47.39512462 0 1334.44845202 0 25297
0.15350000 0.15350100 9539.93777826 0 -35.44380535 0 1743.38088350 0 -89.77126080 0 627.63530762 0 25452
0.15450000 0.15450400 9738.25947089 0 -60.51279417 0 1917.74559073 0 283.27582478 0 753.73001661 0 26061
0.15550000 0.15549900 9641.40004794 0 112.24291312 0 1702.83146746 0 -112.24956783 0 113.74798854 0 26128
0.15650000 0.15649500 9389.81842756 0 269.87433150 0 1925.03250712 0 -390.63528388 0 140.61419491 0 26331
0.15750000 0.15749700 9189.42268110 0 203.66099484 0 1929.22497957 0 -295.17556998 0 -698.21746676 0 27345
0.15850000 0.15849900 9014.25940770 0 155.00945943 0 2618.09922202 0 -153.19937609 0 -163.37111281 0 26980
0.15950000 0.15949700 8722.35019522 0 227.22646100 0 2300.66916536 0 -173.78020114 0 -930.45493054 0 27777
0.16050000 0.16050000 8516.25357353 0 153.81382840 0 2728.71172919 0 -8.61880278 0 -295.83216884 0 28224
0.16150000 0.16150500 8581.92455066 0 -57.47302982 0 2230.82789818 0 408.08062756 0 -811.01604885 0 28075
0.16250000 0.16249700 8502.60031008 0 -117.82622166 0 2126.54846447 0 337.65596341 0 -485.30419543 0 28590
0.16350000 0.16349900 8677.60830673 0 35.60507136 0 1964.79444818 0 146.33392518 0 -319.81133664 0 29163
0.16450000 0.16449100 8671.85197551 0 9.19789636 0 1458.81404340 0 125.27950601 0 -237.41705275 0 28996
0.16550000 0.16550500 8546.64345316 0 49.81112005 0 1675.19220467 0 16.56414808 0 -251.29879485 0 30777
0.16650000 0.16650700 8599.14917952 0 132.87808504 0 1832.84247809 0 -250.69321550 0 -483.68820803 0 29211
0.16750000 0.16749900 8373.90915189 0 134.35765071 0 1973.78940891 0 -173.79905618 0 -378.81428617 0 30922
0.16850000 0.16850800 8183.06292600 0 206.62899915 0 2409.46271623 0 -278.22156633 0 -653.66080126 0 30867
0.16950000 0.16949900 8171.69444913 0 63.48312762 0 2490.70573387 0 -23.87823791 0 -378.17876058 0 30852
0.17050000 0.17049200 8028.72892047 0 41.14501332 0 2456.52266488 0 252.11399783 0 -593.66962609 0 31257
0.17150000 0.17149500 7976.33410609 0 139.13573836 0 2458.59671871 0 -92.01012982 0 -291.77279076 0 32608
0.17250000 0.17250900 7897.46460459 0 16.89987861 0 2238.09263218 0 194.34771676 0 -104.38435643 0 32361
0.17350000 0.17350400 7932.31314540 0 -31.42979026 0 2378.54045914 0 457.10815455 0 238.95983825 0 32508
0.17450000 0.17449800 7946.76497502 0 -60.74116191 0 1957.38552862 0 236.33344281 0 216.38370686 0 32791
0.17550000 0.17549800 7975.30262477 0 6.46641183 0 1790.76247687 0 110.60629609 0 -6.01884876 0 33633
0.17650000 0.17650100 7962.81393701 0 111.76820989 0 1998.88878760 0 -108.74308592 0 519.40408044 0 33984
0.17750000 0.17750300 7989.78772799 0 49.78915948 0 1892.25802014 0 -157.90869831 0 180.46153819 0 34069
0.17850000 0.17849800 7744.40608670 0 126.58050341 0 2232.75776645 0 35.56691764 0 476.83717568 0 34536
