### header ###
fiducial parameters:
Omega_m = 0.31
Omega_nu = 0
Omega_de = 0.69
Omega_k = 0
H_0 = 100
w_de = -1
zeff = 0
beta = 0
fgrowth = 0
b_1 = 2
gamma = 0.55
Lx = 3500 Ly = 3500 Lz = 3500
nx = 700 ny = 700 nz = 700
xoffset = 1379.75464 yoffset = 22.6059522 zoffset = 368.141391
bins = 400 dk = 0.001
kx_ny = 0.628318531 ky_ny = 0.628318531 kz_ny = 0.628318531
############################
A(data) = 3.30909973 (not used)
A(ran) = 3.30711301 (used)
Ngal = 186103
weighted Ngal = 0
Nran = 9399747
weighted Nran = 0
SN(data) = 6650.96779
SN(ran) = 131.541686
SN(data+ran) = 6782.50948
############################
13 columns: k_central k_mean P_0(k) sigma^{lin}_{P_0(k)} P^img_1(k) sigma^{lin}_{P_1(k)} P_2(k) sigma^{lin}_{P_2(k)} P^img_3(k) sigma^{lin}_{P_3(k)} P_4(k) sigma^{lin}_{P_4(k)} N_modes
### header ###
0.00050000 0 0 0 0 0 0 0 0 0 0 0 0
0.00150000 0.00179520 52527.79783481 0 -28495.28137543 0 -65815.38451469 0 71426.97561065 0 -46486.31194515 0 3
0.00250000 0.00253879 89029.70337520 0 -22090.55878571 0 -18647.62942905 0 -47717.98936625 0 196.74896090 0 6
0.00350000 0.00331552 85450.35229607 0 -3847.03711748 0 -37835.28923750 0 -40448.59706244 0 94612.12462318 0 7
0.00450000 0.00420575 78647.45573591 0 3315.32513578 0 -23754.90379976 0 -28981.63036161 0 1426.58302507 0 24
0.00550000 0.00557378 74683.79468252 0 -7689.94830969 0 -38934.98141492 0 -7122.34521466 0 -27232.21586697 0 45
0.00650000 0.00659388 77236.87730803 0 -2473.92475289 0 -18575.64756085 0 -26389.28489891 0 -20281.47365149 0 40
0.00750000 0.00754703 83021.71290032 0 3053.62834378 0 -40601.32284442 0 -36634.44534392 0 -25329.96467838 0 57
0.00850000 0.00846663 74411.39488547 0 7245.43531840 0 -4711.11899812 0 -42218.19753553 0 -33076.72209884 0 75
0.00950000 0.00948925 69556.33433336 0 6053.67511511 0 7087.54103864 0 -26959.70515795 0 -29891.88489515 0 112
0.01050000 0.01054430 60104.30538211 0 -3736.61316066 0 13200.74260777 0 11932.46423675 0 -19424.90051118 0 105
0.01150000 0.01145670 75844.71026709 0 -5590.15181225 0 12547.58201949 0 4359.60569324 0 -32117.55538675 0 144
0.01250000 0.01249090 67279.31159989 0 1097.98856957 0 8968.50822029 0 8386.47547804 0 -16658.86690426 0 169
0.01350000 0.01339930 76463.04449696 0 4763.73563644 0 19454.18127112 0 3242.48924542 0 7720.38255411 0 180
0.01450000 0.01448870 67628.57339179 0 2060.91076093 0 20937.29612704 0 -16048.18560029 0 -6359.40395899 0 267
0.01550000 0.01550050 66441.92623030 0 5570.97513273 0 32099.80947164 0 -9214.84370451 0 -5316.74271628 0 238
0.01650000 0.01653350 65746.84091755 0 236.93680393 0 33452.93549932 0 -4065.71115651 0 -12659.15946079 0 315
0.01750000 0.01747870 69020.85134470 0 -2873.62930851 0 31099.60533085 0 3023.37155851 0 591.04877625 0 297
0.01850000 0.01844180 72111.08063841 0 -1818.44610445 0 44221.26770438 0 12913.14787091 0 -4008.43621547 0 388
0.01950000 0.01947590 78995.83023205 0 -1784.35176503 0 30271.53656669 0 890.00311703 0 -4761.93886254 0 399
0.02050000 0.02045430 81392.74880453 0 -2021.11554628 0 35815.36044929 0 12455.74690876 0 12.65039742 0 462
0.02150000 0.02154770 83329.38270366 0 3087.85577757 0 43934.00570342 0 -2586.20093960 0 9339.93022369 0 571
0.02250000 0.02255340 76950.16986692 0 8215.03884681 0 46300.09074839 0 -8526.46856592 0 14886.16089603 0 510
0.02350000 0.02348930 68814.66599343 0 7340.86397694 0 67019.88850327 0 -785.00386464 0 20245.42726141 0 555
0.02450000 0.02439640 65392.14443915 0 4309.49566543 0 59675.51970809 0 2269.38089877 0 8549.66025873 0 592
0.02550000 0.02547300 58922.53834728 0 2315.30954534 0 64349.12827814 0 16321.13995719 0 24951.75486245 0 837
0.02650000 0.02652900 61051.60451346 0 -1430.93077427 0 51978.11811406 0 15481.86908412 0 27745.96010961 0 723
0.02750000 0.02749970 62656.72253581 0 -3229.30181225 0 51717.47498578 0 18517.41877687 0 34855.41735342 0 826
0.02850000 0.02848090 63208.73140792 0 -462.79461122 0 29531.53190631 0 10519.11300963 0 22513.13338944 0 831
0.02950000 0.02946900 62983.58010987 0 1276.23075924 0 33236.76807080 0 2098.34355063 0 33556.08363094 0 996
0.03050000 0.03053250 59469.66709274 0 2110.47732010 0 24507.10877679 0 -2226.56887855 0 19214.50050507 0 1041
0.03150000 0.03150510 58149.92556787 0 2852.06802164 0 32426.44522176 0 4522.01409015 0 17546.27357209 0 1036
0.03250000 0.03246190 53895.45333050 0 -12.36590821 0 24478.38257670 0 -184.86807073 0 15239.52643080 0 1059
0.03350000 0.03345080 55371.46982037 0 -1061.40758379 0 22918.18390199 0 4541.13531369 0 7303.17608971 0 1302
0.03450000 0.03451200 58794.43502253 0 -2084.55719283 0 21813.38977398 0 6753.45200417 0 6011.87239381 0 1339
0.03550000 0.03553350 56230.81575992 0 353.52635713 0 14824.38292902 0 -1398.65539116 0 -1818.33519248 0 1365
0.03650000 0.03647120 58387.94265438 0 3323.79881025 0 15627.05285217 0 -3360.76576967 0 4060.17664923 0 1308
0.03750000 0.03744890 55843.28933854 0 -738.18570409 0 14268.60304995 0 1043.81139983 0 -2394.78906267 0 1579
0.03850000 0.03847530 54562.58882693 0 1668.01620024 0 20202.61524119 0 626.62157222 0 1004.24799120 0 1662
0.03950000 0.03950240 53179.07291961 0 2880.61676259 0 13105.69104993 0 -2003.18108082 0 -6541.36613612 0 1683
0.04050000 0.04050350 48073.12949253 0 2018.84185091 0 20789.22864778 0 1394.65146906 0 -4631.75039276 0 1822
0.04150000 0.04152450 45369.42841246 0 3369.66090963 0 20250.86194791 0 -1675.94640606 0 -2907.67928314 0 1887
0.04250000 0.04250150 42111.50022089 0 1262.38894545 0 20926.53766600 0 4288.74403594 0 -2486.46889664 0 1920
0.04350000 0.04349210 40619.40149545 0 81.92102252 0 19265.18727512 0 1035.12810174 0 1084.17670201 0 2005
0.04450000 0.04448520 39277.14484077 0 215.31784283 0 12998.77191135 0 4509.19266648 0 -3577.94249712 0 2151
0.04550000 0.04548030 39178.21136399 0 1175.13449906 0 13108.90749704 0 2313.70132178 0 1040.55946089 0 2274
0.04650000 0.04648670 36721.84397587 0 712.62714984 0 8945.89326971 0 267.08600459 0 1434.95687877 0 2311
0.04750000 0.04749250 36401.41929604 0 -232.60680064 0 9219.97892869 0 3418.52872338 0 2025.58529865 0 2568
0.04850000 0.04851840 36865.58588832 0 -412.42615852 0 8035.02872034 0 1855.44633747 0 747.25497583 0 2493
0.04950000 0.04949480 36114.60094295 0 1064.18481951 0 5263.81552444 0 -1211.21416273 0 -475.02598322 0 2644
0.05050000 0.05050630 34834.23316725 0 1351.11852104 0 6379.17956315 0 -2327.38785881 0 114.66744877 0 2829
0.05150000 0.05149060 33140.82921720 0 1413.80596619 0 9763.81358866 0 -3991.41122815 0 -4248.22789349 0 2784
0.05250000 0.05249300 32971.57755177 0 93.75344416 0 9859.15351762 0 1150.82259535 0 -1713.91157321 0 3055
0.05350000 0.05348950 33218.02394796 0 -1231.52214434 0 12016.09186173 0 773.22612260 0 -3364.93605973 0 3009
0.05450000 0.05448610 34999.15926587 0 -633.09883124 0 7527.40681841 0 3093.02427534 0 -1847.03921018 0 3336
0.05550000 0.05550870 35778.31585148 0 -1048.19796823 0 7153.14546859 0 2964.73240024 0 -585.01072863 0 3349
0.05650000 0.05647670 36327.55192436 0 -440.57894373 0 3905.79827891 0 1373.81110999 0 2404.39403922 0 3324
0.05750000 0.05747970 36924.14740821 0 531.73194585 0 8116.65992988 0 -383.77870592 0 608.62721429 0 3639
0.05850000 0.05849280 34956.12542171 0 1803.59499174 0 7647.33593101 0 -3239.10643035 0 479.03434179 0 3846
0.05950000 0.05951020 34132.16040043 0 1260.09306768 0 10127.29429504 0 -3497.85296395 0 3147.95897383 0 3787
0.06050000 0.06049470 33443.17524601 0 -32.41258123 0 13104.47101826 0 20.16745615 0 -1003.47160741 0 3930
0.06150000 0.06148310 33071.28741233 0 -219.54358887 0 11304.14792963 0 1281.64326335 0 506.10240794 0 4083
0.06250000 0.06249100 34536.98908904 0 -246.02825806 0 11896.41784666 0 966.40149985 0 -1467.86446011 0 4303
0.06350000 0.06350600 33893.92148998 0 263.30612467 0 10601.59824134 0 1341.26953815 0 -1857.37620574 0 4470
0.06450000 0.06451750 33308.97176293 0 781.31493254 0 10027.93935278 0 -662.87536769 0 -1035.02273537 0 4479
0.06550000 0.06550280 32001.98511455 0 844.24194754 0 10646.81705130 0 -823.18863750 0 -3090.07401696 0 4636
0.06650000 0.06648880 31057.56969441 0 1350.27559007 0 11969.73065849 0 -1020.09065692 0 -4229.06230516 0 4653
0.06750000 0.06749660 29651.20592138 0 714.46828853 0 10385.39753923 0 -174.43347264 0 -3839.14018525 0 5220
0.06850000 0.06852730 28791.97089380 0 13.58760356 0 11312.02267946 0 2129.45435807 0 -3076.36529753 0 5029
0.06950000 0.06949320 27912.10623990 0 275.09384879 0 9502.28316462 0 93.28528473 0 -6994.44153146 0 5040
0.07050000 0.07048030 28007.26870971 0 844.41607934 0 9769.84719980 0 -1102.52930560 0 -5674.95510412 0 5475
0.07150000 0.07148790 26992.86783683 0 452.06942377 0 8465.07879081 0 722.23434463 0 -5377.26737803 0 5509
0.07250000 0.07249820 26537.79602604 0 -326.39285291 0 9276.81022186 0 1186.32551678 0 -4183.18911458 0 5916
0.07350000 0.07351270 27098.01238390 0 -16.66563253 0 7141.30007025 0 1709.15344972 0 -4861.27162241 0 5721
0.07450000 0.07449140 26174.55932599 0 855.59378762 0 8005.33758611 0 195.20506629 0 -3967.27678359 0 6028
0.07550000 0.07549160 25032.94242411 0 1026.43482157 0 8734.59487665 0 -223.75824371 0 -75.18256581 0 6183
0.07650000 0.07648840 23943.67597182 0 677.52572974 0 8886.56645723 0 246.84678840 0 -295.98633648 0 6330
0.07750000 0.07749960 24364.03233616 0 -345.72148183 0 8820.85111532 0 1242.15860222 0 1229.64773206 0 6583
0.07850000 0.07848650 23937.90854941 0 -353.98331444 0 7054.87746363 0 1350.29777246 0 -924.94815126 0 6549
0.07950000 0.07947320 24799.13999244 0 109.54841773 0 8141.93676772 0 -515.84380622 0 1628.86427501 0 6828
0.08050000 0.08048110 24193.00607922 0 343.65075536 0 6456.66266503 0 -75.04836233 0 -1300.15447106 0 7147
0.08150000 0.08149960 23752.46373644 0 364.28370905 0 7805.33003154 0 -494.58309079 0 -342.83444327 0 7386
0.08250000 0.08250610 23598.73974673 0 613.11138522 0 6730.08285220 0 -621.75031852 0 -2374.94691133 0 7227
0.08350000 0.08350160 22775.99475711 0 261.48827749 0 7882.25857357 0 827.61180684 0 -918.78033663 0 7798
0.08450000 0.08449610 21704.36330798 0 484.55775787 0 6657.61297134 0 148.01313239 0 -1972.60265083 0 7371
0.08550000 0.08548940 21649.68370702 0 605.77234020 0 7767.26504361 0 -388.70541561 0 -2497.23844888 0 8256
0.08650000 0.08650700 20507.17950939 0 438.61358363 0 6796.35275396 0 943.98951818 0 -1520.48109843 0 8037
0.08750000 0.08749060 20395.15842021 0 6.08100382 0 7234.66576616 0 1093.93362796 0 -595.88564724 0 8155
0.08850000 0.08849210 20422.44276470 0 -269.26986127 0 4937.78979015 0 1120.84309000 0 28.18816613 0 8718
0.08950000 0.08949900 20774.92100372 0 -164.07318557 0 5488.81154574 0 800.48384822 0 -135.72297706 0 8571
0.09050000 0.09049190 20527.14366389 0 -24.16616538 0 4024.06371197 0 310.72764634 0 462.17572243 0 8932
0.09150000 0.09150830 20180.76558320 0 328.02991358 0 4278.16303405 0 -392.62726285 0 -828.80300139 0 9285
0.09250000 0.09250820 20040.46194180 0 615.86865678 0 4721.56690565 0 -1065.02553223 0 -484.20173045 0 9204
0.09350000 0.09350330 19481.90926349 0 364.30921880 0 4495.92759493 0 506.77564360 0 -1213.03311903 0 9349
0.09450000 0.09448040 18977.25980235 0 277.66700648 0 5433.22246663 0 -21.56195234 0 -538.25467878 0 9564
0.09550000 0.09549270 18231.15498364 0 272.34545018 0 4769.55851484 0 378.13106844 0 -662.86649473 0 10155
0.09650000 0.09649430 18317.22267196 0 119.72614370 0 4944.63305867 0 874.50427842 0 121.74363242 0 9913
0.09750000 0.09749140 18271.52694053 0 -81.62777127 0 5235.15587153 0 -260.84387895 0 613.69921866 0 10476
0.09850000 0.09850240 18187.34475570 0 76.52526611 0 4280.05962873 0 798.29333683 0 16.37282493 0 10575
0.09950000 0.09950330 18128.11776399 0 351.78393009 0 4819.97909617 0 -364.78724939 0 1133.93070240 0 10882
0.10050000 0.10051200 17960.86251401 0 270.76828198 0 5480.01622656 0 -854.71647394 0 813.39289235 0 10875
0.10150000 0.10150300 17071.45943073 0 308.84990670 0 5961.31871812 0 -17.20045005 0 706.17429145 0 11118
0.10250000 0.10250800 17343.97013975 0 228.78255593 0 6467.34348769 0 -859.55778141 0 501.70696659 0 11575
0.10350000 0.10349800 17304.26365468 0 88.90603653 0 6222.29458232 0 216.14857349 0 -996.92891033 0 11364
0.10450000 0.10450100 16756.91308528 0 310.30950822 0 7507.20974877 0 -121.31662134 0 -332.53515778 0 12093
0.10550000 0.10551000 16423.95535290 0 313.46606287 0 6424.36509952 0 -330.47219515 0 -788.46875457 0 12067
0.10650000 0.10649700 16073.58444130 0 138.63663449 0 6663.32493777 0 834.01586396 0 -909.28294469 0 12054
0.10750000 0.10749900 15926.51516977 0 261.35629225 0 5835.01216728 0 791.78502246 0 -808.84661072 0 12807
0.10850000 0.10850100 15444.49175040 0 348.91463744 0 5627.09658929 0 2.94779614 0 -1460.43335816 0 12736
0.10950000 0.10950300 14798.20770423 0 368.06137073 0 5401.44618738 0 208.05089059 0 -1124.52536738 0 12933
0.11050000 0.11050200 14271.15402525 0 296.99008980 0 5309.24506714 0 271.14094619 0 -534.12098967 0 13428
0.11150000 0.11150900 14059.64489944 0 -65.69238314 0 4012.81723826 0 694.16252516 0 -621.56953201 0 13453
0.11250000 0.11250000 14190.74284737 0 -89.09514144 0 4599.31973288 0 980.23111333 0 -900.88358124 0 13668
0.11350000 0.11349100 14077.61263850 0 21.81483163 0 2419.34497271 0 162.25644751 0 -183.46725256 0 13791
0.11450000 0.11448600 13865.99260073 0 210.37671459 0 3695.85301187 0 145.77049237 0 -56.20164591 0 14205
0.11550000 0.11549300 13714.70867436 0 252.18498149 0 2855.85011980 0 -282.19443307 0 -69.35636005 0 14776
0.11650000 0.11649800 13478.35526739 0 165.17897791 0 3672.52822469 0 149.03019515 0 72.29796731 0 14553
0.11750000 0.11747300 13493.21747130 0 -41.38724506 0 3662.44632667 0 103.16621027 0 332.56066753 0 14568
0.11850000 0.11849100 13379.86543849 0 19.74521428 0 3826.20784961 0 -220.46970382 0 261.08012144 0 16015
0.11950000 0.11950300 13542.46238575 0 133.64892323 0 3957.90472217 0 -237.60116662 0 -80.86003862 0 15270
0.12050000 0.12050700 13544.79153711 0 -72.60375161 0 3995.51497102 0 24.24580018 0 176.42434250 0 15999
0.12150000 0.12150000 13857.00873120 0 -258.00785989 0 4029.73131361 0 315.56562645 0 -499.38003347 0 15670
0.12250000 0.12250700 14067.96329716 0 -143.64541904 0 3697.42796184 0 562.32590351 0 755.80407044 0 16887
0.12350000 0.12352200 14348.12693207 0 -124.29460772 0 2990.65252751 0 517.68050844 0 0.97255157 0 16407
0.12450000 0.12449800 14104.00968724 0 118.40740038 0 3130.80089215 0 571.92866183 0 1152.47518369 0 16306
0.12550000 0.12549900 14142.93978853 0 206.91293379 0 2829.90781014 0 161.37469736 0 1062.70303559 0 17523
0.12650000 0.12650100 13704.39386119 0 500.06879680 0 3555.17226978 0 -536.65532818 0 1633.48930414 0 17154
0.12750000 0.12750600 13031.49094234 0 535.53178993 0 3628.27434887 0 -275.17925100 0 1705.88154662 0 18007
0.12850000 0.12850300 12503.43905564 0 262.71496387 0 4307.21087886 0 -410.33657701 0 1934.74839565 0 17496
0.12950000 0.12949900 12312.55955616 0 93.64186671 0 4268.21423039 0 390.31142092 0 1778.45124825 0 18405
0.13050000 0.13049000 12330.19455931 0 -68.37423456 0 3971.40270886 0 771.15206878 0 1489.43683818 0 18100
0.13150000 0.13148800 12275.51495835 0 19.51729018 0 3524.91548451 0 127.56983818 0 1930.02354575 0 19059
0.13250000 0.13249300 12292.04084181 0 97.00083571 0 3500.10447694 0 334.80330756 0 2125.18424725 0 18957
0.13350000 0.13349100 12268.74932822 0 -39.60378059 0 3101.98596248 0 127.43674382 0 1595.91232888 0 19468
0.13450000 0.13450700 12272.96398306 0 100.08540849 0 3054.80401066 0 -260.32370181 0 1095.94335285 0 19953
0.13550000 0.13551000 11801.47720079 0 321.33970358 0 2959.35316972 0 -347.67796898 0 629.05941731 0 19956
0.13650000 0.13649900 11597.28826497 0 297.14647568 0 3910.30130487 0 -580.07292775 0 867.83181433 0 19723
0.13750000 0.13749600 11298.82415509 0 123.68459189 0 3164.65122524 0 80.54283038 0 -74.18957095 0 20946
0.13850000 0.13851100 11229.94782204 0 57.26462623 0 3873.12361270 0 468.76500254 0 119.42779050 0 20955
0.13950000 0.13949800 11211.86917102 0 -51.38762279 0 2908.21166060 0 60.57856496 0 -104.04374577 0 20506
0.14050000 0.14048300 11171.16447822 0 20.81662390 0 2701.39411110 0 691.72578919 0 363.25555509 0 21447
0.14150000 0.14148400 11139.77639086 0 102.07816385 0 2922.49712227 0 40.44393876 0 62.58973171 0 21771
0.14250000 0.14249400 10907.54890915 0 231.20376422 0 2742.01007433 0 -248.04131031 0 329.52833429 0 22470
0.14350000 0.14350900 10559.50714892 0 377.66745640 0 3022.91681944 0 -383.25187407 0 80.41317429 0 22519
0.14450000 0.14449900 10052.10707093 0 388.50133758 0 3539.68895884 0 -591.56229867 0 27.73897266 0 22218
0.14550000 0.14550500 9925.47887537 0 170.84214307 0 3644.94441788 0 35.91096657 0 -327.12598103 0 23559
0.14650000 0.14650700 9600.56226078 0 -70.16524105 0 3545.65602280 0 482.67779999 0 -134.70480518 0 23044
0.14750000 0.14750500 9668.86185158 0 -64.88827136 0 3002.34264910 0 715.22138080 0 156.47127919 0 23649
0.14850000 0.14849900 9942.02694122 0 -86.26267156 0 2374.55871943 0 591.82626916 0 -40.24174624 0 23640
0.14950000 0.14949500 9869.34632762 0 -86.16462538 0 2075.70641766 0 407.95862439 0 406.40252946 0 24457
0.15050000 0.15050000 9782.53552910 0 75.65305438 0 2046.59202567 0 -64.25718226 0 -85.90309496 0 24591
0.15150000 0.15149900 9567.02248120 0 404.67563009 0 2132.10515414 0 -839.60139074 0 -177.40591343 0 25020
0.15250000 0.15250500 9337.19069804 0 309.86253298 0 2283.46671890 0 -638.55902750 0 -475.14133166 0 25297
0.15350000 0.15350100 9001.74853754 0 101.64427622 0 2969.09124065 0 -23.22064084 0 -719.42161709 0 25452
0.15450000 0.15450400 8981.96184219 0 -81.27163293 0 2707.49426942 0 252.71735894 0 -115.70225744 0 26061
0.15550000 0.15549900 9057.44852861 0 -160.88002997 0 2460.82604930 0 793.36219066 0 -932.30605131 0 26128
0.15650000 0.15649500 9416.28202348 0 -62.78216397 0 2103.67841637 0 401.43921882 0 -113.43965327 0 26331
0.15750000 0.15749700 9267.52689001 0 74.79248841 0 1659.17651627 0 163.13154295 0 -233.21903471 0 27345
0.15850000 0.15849900 9099.47307385 0 177.86952546 0 1953.09323540 0 -65.40445567 0 380.65764310 0 26980
0.15950000 0.15949700 8890.79220327 0 282.37411046 0 1964.84990417 0 -351.22382464 0 71.74562570 0 27777
0.16050000 0.16050000 8496.59997253 0 256.48836591 0 2395.16616336 0 -266.42607837 0 190.74640512 0 28224
0.16150000 0.16150500 8402.84608473 0 171.62629070 0 2534.36068506 0 70.10179940 0 -150.88907976 0 28075
0.16250000 0.16249700 8084.52873232 0 0.36763991 0 2458.18634442 0 168.59839393 0 21.62572672 0 28590
0.16350000 0.16349900 8164.31880316 0 38.29002831 0 2215.81041751 0 207.25787001 0 -132.40005445 0 29163
0.16450000 0.16449100 8058.05404520 0 85.16009567 0 2261.58378732 0 -107.28381714 0 -276.57785094 0 28996
0.16550000 0.16550500 8023.71569945 0 119.54424807 0 2260.08647573 0 -193.19977788 0 -371.27116312 0 30777
0.16650000 0.16650700 7874.06217903 0 60.61760598 0 2490.04026206 0 -156.76519591 0 -268.06646640 0 29211
0.16750000 0.16749900 7974.37096423 0 -25.15960389 0 2414.28738690 0 141.06893398 0 -274.46275968 0 30922
0.16850000 0.16850800 8026.81014340 0 -141.40610637 0 2273.79519516 0 523.04642952 0 -470.94885922 0 30867
0.16950000 0.16949900 8194.04321098 0 -92.80370496 0 1762.91248133 0 101.75740643 0 -148.22497426 0 30852
0.17050000 0.17049200 8249.56574291 0 65.51026569 0 2044.11868875 0 -64.01528325 0 -383.69330371 0 31257
0.17150000 0.17149500 8220.14079740 0 87.43800570 0 1762.56865422 0 29.85594942 0 -307.88940904 0 32608
0.17250000 0.17250900 8109.65029340 0 10.67392394 0 2040.70260009 0 24.76298269 0 56.95052353 0 32361
0.17350000 0.17350400 8191.13731738 0 24.98691396 0 1806.91125962 0 -6.82352619 0 -598.87028834 0 32508
0.17450000 0.17449800 8156.25550298 0 64.65036519 0 2089.37077230 0 -43.83174487 0 -180.32067998 0 32791
0.17550000 0.17549800 8001.03420169 0 114.92143718 0 1958.56119550 0 -90.97177196 0 -624.76490585 0 33633
0.17650000 0.17650100 7968.03789077 0 136.85317002 0 2008.50485535 0 71.52269264 0 -120.40603407 0 33984
0.17750000 0.17750300 7646.45972645 0 210.56193758 0 2301.90028822 0 -129.97440968 0 -287.05792294 0 34069
0.17850000 0.17849800 7585.20304571 0 196.39293348 0 2274.22775184 0 -7.78009756 0 207.82573930 0 34536
