### header ###
fiducial parameters:
Omega_m = 0.31
Omega_nu = 0
Omega_de = 0.69
Omega_k = 0
H_0 = 100
w_de = -1
zeff = 0
beta = 0
fgrowth = 0
b_1 = 2
gamma = 0.55
Lx = 3500 Ly = 3500 Lz = 3500
nx = 700 ny = 700 nz = 700
xoffset = 1379.75464 yoffset = 22.6059522 zoffset = 368.141391
bins = 400 dk = 0.001
kx_ny = 0.628318531 ky_ny = 0.628318531 kz_ny = 0.628318531
############################
A(data) = 3.34291199 (not used)
A(ran) = 3.3470692 (used)
Ngal = 187923
weighted Ngal = 0
Nran = 9399747
weighted Nran = 0
SN(data) = 6628.35997
SN(ran) = 133.130959
SN(data+ran) = 6761.49093
############################
13 columns: k_central k_mean P_0(k) sigma^{lin}_{P_0(k)} P^img_1(k) sigma^{lin}_{P_1(k)} P_2(k) sigma^{lin}_{P_2(k)} P^img_3(k) sigma^{lin}_{P_3(k)} P_4(k) sigma^{lin}_{P_4(k)} N_modes
### header ###
0.00050000 0 0 0 0 0 0 0 0 0 0 0 0
0.00150000 0.00179520 88856.79161478 0 -81573.31349085 0 -137254.67135395 0 143993.68261969 0 60036.98181664 0 3
0.00250000 0.00253879 128206.47288359 0 -58626.29247679 0 -27731.43064161 0 -144354.14652051 0 -78607.86016280 0 6
0.00350000 0.00331552 149030.19515388 0 -1840.80595750 0 -88579.06804319 0 -73549.94161850 0 31084.85403891 0 7
0.00450000 0.00420575 142772.54183569 0 23212.98791687 0 -37394.30324684 0 -101150.82887203 0 4728.63199810 0 24
0.00550000 0.00557378 97684.71891375 0 13773.15928227 0 -8237.07705514 0 -30330.76355840 0 -4050.53839908 0 45
0.00650000 0.00659388 83352.56330528 0 3453.17762265 0 17472.18437647 0 10261.33141016 0 -35284.75758729 0 40
0.00750000 0.00754703 75513.63803819 0 5378.74250722 0 -5122.09220984 0 -23419.72782799 0 -47956.22827669 0 57
0.00850000 0.00846663 67739.04171339 0 14162.46029515 0 25191.87927638 0 -10793.58686051 0 -20693.06797024 0 75
0.00950000 0.00948925 49820.76939566 0 9988.78742755 0 19082.84799729 0 -6968.77650172 0 -11752.89775815 0 112
0.01050000 0.01054430 45212.70979958 0 -5934.16746800 0 15813.05222499 0 23298.83378125 0 -4310.80442667 0 105
0.01150000 0.01145670 53375.16528166 0 -10494.96747388 0 -3429.27609322 0 19701.07131519 0 -15712.45506867 0 144
0.01250000 0.01249090 64945.16920213 0 -10158.42728488 0 -16108.29988775 0 4829.50643435 0 -11081.55869807 0 169
0.01350000 0.01339930 72625.60126484 0 -4160.82926153 0 -31644.40492494 0 -11114.15572591 0 -18246.12809952 0 180
0.01450000 0.01448870 79399.43888900 0 121.64381165 0 -12763.41671211 0 -23604.28534521 0 -29049.61939891 0 267
0.01550000 0.01550050 75519.62728454 0 6480.68619762 0 -22640.34941844 0 -27895.91309235 0 -48152.54246268 0 238
0.01650000 0.01653350 68517.42191522 0 8118.90035166 0 15939.93551808 0 -16724.52679019 0 -28315.16033700 0 315
0.01750000 0.01747870 62846.71473953 0 -3217.56732588 0 7914.47850071 0 1761.21552820 0 -38379.86700766 0 297
0.01850000 0.01844180 70712.25887930 0 -4197.92931533 0 26191.30703338 0 9103.95391742 0 -39439.07631622 0 388
0.01950000 0.01947590 75347.04826002 0 -1901.04224812 0 2848.86266573 0 2660.81142147 0 -40990.95659321 0 399
0.02050000 0.02045430 73475.85242289 0 3333.35942202 0 15780.22228202 0 -14095.80220150 0 -27361.31739945 0 462
0.02150000 0.02154770 70053.21995664 0 6545.74715892 0 17065.58109635 0 -13655.92533053 0 -31772.28642576 0 571
0.02250000 0.02255340 65507.04923953 0 1291.79170856 0 34263.59108427 0 -2709.12467538 0 -26415.23829976 0 510
0.02350000 0.02348930 60348.31171497 0 1745.12220142 0 29369.26769495 0 3062.46802775 0 -24023.86532576 0 555
0.02450000 0.02439640 59235.53192516 0 657.26765851 0 31905.26987717 0 9978.40606721 0 -26406.58716615 0 592
0.02550000 0.02547300 66665.63567274 0 -4166.67432233 0 21076.04700086 0 10854.83245006 0 -14141.60884489 0 837
0.02650000 0.02652900 63808.32151494 0 -1019.70468327 0 20119.20944014 0 4483.51654555 0 -10425.61421936 0 723
0.02750000 0.02749970 69250.55003350 0 1532.45959114 0 13039.92025203 0 1109.88498741 0 5067.13532896 0 826
0.02850000 0.02848090 64738.76202693 0 309.86364210 0 13579.06333568 0 1444.76149687 0 -5241.51112738 0 831
0.02950000 0.02946900 65115.08633938 0 2005.57677936 0 21148.47251693 0 1228.40551800 0 6501.79274541 0 996
0.03050000 0.03053250 62670.14288411 0 2208.80078104 0 18858.47308303 0 -1295.70690108 0 11524.64092496 0 1041
0.03150000 0.03150510 60653.43054302 0 2072.24596422 0 20750.07672255 0 3019.01271811 0 4725.65955732 0 1036
0.03250000 0.03246190 60710.32838336 0 287.14665251 0 21423.64511322 0 1914.77314994 0 14658.79135859 0 1059
0.03350000 0.03345080 57374.09634134 0 1967.09032595 0 24446.55084146 0 1991.77933036 0 1719.19098296 0 1302
0.03450000 0.03451200 56239.24506960 0 2420.89774028 0 24500.23223468 0 -2710.85490210 0 10794.81798337 0 1339
0.03550000 0.03553350 50818.75529706 0 2127.19175390 0 21798.52757007 0 -1748.59374607 0 -3036.63663006 0 1365
0.03650000 0.03647120 53279.89189987 0 1492.62001170 0 28083.35432078 0 -2838.41475820 0 1180.86864788 0 1308
0.03750000 0.03744890 49344.40248673 0 466.01993129 0 23904.52404660 0 4313.39976675 0 -1902.33991817 0 1579
0.03850000 0.03847530 47968.87224122 0 1199.32439960 0 26801.98833735 0 893.46911608 0 -2443.87870036 0 1662
0.03950000 0.03950240 47077.91639036 0 1085.98456711 0 21432.40715881 0 -546.87808440 0 -3293.14274188 0 1683
0.04050000 0.04050350 46180.30582134 0 416.68628727 0 22483.40898162 0 5480.85915752 0 -8079.64860566 0 1822
0.04150000 0.04152450 45739.87439053 0 -116.26014465 0 23034.64146995 0 -1184.57310766 0 -3886.41086664 0 1887
0.04250000 0.04250150 44297.24240348 0 868.39524714 0 16717.76116006 0 3316.30116111 0 -4465.51553290 0 1920
0.04350000 0.04349210 44280.60560805 0 464.57585745 0 20260.40037729 0 2600.08711818 0 -1273.84615190 0 2005
0.04450000 0.04448520 41889.67628193 0 1173.21572199 0 14658.79135859 0 2001.09593579 0 -1395.82713593 0 2151
0.04550000 0.04548030 42501.79944150 0 1156.67874734 0 16695.57876616 0 3063.67696822 0 2590.20486170 0 2274
0.04650000 0.04648670 40570.82205281 0 13.18077845 0 15165.76997109 0 1591.94168037 0 4321.47415813 0 2311
0.04750000 0.04749250 40143.14549849 0 -684.97346849 0 11069.64675255 0 4045.91336995 0 2072.05741387 0 2568
0.04850000 0.04851840 41275.33488296 0 -572.61964340 0 13201.51899156 0 184.70170278 0 6072.23068761 0 2493
0.04950000 0.04949480 40464.23565014 0 1467.48735942 0 10379.27519851 0 -4095.72393545 0 -3544.90182141 0 2644
0.05050000 0.05050630 40297.53496001 0 1087.05930409 0 15899.00900134 0 -3969.36192862 0 814.59850546 0 2829
0.05150000 0.05149060 38237.89968672 0 464.73667981 0 15261.15426485 0 -755.54342731 0 -6002.38942042 0 2784
0.05250000 0.05249300 37521.63018781 0 1705.67081388 0 20868.64161793 0 -2615.60370271 0 -4340.72847604 0 3055
0.05350000 0.05348950 37084.30429214 0 1234.00657246 0 20702.71731158 0 -1096.88832283 0 -6447.54570114 0 3009
0.05450000 0.05448610 36413.61961268 0 -275.40662054 0 22711.55490284 0 2870.46831738 0 184.89136225 0 3336
0.05550000 0.05550870 37111.14498875 0 -338.97359761 0 20132.29705254 0 3973.56549226 0 -2010.96710108 0 3349
0.05650000 0.05647670 35916.06851758 0 -312.47340074 0 20330.16400609 0 2481.61095238 0 1370.38393013 0 3324
0.05750000 0.05747970 36713.41466619 0 813.44502098 0 15202.14909708 0 2623.00153107 0 3474.86091268 0 3639
0.05850000 0.05849280 36322.78270967 0 103.32747627 0 18325.43015770 0 3312.07541507 0 5162.84126743 0 3846
0.05950000 0.05951020 33708.25485307 0 1027.04261917 0 11836.74720708 0 87.28849637 0 4449.45547972 0 3787
0.06050000 0.06049470 33773.47109112 0 1459.62370078 0 17197.34451610 0 329.52611605 0 6873.60294071 0 3930
0.06150000 0.06148310 31580.85236643 0 647.34991020 0 13113.12215188 0 772.26229759 0 5712.96463606 0 4083
0.06250000 0.06249100 31008.10295602 0 47.10786262 0 13303.89073939 0 2149.54051575 0 5142.18945871 0 4303
0.06350000 0.06350600 30632.44411539 0 662.06903767 0 12478.48386251 0 541.95802944 0 3842.42317955 0 4470
0.06450000 0.06451750 28713.88886728 0 936.89447949 0 12252.44526870 0 -1384.19247034 0 2604.21304344 0 4479
0.06550000 0.06550280 28968.76457315 0 878.42945302 0 14271.59767313 0 -1326.75116134 0 1949.27786365 0 4636
0.06650000 0.06648880 27813.50549903 0 557.45354069 0 11248.58103292 0 -593.89366827 0 -947.04181558 0 4653
0.06750000 0.06749660 27320.83453059 0 341.80628931 0 14684.85567142 0 490.39949131 0 -1701.51161502 0 5220
0.06850000 0.06852730 27435.73933097 0 92.61304729 0 13245.32921951 0 -160.21455816 0 -908.45886875 0 5029
0.06950000 0.06949320 27306.52688652 0 -241.12040341 0 12558.34048053 0 2124.28586030 0 -1097.43622796 0 5040
0.07050000 0.07048030 26867.98095919 0 -144.79890352 0 11118.25946878 0 1473.03295789 0 -826.19767923 0 5475
0.07150000 0.07148790 26674.32866048 0 300.15995389 0 9514.17292775 0 804.94805500 0 -2353.52981002 0 5509
0.07250000 0.07249820 26763.28006000 0 346.57994048 0 10354.20909341 0 723.54865147 0 -697.49321160 0 5916
0.07350000 0.07351270 25836.38873104 0 146.19750345 0 7643.07691138 0 747.87941022 0 -1813.72125455 0 5721
0.07450000 0.07449140 25446.20042240 0 62.34383987 0 8064.09874754 0 1101.54662555 0 -1205.02527483 0 6028
0.07550000 0.07549160 25671.35172045 0 138.73756439 0 5572.56117389 0 242.78186472 0 -1338.11963821 0 6183
0.07650000 0.07648840 25058.11944118 0 174.28374149 0 6221.21873621 0 703.43032933 0 -1913.80821581 0 6330
0.07750000 0.07749960 25319.64986522 0 367.61994109 0 5888.30536861 0 -0.45756844 0 -1080.67632025 0 6583
0.07850000 0.07848650 23206.88775855 0 611.50427078 0 5850.12946872 0 -628.99176101 0 -1606.47114837 0 6549
0.07950000 0.07947320 23969.96210859 0 796.05180592 0 7561.05750995 0 -598.14603318 0 -1012.50205997 0 6828
0.08050000 0.08048110 22786.08774634 0 96.40235472 0 7826.20366420 0 -297.25849677 0 -1247.69310949 0 7147
0.08150000 0.08149960 22974.74900643 0 210.73939673 0 7758.54736281 0 1563.94749927 0 209.52380155 0 7386
0.08250000 0.08250610 22682.82870275 0 199.53728782 0 7957.31270332 0 100.35481367 0 1812.85614119 0 7227
0.08350000 0.08350160 22017.57870979 0 432.00101201 0 7555.87792098 0 1137.16933190 0 2241.61963281 0 7798
0.08450000 0.08449610 22196.59062854 0 317.67849947 0 8527.10076414 0 -127.39237903 0 2208.80078104 0 7371
0.08550000 0.08548940 21377.72755785 0 216.22843010 0 7641.81251493 0 385.68084620 0 2264.43422493 0 8256
0.08650000 0.08650700 21310.18216844 0 -86.07656128 0 8231.98619574 0 1069.03056345 0 4538.18505530 0 8037
0.08750000 0.08749060 21338.79745656 0 -137.11603139 0 6205.38050697 0 827.06168347 0 2884.04394245 0 8155
0.08850000 0.08849210 21737.41507488 0 -335.49761649 0 6728.20843991 0 979.19408641 0 2870.69014132 0 8718
0.08950000 0.08949900 21726.65661384 0 271.31840535 0 4779.30767696 0 -184.51204331 0 2563.88545134 0 8571
0.09050000 0.09049190 21276.90857759 0 649.96188708 0 5852.69153521 0 -1031.80850649 0 1882.26485169 0 8932
0.09150000 0.09150830 20199.95335392 0 741.23134677 0 6549.44052750 0 -1387.51982942 0 56.59017054 0 9285
0.09250000 0.09250820 19752.20173312 0 527.14684503 0 7542.24683993 0 -633.48591401 0 99.69300195 0 9204
0.09350000 0.09350330 18952.63734512 0 250.87732937 0 7193.45087830 0 563.62801004 0 767.07716302 0 9349
0.09450000 0.09448040 18911.15626854 0 147.98651352 0 7725.28486316 0 741.60179275 0 -162.30081230 0 9564
0.09550000 0.09549270 18548.03048045 0 255.83509441 0 6571.82256294 0 708.03317606 0 -505.99482333 0 10155
0.09650000 0.09649430 18238.25334969 0 254.88790619 0 7342.41674451 0 490.82650239 0 1604.60782729 0 9913
0.09750000 0.09749140 17281.63761290 0 265.87817324 0 6081.68038741 0 443.77875405 0 1197.57199048 0 10476
0.09850000 0.09850240 18066.45070896 0 -103.03522323 0 5472.05274715 0 607.43269238 0 1313.95192006 0 10575
0.09950000 0.09950330 17482.05554176 0 -78.34655156 0 5284.05695888 0 501.54059864 0 1014.19346750 0 10882
0.10050000 0.10051200 17583.31816990 0 564.10604062 0 5727.38319209 0 -412.16662451 0 1568.07342454 0 10875
0.10150000 0.10150300 16743.04908910 0 573.18085797 0 4771.04473523 0 -173.08478310 0 1369.17498967 0 11118
0.10250000 0.10250800 16502.59193926 0 139.17788490 0 6167.02714792 0 294.35814877 0 1538.80375579 0 11575
0.10350000 0.10349800 16198.58223091 0 92.14045138 0 5322.84287460 0 -140.86263772 0 717.73575515 0 11364
0.10450000 0.10450100 15887.14142060 0 37.88054132 0 5488.37898906 0 582.25012971 0 1129.47204122 0 12093
0.10550000 0.10551000 16057.94585361 0 35.02200713 0 5095.19605724 0 93.55424626 0 188.15217415 0 12067
0.10650000 0.10649700 15772.12570825 0 62.60215385 0 4995.47510548 0 -40.29897682 0 399.99403586 0 12054
0.10750000 0.10749900 15734.19381469 0 362.56679176 0 4495.22884952 0 -54.92105631 0 -1064.89021963 0 12807
0.10850000 0.10850100 15159.78072474 0 294.35038493 0 4972.07267992 0 -389.46627172 0 -591.73753958 0 12736
0.10950000 0.10950300 14943.39147228 0 235.60696941 0 4835.68423105 0 -136.93746312 0 -1257.97464906 0 12933
0.11050000 0.11050200 14764.49046550 0 -159.49473947 0 4432.06448290 0 975.29996716 0 -1169.36707665 0 13428
0.11150000 0.11150900 14945.49879970 0 -263.71760808 0 3838.87399652 0 350.09252255 0 -1201.87537490 0 13453
0.11250000 0.11250000 15092.56807123 0 15.82691622 0 3100.25573575 0 464.45718164 0 -1597.94201792 0 13668
0.11350000 0.11349100 15154.34603823 0 125.29170633 0 3273.99933595 0 73.29850418 0 -886.03135941 0 13791
0.11450000 0.11448600 14845.12346732 0 228.65167981 0 3129.65849886 0 -619.33687407 0 -1741.00736736 0 14205
0.11550000 0.11549300 14757.83574734 0 255.64987142 0 3649.93545651 0 -326.70118819 0 -1284.44933618 0 14776
0.11650000 0.11649800 14276.47779978 0 282.99632661 0 4174.68216652 0 -434.60300682 0 -2026.11767611 0 14553
0.11750000 0.11747300 14282.79978204 0 263.29059699 0 4568.20892544 0 -302.95493552 0 -1936.44534878 0 14568
0.11850000 0.11849100 13943.52006740 0 140.79054494 0 5160.25701854 0 -140.75172575 0 -2192.26380639 0 16015
0.11950000 0.11950300 13754.63698337 0 -10.40579425 0 4186.74938880 0 283.22813263 0 -2243.07257961 0 15270
0.12050000 0.12050700 13805.43466539 0 163.35780337 0 5072.73638342 0 -106.46073941 0 -1618.43854988 0 15999
0.12150000 0.12150000 13609.67503926 0 140.90700251 0 3869.70752404 0 563.04239484 0 -2225.89231554 0 15670
0.12250000 0.12250700 13405.37519147 0 103.70136052 0 4948.44843042 0 305.13546484 0 -1336.88851535 0 16887
0.12350000 0.12352200 13219.59764259 0 76.99930387 0 3563.64594425 0 654.27303533 0 -710.49764002 0 16407
0.12450000 0.12449800 13086.39236724 0 56.40905129 0 4114.78970300 0 331.98059793 0 -485.40068884 0 16306
0.12550000 0.12549900 13270.50623658 0 178.75793033 0 3149.95538928 0 -19.09249734 0 -899.52047313 0 17523
0.12650000 0.12650100 12664.03958745 0 209.46501821 0 4198.68351672 0 -107.34149136 0 69.13043237 0 17154
0.12750000 0.12750600 12626.10769389 0 159.50250331 0 3989.51463347 0 -197.60852867 0 -19.85046974 0 18007
0.12850000 0.12850300 12459.07426785 0 -50.69087380 0 3661.19302141 0 351.89040558 0 -376.79790656 0 17496
0.12950000 0.12949900 12632.65150009 0 -2.08495648 0 3425.31653591 0 303.56384223 0 -628.35956278 0 18405
0.13050000 0.13049000 12710.28987872 0 -99.64098423 0 3210.03640315 0 220.26673491 0 -249.83919334 0 18100
0.13150000 0.13148800 12592.94501501 0 65.79985684 0 2985.14020263 0 324.59053341 0 -62.58973171 0 19059
0.13250000 0.13249300 12506.87732669 0 297.59788740 0 3026.85419435 0 -15.69082723 0 -434.25363411 0 18957
0.13350000 0.13349100 11893.64504743 0 281.54670717 0 2765.17958475 0 -7.45955088 0 -211.07102352 0 19468
0.13450000 0.13450700 11775.41288796 0 153.97465075 0 3140.73860462 0 32.61776837 0 178.09245852 0 19953
0.13550000 0.13551000 11531.18473116 0 74.62578772 0 2863.23685697 0 488.06590347 0 -211.50579844 0 19956
0.13650000 0.13649900 11737.70281833 0 -88.44042808 0 2387.64633183 0 561.54064677 0 730.99639022 0 19723
0.13750000 0.13749600 11461.42110235 0 137.45985850 0 1963.57441652 0 -36.44389858 0 -356.27697397 0 20946
0.13850000 0.13851100 11317.12463006 0 142.94334627 0 2481.44458442 0 69.97580340 0 1241.80368391 0 20955
0.13950000 0.13949800 11206.54539648 0 131.37411873 0 2541.15958879 0 54.14555982 0 181.18690247 0 20506
0.14050000 0.14048300 11159.29689748 0 198.23739953 0 2476.12080989 0 -114.20050938 0 1177.41928563 0 21447
0.14150000 0.14148400 10793.15430383 0 269.25987919 0 2833.85627626 0 -77.40812539 0 896.31955369 0 21771
0.14250000 0.14249400 10492.39431619 0 186.36649144 0 3165.22796748 0 -210.72054170 0 1115.57477145 0 22470
0.14350000 0.14350900 10424.77128839 0 95.43242955 0 3332.68285900 0 10.45876581 0 1389.32769452 0 22519
0.14450000 0.14449900 10294.86009854 0 35.39023487 0 3492.25190950 0 296.16046827 0 1264.19681055 0 22218
0.14550000 0.14550500 10377.10132391 0 42.40231140 0 3422.77665181 0 -22.10819379 0 1361.25587505 0 23559
0.14650000 0.14650700 10284.67837974 0 74.43768102 0 3205.59992437 0 -180.88300367 0 826.00580152 0 23044
0.14750000 0.14750500 10192.08906761 0 20.01661587 0 3617.11660474 0 57.69296825 0 1210.33795817 0 23649
0.14850000 0.14849900 10320.04820681 0 -16.44924328 0 3064.60862876 0 116.17474243 0 544.61548023 0 23640
0.14950000 0.14949500 10266.64409350 0 67.09020669 0 3270.47233532 0 -117.17516840 0 601.71961683 0 24457
0.15050000 0.15050000 10192.58817148 0 125.29392456 0 3289.12772859 0 -242.76855528 0 -102.31607002 0 24591
0.15150000 0.15149900 10105.00098918 0 101.82295541 0 3068.61255086 0 -321.75784171 0 -369.73835971 0 25020
0.15250000 0.15250500 10016.90361182 0 57.11644784 0 3668.55757618 0 -75.15616876 0 -637.04729735 0 25297
0.15350000 0.15350100 9827.49924153 0 118.75566396 0 3183.08479456 0 -136.04573089 0 -1276.49694797 0 25452
0.15450000 0.15450400 9942.21549157 0 -20.99574673 0 3319.31796668 0 301.08606884 0 -746.70707070 0 26061
0.15550000 0.15549900 10010.43744400 0 12.09994131 0 3002.27610191 0 325.56434050 0 -1302.99381748 0 26128
0.15650000 0.15649500 9646.93455522 0 124.66505370 0 3148.83517839 0 162.36625036 0 -545.52606750 0 26331
0.15750000 0.15749700 9706.81592754 0 274.14887881 0 2949.93674352 0 -34.35032424 0 -849.84078376 0 27345
0.15850000 0.15849900 9343.83432501 0 176.35779531 0 3161.01331264 0 144.25543487 0 -59.79053542 0 26980
0.15950000 0.15949700 9154.92905859 0 59.05319265 0 2862.75993550 0 293.67825839 0 -168.34662376 0 27777
0.16050000 0.16050000 9131.06080276 0 19.72136821 0 2920.10142372 0 240.93961690 0 320.63097610 0 28224
0.16150000 0.16150500 9086.81801813 0 14.53811914 0 2490.21772121 0 271.57572112 0 -290.91765947 0 28075
0.16250000 0.16249700 8857.59625080 0 224.82965334 0 2770.56990647 0 -304.59976003 0 -287.93412749 0 28590
0.16350000 0.16349900 8690.28554484 0 225.20675403 0 2549.22288897 0 -348.67174022 0 172.75648367 0 29163
0.16450000 0.16449100 8438.09390863 0 190.32161227 0 3189.10731451 0 48.31347573 0 -188.70229752 0 28996
0.16550000 0.16550500 8315.22562884 0 116.98661805 0 2764.29228900 0 9.97334848 0 -301.05612260 0 30777
0.16650000 0.16650700 8156.46623572 0 36.67304271 0 3202.58311880 0 146.66666108 0 -276.61777925 0 29211
0.16750000 0.16749900 8196.31690636 0 -23.07013330 0 3084.56169207 0 -20.99363941 0 93.05514240 0 30922
0.16850000 0.16850800 8215.11648519 0 -29.31602995 0 2803.45530542 0 226.75508513 0 -506.52054607 0 30867
0.16950000 0.16949900 8355.26484982 0 -5.39645515 0 3002.65320261 0 -224.83076246 0 -394.57820439 0 30852
0.17050000 0.17049200 8340.71319943 0 115.54254421 0 2802.37945932 0 -151.98378090 0 -714.97182887 0 31257
0.17150000 0.17149500 8187.95414386 0 59.29631168 0 3161.98933797 0 -16.72086670 0 -473.72831317 0 32608
0.17250000 0.17250900 8204.75730724 0 7.51225624 0 3136.67922653 0 -33.15724419 0 -710.67620830 0 32361
0.17350000 0.17350400 8272.09196391 0 74.60959457 0 2939.72175113 0 124.92347859 0 -924.09191085 0 32508
0.17450000 0.17449800 7984.97414851 0 194.71705362 0 3398.50911289 0 -60.64888315 0 -505.03099832 0 32791
0.17550000 0.17549800 7936.46125306 0 93.04083475 0 2852.76676705 0 206.43823056 0 -552.75641879 0 33633
0.17650000 0.17650100 7837.20613157 0 -100.25854208 0 3121.47319552 0 488.16128776 0 234.70192774 0 33984
0.17750000 0.17750300 7991.55122830 0 -127.49774540 0 2359.82960989 0 729.67875603 0 -194.46971993 0 34069
