### header ###
fiducial parameters:
Omega_m = 0.31
Omega_nu = 0
Omega_de = 0.69
Omega_k = 0
H_0 = 100
w_de = -1
zeff = 0
beta = 0
fgrowth = 0
b_1 = 2
gamma = 0.55
Lx = 3500 Ly = 3500 Lz = 3500
nx = 700 ny = 700 nz = 700
xoffset = 1379.75464 yoffset = 22.6059522 zoffset = 368.141391
bins = 400 dk = 0.001
kx_ny = 0.628318531 ky_ny = 0.628318531 kz_ny = 0.628318531
############################
A(data) = 3.33206792 (not used)
A(ran) = 3.33777934 (used)
Ngal = 187452
weighted Ngal = 0
Nran = 9399747
weighted Nran = 0
SN(data) = 6641.15071
SN(ran) = 132.761451
SN(data+ran) = 6773.91216
############################
13 columns: k_central k_mean P_0(k) sigma^{lin}_{P_0(k)} P^img_1(k) sigma^{lin}_{P_1(k)} P_2(k) sigma^{lin}_{P_2(k)} P^img_3(k) sigma^{lin}_{P_3(k)} P_4(k) sigma^{lin}_{P_4(k)} N_modes
### header ###
0.00050000 0 0 0 0 0 0 0 0 0 0 0 0
0.00150000 0.00179520 33521.14636055 0 -37138.54024521 0 -52604.10526982 0 45070.40974274 0 64233.66891791 0 3
0.00250000 0.00253879 50439.54727340 0 -28225.09981778 0 -25277.83605272 0 -42207.10633858 0 -29039.63732165 0 6
0.00350000 0.00331552 79455.33852162 0 -24374.45806129 0 -62993.45127516 0 -9487.19913677 0 14474.01201743 0 7
0.00450000 0.00420575 87002.78713291 0 -8204.10292662 0 -39595.68401712 0 -39852.44522648 0 -9962.84511789 0 24
0.00550000 0.00557378 84888.47225867 0 12245.67963856 0 -33309.96997066 0 -42199.56432466 0 4562.02003755 0 45
0.00650000 0.00659388 56375.33405615 0 8708.87439093 0 5987.41630454 0 -6360.82363220 0 2678.64606616 0 40
0.00750000 0.00754703 53519.35084198 0 6465.70199054 0 -4912.41313153 0 4266.60600683 0 -9430.16820206 0 57
0.00850000 0.00846663 53682.28052515 0 -2190.43375890 0 -3839.14018525 0 4745.62371183 0 -2850.39325091 0 75
0.00950000 0.00948925 52931.51740373 0 -4517.97689446 0 -4007.33818697 0 5601.23191800 0 2059.81273244 0 112
0.01050000 0.01054430 60285.75736419 0 -5007.54232776 0 -14716.35467075 0 5305.41860420 0 423.69259638 0 105
0.01150000 0.01145670 62525.95732379 0 -3531.94730337 0 -20322.17834429 0 -13174.90011889 0 -486.46211639 0 144
0.01250000 0.01249090 65951.14076534 0 -475.65929056 0 -5518.97960144 0 -6556.62762312 0 -3326.89325419 0 169
0.01350000 0.01339930 71771.46818786 0 3053.11814873 0 -5891.25562700 0 -14896.47570919 0 -874.35787462 0 180
0.01450000 0.01448870 61329.88264489 0 4533.09419591 0 14607.43911672 0 -9749.27302946 0 -9748.45228088 0 267
0.01550000 0.01550050 59125.95089931 0 102.00795657 0 9793.99273555 0 -4997.85971282 0 -24617.24436249 0 238
0.01650000 0.01653350 63040.14521431 0 -4204.51748631 0 22071.59283893 0 7936.98253931 0 -4212.89134001 0 315
0.01750000 0.01747870 70384.29218554 0 -3306.37453984 0 10370.13605222 0 5124.44354359 0 -16645.89020383 0 297
0.01850000 0.01844180 70152.81890523 0 1403.31369387 0 7120.34879921 0 -3395.72522246 0 -4159.77559782 0 388
0.01950000 0.01947590 72011.25986588 0 3253.33643603 0 22652.66064705 0 -4984.49482050 0 -3020.16620259 0 399
0.02050000 0.02045430 61095.30382944 0 1083.37480847 0 9103.56572553 0 25.22482013 0 -6741.09641077 0 462
0.02150000 0.02154770 65613.63564220 0 949.47744243 0 24004.01208322 0 -750.08655841 0 -5734.60356131 0 571
0.02250000 0.02255340 66764.12550164 0 2566.49188262 0 24581.75253225 0 -6412.46424519 0 -20096.02883852 0 510
0.02350000 0.02348930 61370.58733769 0 1671.58756566 0 26105.90481688 0 886.23211007 0 -14357.77627341 0 555
0.02450000 0.02439640 64435.41779039 0 852.38954082 0 35356.73945548 0 -6320.60695207 0 -15006.72220685 0 592
0.02550000 0.02547300 60171.18529971 0 2327.31022043 0 32471.80821728 0 -5557.15550133 0 -13615.99702152 0 837
0.02650000 0.02652900 58920.76375577 0 3321.30329093 0 44601.80667167 0 2872.52018882 0 -14520.81686855 0 723
0.02750000 0.02749970 58054.20853820 0 1151.77643829 0 44056.67434167 0 1548.28672918 0 -6710.12978889 0 826
0.02850000 0.02848090 59536.76883427 0 -3657.65492958 0 38672.00913528 0 20821.28220696 0 -6008.40084917 0 831
0.02950000 0.02946900 61476.95191643 0 -2632.32922771 0 25844.04165693 0 11474.61962672 0 2821.27885892 0 996
0.03050000 0.03053250 62510.09691215 0 1264.54063766 0 24131.11720025 0 2090.79044551 0 6649.92677185 0 1041
0.03150000 0.03150510 59466.67246956 0 4430.42298576 0 24655.61990393 0 -4416.21516246 0 7615.10491268 0 1036
0.03250000 0.03246190 54305.27305773 0 3852.94872545 0 23694.45677640 0 -1761.84772642 0 8293.53124761 0 1059
0.03350000 0.03345080 50957.72799482 0 1007.54429493 0 30350.83862487 0 3910.80040873 0 6146.34206561 0 1302
0.03450000 0.03451200 47928.50028432 0 1256.88771176 0 21065.95401164 0 6443.55287024 0 6260.35957024 0 1339
0.03550000 0.03553350 49075.21913680 0 504.93450491 0 18674.91377354 0 9265.25319464 0 7900.76978128 0 1365
0.03650000 0.03647120 44940.97547435 0 -775.31348587 0 10693.87699995 0 4970.47554756 0 11880.89017094 0 1308
0.03750000 0.03744890 47991.83101890 0 -1022.42091740 0 10427.13371334 0 8165.56101722 0 16075.13720888 0 1579
0.03850000 0.03847530 47172.85703624 0 -1176.19925397 0 386.29640763 0 5504.13957992 0 15845.43852008 0 1662
0.03950000 0.03950240 47558.49795413 0 174.69189753 0 -1178.57277011 0 508.34615709 0 14158.24564031 0 1683
0.04050000 0.04050350 46991.95961402 0 1514.05929540 0 2133.40282419 0 -5217.82033070 0 10599.04726604 0 1822
0.04150000 0.04152450 44959.38686128 0 2166.05530800 0 3019.88892267 0 -3694.28915310 0 10877.38085345 0 1887
0.04250000 0.04250150 43444.77300604 0 869.92139584 0 8253.39220585 0 -1974.19978319 0 5831.98427051 0 1920
0.04350000 0.04349210 44757.97072470 0 -1677.88736552 0 4524.95325735 0 3173.89019229 0 9445.90661053 0 2005
0.04450000 0.04448520 44818.30683610 0 872.13963523 0 7992.73798637 0 -1777.97432678 0 4110.56395697 0 2151
0.04550000 0.04548030 44512.96618412 0 1122.19621602 0 8521.93226636 0 -81.51763568 0 8603.63002308 0 2274
0.04650000 0.04648670 42051.49684540 0 1700.90159919 0 10191.93379086 0 -4082.71396143 0 4484.95840115 0 2311
0.04750000 0.04749250 40519.80254685 0 1926.74055145 0 17732.49476885 0 -1844.79878840 0 7126.38241035 0 2568
0.04850000 0.04851840 39708.70331403 0 478.30454103 0 16236.73594841 0 2560.74664260 0 8461.31887504 0 2493
0.04950000 0.04949480 38500.87196637 0 -80.75855416 0 18254.66832117 0 2244.88044471 0 7337.59207384 0 2644
0.05050000 0.05050630 39681.86261741 0 337.39199293 0 15943.70652504 0 914.16196223 0 7401.86556015 0 2829
0.05150000 0.05149060 37843.82945915 0 837.76247029 0 15196.15985073 0 -395.88142003 0 6783.48696550 0 2784
0.05250000 0.05249300 37246.45759152 0 1060.00011090 0 18384.32441350 0 104.36028853 0 8319.52901326 0 3055
0.05350000 0.05348950 35678.05143107 0 1271.26190301 0 16219.76641708 0 -319.20908465 0 2555.95524552 0 3009
0.05450000 0.05448610 34711.45361704 0 491.76481765 0 17224.85068453 0 168.26898538 0 7029.23461628 0 3336
0.05550000 0.05550870 33669.65748769 0 623.84988211 0 14529.68982611 0 1673.59507231 0 387.16373923 0 3349
0.05650000 0.05647670 33552.09080004 0 -28.17840588 0 13363.56137897 0 1423.59949309 0 2581.75336962 0 3324
0.05750000 0.05747970 32652.70563951 0 262.32233550 0 13090.05246223 0 -39.71114338 0 -300.84095338 0 3639
0.05850000 0.05849280 32413.13578542 0 798.60278122 0 12030.17768186 0 -173.76245523 0 -2596.62666473 0 3846
0.05950000 0.05951020 31793.35969996 0 545.37411810 0 13291.46859881 0 -900.40000505 0 -234.00429145 0 3787
0.06050000 0.06049470 30985.03326637 0 387.21032226 0 13256.86406433 0 -215.75039952 0 -3190.17206941 0 3930
0.06150000 0.06148310 30967.50917519 0 -17.91561043 0 13944.51827512 0 1499.45218902 0 -532.65251520 0 4083
0.06250000 0.06249100 30798.81206961 0 159.07327399 0 13079.18308922 0 863.40088115 0 -3212.59846964 0 4303
0.06350000 0.06350600 31202.75346247 0 14.42543257 0 12334.85286203 0 2799.91721359 0 3851.09649556 0 4470
0.06450000 0.06451750 30794.04285492 0 -133.26516781 0 13303.89073939 0 1939.05178006 0 2568.67684842 0 4479
0.06550000 0.06550280 31032.28176537 0 87.53272452 0 11039.90016234 0 1488.32771848 0 5337.94908485 0 4636
0.06650000 0.06648880 30746.23979608 0 -19.59969778 0 9865.13167278 0 1459.29096487 0 4388.73117643 0 4653
0.06750000 0.06749660 30649.41364672 0 403.32915878 0 11069.92403248 0 281.72194808 0 6982.04157327 0 5220
0.06850000 0.06852730 30122.69270365 0 846.11857807 0 10044.32105067 0 -360.62361405 0 7481.86636374 0 5029
0.06950000 0.06949320 28690.37552975 0 541.78611589 0 10688.83050533 0 398.19948019 0 5532.52195291 0 5040
0.07050000 0.07048030 28265.02812679 0 470.67490665 0 10992.05273870 0 941.94762882 0 9099.09597316 0 5475
0.07150000 0.07148790 27859.42305439 0 383.82861631 0 10133.86028364 0 1112.87961059 0 5541.41709286 0 5509
0.07250000 0.07249820 27438.40121824 0 531.04650988 0 10621.28511592 0 309.43552190 0 8070.42072980 0 5916
0.07350000 0.07351270 25962.71746428 0 588.43014465 0 9072.66565083 0 -696.08462959 0 4741.96361683 0 5721
0.07450000 0.07449140 25949.74076385 0 512.49426475 0 11026.66836438 0 -773.77402773 0 5041.41484324 0 6028
0.07550000 0.07549160 25692.20317071 0 174.12624649 0 9994.44393800 0 368.13346351 0 3895.06200026 0 6183
0.07650000 0.07648840 25448.41866179 0 -258.53358262 0 10275.00685600 0 1519.80453542 0 2953.23082901 0 6330
0.07750000 0.07749960 25827.29394954 0 -461.37604713 0 6870.77468548 0 2189.59082793 0 2670.09475332 0 6583
0.07850000 0.07848650 25780.04545054 0 40.54730872 0 7102.75816085 0 1034.60903372 0 2375.78984229 0 6549
0.07950000 0.07947320 25475.03753446 0 449.99536994 0 5761.39989313 0 -666.20383589 0 2664.64897561 0 6828
0.08050000 0.08048110 25146.62719283 0 776.59673736 0 6702.07757990 0 -978.20475164 0 1526.29288564 0 7147
0.08150000 0.08149960 23782.07723229 0 595.74700728 0 6940.98196217 0 -425.66017472 0 1777.69704686 0 7386
0.08250000 0.08250610 23932.91751078 0 -25.93066391 0 7281.45952608 0 974.01117008 0 1219.22200693 0 7227
0.08350000 0.08350160 23156.42281244 0 86.75345703 0 6031.45944763 0 881.69470140 0 605.78121316 0 7798
0.08450000 0.08449610 23331.55281225 0 318.69445311 0 6188.15587811 0 830.75061558 0 1565.13425735 0 7371
0.08550000 0.08548940 22734.84641644 0 351.86378670 0 5859.65680690 0 267.54518014 0 1717.37202666 0 8256
0.08650000 0.08650700 22052.84871609 0 532.85992058 0 6542.46416462 0 -453.85732472 0 1914.65114678 0 8037
0.08750000 0.08749060 21347.22676624 0 754.14815473 0 6269.28798379 0 -1126.41087086 0 464.64795023 0 8155
0.08850000 0.08849210 20461.81651387 0 706.23862040 0 7244.06000997 0 -441.53278667 0 1387.70837977 0 8718
0.08950000 0.08949900 19757.63641962 0 249.13490233 0 7864.74557359 0 -336.82966924 0 798.47190510 0 8571
0.09050000 0.09049190 19379.75933960 0 383.52360839 0 7985.01851330 0 -203.14747242 0 -501.49734297 0 8932
0.09150000 0.09150830 19476.14184108 0 83.02537300 0 8255.96536355 0 386.84985836 0 -744.36017343 0 9285
0.09250000 0.09250820 18579.64039175 0 578.72423820 0 8800.21039779 0 -555.23086483 0 -1478.73383312 0 9204
0.09350000 0.09350330 18220.95108245 0 550.53041556 0 7767.14304045 0 -551.64175349 0 49.41982263 0 9349
0.09450000 0.09448040 18199.76689628 0 31.64773228 0 9530.17752494 0 569.60838343 0 -622.50562904 0 9564
0.09550000 0.09549270 18125.34496475 0 -393.55559603 0 8256.03191073 0 1390.51445260 0 -329.54275285 0 10155
0.09650000 0.09649430 18269.19778917 0 272.73031472 0 8712.00210847 0 486.61517491 0 590.03947733 0 9913
0.09750000 0.09749140 17515.77278048 0 701.30192863 0 7836.26337983 0 125.36268999 0 1725.32441487 0 10476
0.09850000 0.09850240 16966.98035548 0 308.25874590 0 8520.70114350 0 382.30357673 0 2215.69950554 0 10575
0.09950000 0.09950330 16992.37919649 0 -75.54214241 0 8568.77039108 0 1274.25652618 0 3027.60839574 0 10882
0.10050000 0.10051200 16832.44413650 0 -152.42188318 0 8274.74275998 0 717.50616738 0 3755.62347223 0 10875
0.10150000 0.10150300 16599.97264847 0 396.38052389 0 7118.54093411 0 -33.45581921 0 3159.59363943 0 11118
0.10250000 0.10250800 16537.08556177 0 410.89113686 0 7134.83390243 0 -413.59184332 0 3231.47568685 0 11575
0.10350000 0.10349800 15835.78917873 0 103.39391254 0 7236.02998338 0 95.45927025 0 2494.55437922 0 11364
0.10450000 0.10450100 15900.89450482 0 -26.49210029 0 7044.06354660 0 938.99626131 0 2232.87976962 0 12093
0.10550000 0.10551000 16009.92097082 0 -263.40150896 0 5791.27957771 0 728.48090676 0 1150.81150415 0 12067
0.10650000 0.10649700 15882.92676576 0 -12.75055092 0 4904.62711128 0 423.79241715 0 584.12676024 0 12054
0.10750000 0.10749900 15965.11253515 0 117.63212571 0 4316.93785858 0 143.80845963 0 -219.23525360 0 12807
0.10850000 0.10850100 15575.47878636 0 171.45770450 0 4507.44025736 0 -549.04308605 0 317.61860701 0 12736
0.10950000 0.10950300 15664.76292179 0 64.91744121 0 3843.68757600 0 77.89014881 0 -1654.65130792 0 12933
0.11050000 0.11050200 15297.08974296 0 202.98775919 0 5035.61414724 0 -384.90557153 0 -1484.10197244 0 13428
0.11150000 0.11150900 14995.18736203 0 478.51860113 0 4729.16437556 0 -642.83468392 0 -1563.91422568 0 13453
0.11250000 0.11250000 15131.94182040 0 97.52123467 0 5352.84456235 0 -105.42715077 0 -1467.49845061 0 13668
0.11350000 0.11349100 14551.42857213 0 179.06182913 0 6448.67700323 0 -85.90109854 0 -986.11610243 0 13791
0.11450000 0.11448600 14689.95762201 0 308.30754717 0 6375.48619457 0 83.77158873 0 -141.09000726 0 14205
0.11550000 0.11549300 14443.17848991 0 48.80625761 0 7052.49285628 0 454.68140065 0 799.36585557 0 14776
0.11650000 0.11649800 14584.81307494 0 -0.75015532 0 7143.08575296 0 565.27616190 0 2256.58165749 0 14553
0.11750000 0.11747300 14455.04607065 0 72.83489215 0 6730.94796556 0 397.29332940 0 1113.17907291 0 14568
0.11850000 0.11849100 14647.70016164 0 142.31003892 0 6809.68437269 0 242.59553261 0 2644.93991864 0 16015
0.11950000 0.11950300 14102.12418376 0 101.57595445 0 6550.06163453 0 150.62067280 0 2457.16595430 0 15270
0.12050000 0.12050700 14071.73430412 0 226.70406562 0 6431.35255359 0 354.28721324 0 2760.80965315 0 15999
0.12150000 0.12150000 14022.37847770 0 -136.31635609 0 5745.18456319 0 781.94491253 0 2176.31466518 0 15670
0.12250000 0.12250700 13861.88885786 0 -97.48419007 0 4927.51934178 0 862.09655639 0 2444.32234824 0 16887
0.12350000 0.12352200 13879.19112510 0 162.40617867 0 4576.40531999 0 185.13647770 0 2046.20383378 0 16407
0.12450000 0.12449800 13580.28336734 0 266.35176735 0 4264.27685547 0 -384.21569908 0 1204.06034070 0 16306
0.12550000 0.12549900 13231.02157544 0 127.86819138 0 4110.71923372 0 66.72719182 0 1282.26437038 0 17523
0.12650000 0.12650100 13088.49969466 0 28.00105764 0 4024.40753907 0 37.73591211 0 590.21250000 0 17154
0.12750000 0.12750600 12911.37327940 0 150.23691738 0 4367.89081736 0 -118.92092280 0 413.08053914 0 18007
0.12850000 0.12850300 12757.20564182 0 455.13613973 0 4463.34165830 0 -539.55456706 0 -302.25397187 0 17496
0.12950000 0.12949900 12644.62999279 0 89.33216032 0 4711.34082206 0 85.52710338 0 579.47067576 0 18405
0.13050000 0.13049000 12388.20151935 0 -168.76476188 0 4613.81592729 0 542.42829619 0 613.34651860 0 18100
0.13150000 0.13148800 12750.32909971 0 -29.66152073 0 4194.85705377 0 629.93118539 0 1020.65076236 0 19059
0.13250000 0.13249300 12717.72098068 0 124.40330145 0 4283.84172689 0 11.07306284 0 898.13850999 0 18957
0.13350000 0.13349100 12421.14237428 0 186.69368175 0 4161.93838123 0 33.65191157 0 983.57732745 0 19468
0.13450000 0.13450700 12241.57589569 0 332.16027533 0 4590.48004892 0 -485.81993609 0 1448.80978376 0 19953
0.13550000 0.13551000 11905.62354013 0 202.60511289 0 4674.82860171 0 -31.71150667 0 876.86448513 0 19956
0.13650000 0.13649900 11649.08415472 0 100.14907196 0 4483.54981914 0 276.07431060 0 1349.70993902 0 19723
0.13750000 0.13749600 11660.95173545 0 52.67897085 0 4547.06910406 0 407.81000235 0 868.14014961 0 20946
0.13850000 0.13851100 11447.22437026 0 -3.21719023 0 3807.44154437 0 749.85031592 0 1598.07511228 0 20955
0.13950000 0.13949800 11446.78072238 0 22.28221467 0 3603.11951419 0 483.06488276 0 1228.44988279 0 20506
0.14050000 0.14048300 11461.75383826 0 176.71049538 0 3108.31903594 0 45.71137001 0 1813.36633625 0 21447
0.14150000 0.14148400 10917.95245189 0 192.30582741 0 3502.61108745 0 134.89557376 0 1626.81240358 0 21771
0.14250000 0.14249400 10824.37602324 0 215.12707425 0 3114.57447102 0 -27.35211171 0 2118.74026182 0 22470
0.14350000 0.14350900 10641.30472641 0 -69.28859284 0 3138.70891557 0 208.23722270 0 1509.31226311 0 22519
0.14450000 0.14449900 10826.03970278 0 28.88569151 0 3124.81164580 0 285.96544004 0 1492.49800853 0 22218
0.14550000 0.14550500 10693.13388975 0 122.42241368 0 2674.55341449 0 -198.89178015 0 1616.66395837 0 23559
0.14650000 0.14650700 10587.67878917 0 51.52437725 0 3041.51675672 0 -212.08586804 0 1087.62162778 0 23044
0.14750000 0.14750500 10652.51792653 0 0.91495609 0 2800.61595900 0 334.78777988 0 1370.05119423 0 23649
0.14850000 0.14849900 10514.70980444 0 42.95420937 0 3233.94902377 0 62.30158241 0 1020.12171227 0 23640
0.14950000 0.14949500 10523.59385320 0 41.13691675 0 2774.74019652 0 70.48710758 0 1383.26080979 0 24457
0.15050000 0.15050000 10576.29922110 0 51.58704251 0 2720.36005788 0 328.44916083 0 1329.47959579 0 24591
0.15150000 0.15149900 10394.89160381 0 144.75010225 0 2897.73047948 0 -24.99312503 0 1551.89136819 0 25020
0.15250000 0.15250500 10304.37634552 0 216.93161199 0 3241.15830179 0 -225.94542775 0 1513.67110351 0 25297
0.15350000 0.15350100 10064.22974920 0 212.79237729 0 3279.64475520 0 36.30525862 0 1734.64102031 0 25452
0.15450000 0.15450400 9626.00546657 0 111.80259260 0 2923.69497154 0 145.31908066 0 1547.73216934 0 26061
0.15550000 0.15549900 9668.01892061 0 97.61395708 0 3171.07302827 0 215.30231516 0 1492.53128213 0 26128
0.15650000 0.15649500 9631.66197702 0 13.23135431 0 2891.03139652 0 -35.17850392 0 1325.27603215 0 26331
0.15750000 0.15749700 9250.77918262 0 238.12910760 0 2957.83367574 0 -162.18213650 0 1049.55774897 0 27345
0.15850000 0.15849900 9367.56948648 0 109.37683691 0 2837.72710399 0 -206.58019788 0 867.50795138 0 26980
0.15950000 0.15949700 9156.88110926 0 99.33664179 0 2948.07342243 0 -7.54374415 0 327.43542543 0 27777
0.16050000 0.16050000 8926.37276308 0 106.50421690 0 2990.79671307 0 29.63179633 0 413.18701463 0 28224
0.16150000 0.16150500 8916.22431787 0 70.00375322 0 2974.96957503 0 146.56462207 0 390.14838033 0 28075
0.16250000 0.16249700 8863.27494364 0 -72.77921434 0 2507.94145393 0 300.41505142 0 -81.53216515 0 28590
0.16350000 0.16349900 9000.58396186 0 -20.17976738 0 2376.31112855 0 282.57597025 0 289.43809380 0 29163
0.16450000 0.16449100 8845.31829578 0 19.43687900 0 2095.90348731 0 318.97062391 0 555.71444101 0 28996
0.16550000 0.16550500 8907.68409622 0 46.37295991 0 1960.49106376 0 330.49548666 0 1185.61568017 0 30777
0.16650000 0.16650700 8830.27863272 0 40.73674636 0 1885.96931147 0 411.24494604 0 1135.26164603 0 29211
0.16750000 0.16749900 8698.48193939 0 110.06182924 0 1484.26834040 0 117.67759962 0 1489.08191987 0 30922
0.16850000 0.16850800 8558.79940502 0 167.57911293 0 1587.98212306 0 -64.14482843 0 1414.82635631 0 30867
0.16950000 0.16949900 8289.88224381 0 220.82794948 0 2099.87413581 0 -517.63281629 0 1431.61842849 0 30852
0.17050000 0.17049200 8047.65050246 0 273.57213657 0 2267.07392981 0 -510.65312605 0 790.74466818 0 31257
0.17150000 0.17149500 7895.67892188 0 82.89549508 0 2400.19047558 0 -10.16534819 0 546.36899846 0 32608
0.17250000 0.17250900 7888.80237977 0 -68.01155242 0 2174.89499197 0 101.26606641 0 375.69765983 0 32361
0.17350000 0.17350400 8006.29142904 0 -98.01601297 0 2279.49607039 0 467.17785225 0 165.61264371 0 32508
0.17450000 0.17449800 8071.55203189 0 61.79549109 0 2001.96104915 0 83.33725745 0 156.22172726 0 32791
0.17550000 0.17549800 7807.89209803 0 175.29082217 0 1949.39986682 0 -266.44936989 0 128.01459518 0 33633
0.17650000 0.17650100 7690.46959594 0 180.24193249 0 2040.95769762 0 -50.67601159 0 196.38073317 0 33984
0.17750000 0.17750300 7609.78113815 0 46.87350563 0 2221.93275823 0 -117.86836821 0 14.37707496 0 34069
0.17850000 0.17849800 7628.85799690 0 15.62439096 0 2179.97476017 0 91.04197924 0 -25.62798514 0 34536
