### header ###
fiducial parameters:
Omega_m = 0.31
Omega_nu = 0
Omega_de = 0.69
Omega_k = 0
H_0 = 100
w_de = -1
zeff = 0
beta = 0
fgrowth = 0
b_1 = 2
gamma = 0.55
Lx = 3500 Ly = 3500 Lz = 3500
nx = 700 ny = 700 nz = 700
xoffset = 1379.75464 yoffset = 22.6059522 zoffset = 368.141391
bins = 400 dk = 0.001
kx_ny = 0.628318531 ky_ny = 0.628318531 kz_ny = 0.628318531
############################
A(data) = 3.36365496 (not used)
A(ran) = 3.36177652 (used)
Ngal = 188982
weighted Ngal = 0
Nran = 9399747
weighted Nran = 0
SN(data) = 6643.083
SN(ran) = 133.715948
SN(data+ran) = 6776.79895
############################
13 columns: k_central k_mean P_0(k) sigma^{lin}_{P_0(k)} P^img_1(k) sigma^{lin}_{P_1(k)} P_2(k) sigma^{lin}_{P_2(k)} P^img_3(k) sigma^{lin}_{P_3(k)} P_4(k) sigma^{lin}_{P_4(k)} N_modes
### header ###
0.00050000 0 0 0 0 0 0 0 0 0 0 0 0
0.00150000 0.00179520 33120.97597466 0 -21884.70617035 0 -38807.54356198 0 20343.25161849 0 -24901.73356421 0 3
0.00250000 0.00253879 63761.96031170 0 -19925.44622945 0 -15549.19264959 0 -24652.29254484 0 31550.35157482 0 6
0.00350000 0.00331552 61641.76710308 0 -994.30806049 0 -17965.85355264 0 -50739.56415085 0 -14948.16068697 0 7
0.00450000 0.00420575 60839.42991584 0 10475.40260246 0 -163.58184555 0 -32003.53788213 0 20507.06859742 0 24
0.00550000 0.00557378 37060.79095461 0 10284.56746777 0 21519.80579076 0 -4703.34406906 0 8416.03351790 0 45
0.00650000 0.00659388 23053.05285688 0 8131.92141688 0 16951.56359172 0 20129.96790118 0 -6557.58146606 0 40
0.00750000 0.00754703 32921.99990141 0 -10331.90469634 0 14016.61105529 0 21248.29328947 0 -8792.44655993 0 57
0.00850000 0.00846663 38380.19974357 0 -10432.23566394 0 9253.94017375 0 11971.94889788 0 6880.11347332 0 75
0.00950000 0.00948925 46508.49433904 0 1872.84842548 0 12007.10799221 0 -6766.63943734 0 9616.25630446 0 112
0.01050000 0.01054430 56260.65107971 0 -4456.43184260 0 8969.37333365 0 -14525.03152339 0 2348.52768020 0 105
0.01150000 0.01145670 52872.84497187 0 -1412.75230248 0 8154.79146498 0 9070.07031074 0 10631.95484738 0 144
0.01250000 0.01249090 61980.60316984 0 -2877.27831231 0 25024.95676231 0 -1853.49428681 0 5597.60509660 0 169
0.01350000 0.01339930 67940.34693800 0 -2172.73220857 0 16977.07334471 0 -2662.19782109 0 -545.58152348 0 180
0.01450000 0.01448870 70820.06531364 0 -1298.75698024 0 25060.22676860 0 2215.12276330 0 1991.18040572 0 267
0.01550000 0.01550050 69944.41531458 0 2751.52632131 0 15590.78463815 0 -11781.95669416 0 -18815.99379872 0 238
0.01650000 0.01653350 69373.99505553 0 2304.88382020 0 36855.60381107 0 1968.75400549 0 10759.72543623 0 315
0.01750000 0.01747870 68120.46797644 0 2126.30445814 0 23604.06352127 0 13644.50139767 0 -2628.05911688 0 297
0.01850000 0.01844180 70974.34386319 0 -3506.18245286 0 30793.26647114 0 6184.15195601 0 3771.88316695 0 388
0.01950000 0.01947590 70184.09608063 0 115.23531805 0 29853.50935371 0 5091.05904078 0 -5186.76497925 0 399
0.02050000 0.02045430 68737.24943873 0 4378.49400164 0 16967.75673927 0 -7844.85905746 0 -9105.88378569 0 462
0.02150000 0.02154770 67045.73099216 0 5089.27335807 0 37136.21109386 0 -12575.53183580 0 -8179.38064862 0 571
0.02250000 0.02255340 56476.59668429 0 2163.48215031 0 25830.06674878 0 -1689.92131421 0 -23671.60891068 0 510
0.02350000 0.02348930 61989.80886331 0 1598.57421615 0 44157.16058602 0 7672.72368083 0 -4866.81722088 0 555
0.02450000 0.02439640 60004.37369761 0 -4142.81715769 0 17236.27461739 0 9664.78029111 0 -28118.06976723 0 592
0.02550000 0.02547300 66349.20382381 0 -2994.90045594 0 28315.82580881 0 11291.61487708 0 -8874.73215009 0 837
0.02650000 0.02652900 66254.15226596 0 2310.70669860 0 15146.02764052 0 -5386.50634509 0 -14208.93241037 0 723
0.02750000 0.02749970 62799.90988841 0 4366.18277303 0 21130.39386591 0 1037.36741441 0 -1287.10013225 0 826
0.02850000 0.02848090 59110.97778343 0 480.65698391 0 18941.98979605 0 6068.49295424 0 -1621.97664171 0 831
0.02950000 0.02946900 59486.74753604 0 -2636.76570649 0 14820.50101009 0 12051.91642788 0 2704.67710540 0 996
0.03050000 0.03053250 60821.24035285 0 873.87318931 0 12527.83968893 0 2251.93444597 0 9531.75247491 0 1041
0.03150000 0.03150510 56642.52099063 0 3355.02052966 0 4419.59797753 0 868.86995037 0 5251.48211344 0 1036
0.03250000 0.03246190 54086.11100604 0 2458.23070921 0 15786.21152837 0 -1973.04629871 0 23441.46657401 0 1059
0.03350000 0.03345080 49384.66353166 0 2150.66072664 0 6234.77217888 0 2345.61069540 0 6842.19267095 0 1302
0.03450000 0.03451200 48726.62281672 0 1171.41894808 0 11224.95678342 0 6567.87409683 0 17707.53957572 0 1339
0.03550000 0.03553350 45201.50769066 0 417.34288613 0 5572.01770524 0 150.10493214 0 14371.75118157 0 1365
0.03650000 0.03647120 45053.10747550 0 1531.56120419 0 10369.45948921 0 3689.76394475 0 19173.57398833 0 1308
0.03750000 0.03744890 43961.17913594 0 -330.94578926 0 7536.81215342 0 -224.52020894 0 14828.70849583 0 1579
0.03850000 0.03847530 44024.28804658 0 -489.60314336 0 7398.80438980 0 599.53021456 0 11204.32715709 0 1662
0.03950000 0.03950240 45148.15903334 0 -50.76973221 0 3321.22565255 0 110.94191571 0 11632.22553536 0 1683
0.04050000 0.04050350 44491.00561416 0 342.47730673 0 6987.78681329 0 -794.74969940 0 5330.70653324 0 1822
0.04150000 0.04152450 44189.21414520 0 2501.97438997 0 8399.24144572 0 -3963.81633014 0 7177.08027160 0 1887
0.04250000 0.04250150 42758.00609100 0 385.78843081 0 10352.27922514 0 -2500.97618225 0 908.57421720 0 1920
0.04350000 0.04349210 41092.10830938 0 918.46867400 0 13317.42199967 0 -723.87806002 0 1777.00939265 0 2005
0.04450000 0.04448520 40703.80550422 0 351.70518259 0 12222.38812497 0 2258.06787789 0 305.55914856 0 2151
0.04550000 0.04548030 41055.06371157 0 -180.85305744 0 13519.94725594 0 1172.71661812 0 2366.59524002 0 2274
0.04650000 0.04648670 41009.70071605 0 538.95564242 0 11751.23407861 0 935.03781312 0 4909.31868759 0 2311
0.04750000 0.04749250 39493.42318126 0 910.13696685 0 12451.31042998 0 2145.42568168 0 4462.94237521 0 2568
0.04850000 0.04851840 38310.32520279 0 1313.59700176 0 9790.73192365 0 -1390.61427337 0 5146.22665440 0 2493
0.04950000 0.04949480 38483.56969913 0 720.13921753 0 14755.72841992 0 1295.50725954 0 6202.40806619 0 2644
0.05050000 0.05050630 35839.98290652 0 740.42058027 0 12764.19309589 0 -278.41233491 0 5898.28744587 0 2829
0.05150000 0.05149060 35754.69160199 0 487.69434837 0 15536.99233295 0 -789.10760751 0 3882.78404524 0 2784
0.05250000 0.05249300 35359.06860684 0 171.85476935 0 13385.07830105 0 1483.35886225 0 1331.43164645 0 3055
0.05350000 0.05348950 34684.61292042 0 1254.46983083 0 14115.65544403 0 -2214.59038585 0 -472.80663471 0 3009
0.05450000 0.05448610 34427.85171107 0 -36.59762257 0 12302.68839088 0 1527.49073491 0 1769.32319317 0 3336
0.05550000 0.05550870 34067.60963419 0 -309.27802690 0 11809.68468653 0 1565.48917565 0 -438.02131372 0 3349
0.05650000 0.05647670 33554.97451124 0 0.35839983 0 9266.52868229 0 982.11439857 0 -2827.74502674 0 3324
0.05750000 0.05747970 33463.58304839 0 956.07670461 0 11356.94202710 0 -242.76300968 0 -2651.90519032 0 3639
0.05850000 0.05849280 32469.47906592 0 588.05748043 0 7438.28905093 0 -963.55328048 0 -3943.16452143 0 3846
0.05950000 0.05951020 31909.48453201 0 -349.83520678 0 9852.87590015 0 1330.10070282 0 -4416.31498324 0 3787
0.06050000 0.06049470 32196.30288509 0 -38.59847450 0 8788.35390826 0 263.22072245 0 -3091.07222468 0 3930
0.06150000 0.06148310 31776.94472847 0 367.54341183 0 8490.48872302 0 -546.36012551 0 -4827.07746221 0 4083
0.06250000 0.06249100 32594.47685553 0 279.75769710 0 9310.86019649 0 -1144.01260042 0 -7045.48321981 0 4303
0.06350000 0.06350600 31259.65130281 0 657.64032273 0 11426.37292000 0 -1108.28230945 0 -6236.80186792 0 4470
0.06450000 0.06451750 31643.18489328 0 180.88854927 0 9687.48397126 0 -199.15464152 0 -9150.45930622 0 4479
0.06550000 0.06550280 31425.46469719 0 -126.08361779 0 8870.35112730 0 235.67351659 0 -8205.24531990 0 4636
0.06650000 0.06648880 30585.97200017 0 -171.63738189 0 9805.44994200 0 363.29326516 0 -8093.43496347 0 4653
0.06750000 0.06749660 31506.98499475 0 -179.69513648 0 7836.80684848 0 2046.98021757 0 -9375.32223315 0 5220
0.06850000 0.06852730 31161.38329785 0 320.65094025 0 6936.58984818 0 -704.95315067 0 -8143.58935607 0 5029
0.06950000 0.06949320 30165.39381190 0 1249.76716332 0 6801.14415104 0 138.07652905 0 -9589.91471171 0 5040
0.07050000 0.07048030 28376.93830400 0 901.23739042 0 7347.58524229 0 21.85287444 0 -5344.80344456 0 5475
0.07150000 0.07148790 27425.53542978 0 553.41634501 0 7063.29568211 0 615.31076958 0 -6762.18077616 0 5509
0.07250000 0.07249820 27780.23190818 0 75.82419155 0 7379.16188000 0 988.42972611 0 -4700.68218179 0 5916
0.07350000 0.07351270 26150.15869270 0 727.98845761 0 7078.34643637 0 229.94491337 0 -5305.85116088 0 5721
0.07450000 0.07449140 26056.77081440 0 656.39478131 0 8083.75234853 0 -597.40403210 0 -3212.18809536 0 6028
0.07550000 0.07549160 25287.48539407 0 472.22545599 0 8301.21744709 0 184.94570911 0 -2113.59394644 0 6183
0.07650000 0.07648840 24751.22602162 0 778.40238422 0 8919.13021147 0 -33.37751536 0 -1993.73138102 0 6330
0.07750000 0.07749960 23811.69072814 0 435.95835108 0 8821.00639207 0 939.41661768 0 784.31621043 0 6583
0.07850000 0.07848650 23248.92339499 0 -138.35602721 0 8603.91839421 0 1620.56805970 0 427.41923855 0 6549
0.07950000 0.07947320 23688.35661807 0 157.19886171 0 8503.11050514 0 1001.12249190 0 3701.90880541 0 6828
0.08050000 0.08048110 23089.43198287 0 346.02094415 0 7341.22998644 0 457.88786569 0 1521.62349172 0 7147
0.08150000 0.08149960 23080.78084925 0 -145.64959832 0 8465.38934432 0 533.22703920 0 4519.24129092 0 7386
0.08250000 0.08250610 22416.19632811 0 353.00063439 0 6778.12991738 0 -207.11812093 0 868.06251123 0 7227
0.08350000 0.08350160 23417.95323648 0 335.95013732 0 8036.14893123 0 -1288.60853504 0 2293.38224897 0 7798
0.08450000 0.08449610 21766.69583483 0 557.12745950 0 8243.05521030 0 60.67339470 0 772.10702083 0 7371
0.08550000 0.08548940 21800.85672143 0 534.09215256 0 8088.18882731 0 -753.92189432 0 -171.08504029 0 8256
0.08650000 0.08650700 21003.73239676 0 10.01322133 0 8030.88061268 0 814.88576746 0 65.71390006 0 8037
0.08750000 0.08749060 21130.72660181 0 68.79370363 0 7261.48428038 0 1380.54346654 0 -1836.40275231 0 8155
0.08850000 0.08849210 20691.29337873 0 75.57574874 0 7064.99263525 0 883.44045580 0 565.01440965 0 8718
0.08950000 0.08949900 20149.71023174 0 301.66613844 0 6017.66199862 0 527.30212179 0 -797.86188927 0 8571
0.09050000 0.09049190 20190.96948439 0 251.55278326 0 5806.65197668 0 -356.89364452 0 -112.57897638 0 8932
0.09150000 0.09150830 19287.48058099 0 311.50957573 0 4740.66594679 0 379.82691245 0 -879.50529912 0 9285
0.09250000 0.09250820 19441.64821857 0 57.92510701 0 5442.45034249 0 283.33571724 0 66.37837367 0 9204
0.09350000 0.09350330 18981.36354522 0 170.44396910 0 4907.15590418 0 -309.34346496 0 -920.81889863 0 9349
0.09450000 0.09448040 19029.27751603 0 446.65691966 0 5896.82340787 0 -267.00282061 0 -1726.77736167 0 9564
0.09550000 0.09549270 18303.35867577 0 446.73788540 0 5351.39161555 0 -465.20472832 0 -524.53154079 0 10155
0.09650000 0.09649430 17632.23034844 0 448.75981060 0 6769.90024924 0 30.45687047 0 -1326.49606381 0 9913
0.09750000 0.09749140 17366.48526956 0 213.17058711 0 6031.64799797 0 635.18397627 0 889.57277859 0 10476
0.09850000 0.09850240 16944.24340174 0 195.51118332 0 6851.02126372 0 540.68586915 0 -78.49783549 0 10575
0.09950000 0.09950330 16852.96285085 0 120.44596238 0 5705.79972283 0 454.47288615 0 904.42832778 0 10882
0.10050000 0.10051200 16515.34681575 0 233.35323819 0 6360.44653150 0 -44.24932843 0 583.75187778 0 10875
0.10150000 0.10150300 16039.75629061 0 422.23521310 0 5641.14913582 0 -300.38177783 0 -55.57299687 0 11118
0.10250000 0.10250800 15925.07331417 0 238.71472280 0 6346.67126489 0 -158.74275632 0 444.07267077 0 11575
0.10350000 0.10349800 15367.74066752 0 201.88196685 0 5685.89102431 0 94.41248308 0 -918.90788540 0 11364
0.10450000 0.10450100 15344.33824196 0 44.38896660 0 6686.69408974 0 213.49334094 0 -167.01235277 0 12093
0.10550000 0.10551000 15306.29543643 0 -122.07636833 0 4963.48809348 0 761.41510697 0 -1326.97298528 0 12067
0.10650000 0.10649700 15474.21615822 0 26.84380215 0 5110.14699073 0 474.07324940 0 -231.43002464 0 12054
0.10750000 0.10749900 15291.87688039 0 223.17706499 0 4730.18476567 0 -464.61911312 0 -661.75515680 0 12807
0.10850000 0.10850100 15017.25884395 0 157.70462029 0 4974.85657035 0 356.57199981 0 -637.37670590 0 12736
0.10950000 0.10950300 14897.91756479 0 37.20652928 0 5318.40639582 0 103.89290549 0 -122.11962400 0 12933
0.11050000 0.11050200 14920.43269460 0 102.79021869 0 4309.55112141 0 452.69607640 0 -466.45026973 0 13428
0.11150000 0.11150900 14869.63501257 0 74.51875767 0 5049.98833848 0 159.01670889 0 574.71809786 0 13453
0.11250000 0.11250000 14421.32883193 0 357.74101197 0 5392.68414179 0 -363.63598314 0 -396.15204524 0 13668
0.11350000 0.11349100 14549.09942077 0 135.65421163 0 4896.50835511 0 -280.39322269 0 430.23972994 0 13791
0.11450000 0.11448600 14097.24405710 0 202.85244658 0 5931.01756806 0 -66.10608479 0 448.13981269 0 14205
0.11550000 0.11549300 13962.48601418 0 11.50534224 0 5460.96155020 0 361.36783337 0 924.40246437 0 14776
0.11650000 0.11649800 14193.07199873 0 -170.50718892 0 5325.58240025 0 913.90797382 0 857.39943448 0 14553
0.11750000 0.11747300 14274.03773645 0 -123.40842108 0 4691.38775875 0 931.04498222 0 1586.22971394 0 14568
0.11850000 0.11849100 14573.16731815 0 -21.66454591 0 4142.89479607 0 934.21595543 0 2468.60097836 0 16015
0.11950000 0.11950300 14300.98934504 0 167.97285042 0 4073.74118310 0 -176.95006523 0 2262.67072462 0 15270
0.12050000 0.12050700 14074.61801532 0 309.89247921 0 3700.94387127 0 -383.94840124 0 2555.61141842 0 15999
0.12150000 0.12150000 13722.80524813 0 162.47050762 0 4641.07808939 0 -86.87091280 0 2013.89517707 0 15670
0.12250000 0.12250700 13814.64035886 0 -30.17570863 0 4537.46412750 0 220.63385353 0 2032.63929991 0 16887
0.12350000 0.12352200 13636.73755981 0 -0.69500546 0 3656.41271553 0 -35.01324509 0 914.56346356 0 16407
0.12450000 0.12449800 13715.37414617 0 115.19760798 0 3855.76588947 0 52.06152392 0 1584.46621363 0 16306
0.12550000 0.12549900 13440.20154989 0 285.26669463 0 4190.18765986 0 -409.19751109 0 157.25431769 0 17523
0.12650000 0.12650100 13363.67229094 0 188.47936446 0 3819.28694271 0 -69.83427973 0 729.20848928 0 17154
0.12750000 0.12750600 12849.92804830 0 88.12787815 0 4473.22391478 0 300.59251057 0 271.31507799 0 18007
0.12850000 0.12850300 12874.77232947 0 302.90835249 0 3816.40323150 0 -222.97964169 0 -57.83615561 0 17496
0.12950000 0.12949900 12539.92909360 0 148.39245133 0 4243.01503092 0 54.52432420 0 70.31330853 0 18405
0.13050000 0.13049000 12361.80447061 0 85.68493111 0 4303.32895993 0 264.50619218 0 -54.21088697 0 18100
0.13150000 0.13148800 12200.98211486 0 31.13709358 0 4062.22852067 0 87.33951587 0 329.60375443 0 19059
0.13250000 0.13249300 12389.31063904 0 -70.58903568 0 3594.64583972 0 641.97511616 0 320.94929345 0 18957
0.13350000 0.13349100 12280.72782092 0 -91.43627129 0 3361.28705593 0 412.17660659 0 216.91941167 0 19468
0.13450000 0.13450700 12422.14058201 0 105.19656478 0 3316.54516744 0 -9.82247493 0 666.52104412 0 19953
0.13550000 0.13551000 12166.37758038 0 185.73207498 0 2901.66785440 0 13.59159639 0 718.46777415 0 19956
0.13650000 0.13649900 12137.20773241 0 108.97533558 0 2972.05259023 0 -117.29828069 0 369.09396116 0 19723
0.13750000 0.13749600 11852.60761872 0 127.20271956 0 3215.48218085 0 -255.50235850 0 -565.16524993 0 20946
0.13850000 0.13851100 11865.14067127 0 137.27352639 0 3078.87190804 0 -11.87301542 0 -416.55208378 0 20955
0.13950000 0.13949800 11627.78905658 0 60.51135231 0 2888.77988354 0 281.95597234 0 -168.52075555 0 20506
0.14050000 0.14048300 11455.21003206 0 135.46455217 0 2509.36112714 0 300.14442621 0 -330.58754360 0 21447
0.14150000 0.14148400 11266.88150788 0 265.84933613 0 2832.32569108 0 -256.68468009 0 -747.54667431 0 21771
0.14250000 0.14249400 10874.86315175 0 338.96028817 0 2930.17223055 0 -259.31662113 0 -824.01160431 0 22470
0.14350000 0.14350900 10496.96388933 0 228.59844206 0 3440.13437504 0 -62.28649838 0 -181.90006643 0 22519
0.14450000 0.14449900 10349.01841324 0 107.34836790 0 3313.11798759 0 75.22582148 0 -711.55795845 0 22218
0.14550000 0.14550500 10065.67160480 0 162.96295676 0 3574.21585494 0 -59.12184716 0 -392.09599451 0 23559
0.14650000 0.14650700 10070.35208991 0 4.24240502 0 3060.74889223 0 398.23608114 0 -803.00265905 0 23044
0.14750000 0.14750500 10112.57627669 0 -102.64381489 0 3123.36979020 0 490.78102848 0 -77.16866645 0 23649
0.14850000 0.14849900 10058.53996516 0 56.37699774 0 3121.92793459 0 -4.75856714 0 22.83588722 0 23640
0.14950000 0.14949500 10141.34684158 0 18.49268541 0 2339.44398989 0 585.29133592 0 229.75969038 0 24457
0.15050000 0.15050000 10130.33328301 0 -136.97960967 0 1770.63195441 0 718.25815053 0 424.70965914 0 24591
0.15150000 0.15149900 10241.32289087 0 -121.97987492 0 1555.93965508 0 390.80276095 0 425.84539771 0 25020
0.15250000 0.15250500 10271.39112579 0 106.94132097 0 1198.74765736 0 -61.09541474 0 439.05723151 0 25297
0.15350000 0.15350100 10114.89433686 0 256.41516401 0 1374.47658181 0 -406.38145618 0 129.66829264 0 25452
0.15450000 0.15450400 9672.39994341 0 361.71387871 0 1892.41329690 0 -756.99859235 0 84.98518750 0 26061
0.15550000 0.15549900 9382.08786329 0 260.88269814 0 2018.27619987 0 -429.85153805 0 -496.57728801 0 26128
0.15650000 0.15649500 9046.66788518 0 215.71934416 0 2970.67728181 0 -278.36686101 0 -670.77451815 0 26331
0.15750000 0.15749700 9110.99682748 0 4.71598803 0 2669.15200157 0 104.23151974 0 -529.14658784 0 27345
0.15850000 0.15849900 9084.83269388 0 -117.87835029 0 2905.87141804 0 271.66223245 0 -504.11042897 0 26980
0.15950000 0.15949700 9372.99308179 0 -107.44419584 0 2511.40190738 0 149.83985253 0 -349.40819570 0 27777
0.16050000 0.16050000 9289.18799765 0 36.12436120 0 2768.61785581 0 42.08410496 0 -464.26197658 0 28224
0.16150000 0.16150500 9299.99082348 0 189.23800233 0 2703.20197621 0 -278.68517836 0 -250.94165831 0 28075
0.16250000 0.16249700 9094.67058557 0 162.31523086 0 2779.59814078 0 111.72051774 0 -367.57335806 0 28590
0.16350000 0.16349900 9057.58162298 0 -57.93874918 0 2843.01760493 0 367.20069384 0 313.83207237 0 29163
0.16450000 0.16449100 8928.22499297 0 84.84843304 0 2292.86096271 0 466.46468829 0 -191.30983792 0 28996
0.16550000 0.16550500 8994.58362431 0 124.75156503 0 2210.56428136 0 286.52776372 0 773.08637352 0 30777
0.16650000 0.16650700 8435.24347102 0 187.76620050 0 2114.23723586 0 142.36771315 0 509.72479287 0 29211
0.16750000 0.16749900 8519.56984141 0 180.28851551 0 1962.54293520 0 58.60178093 0 737.67994551 0 30922
0.16850000 0.16850800 8104.10469493 0 48.79072994 0 1765.31927107 0 91.00981477 0 646.27960969 0 30867
0.16950000 0.16949900 7990.24246706 0 182.49122723 0 2082.57186857 0 -228.97332452 0 733.48525482 0 30852
0.17050000 0.17049200 7887.91508402 0 135.97474723 0 1792.24869726 0 -144.17668737 0 292.89521989 0 31257
0.17150000 0.17149500 7862.73806694 0 -47.99005643 0 2188.59262020 0 15.75382523 0 4.83072647 0 32608
0.17250000 0.17250900 7751.49336155 0 -10.63989614 0 1780.27020455 0 60.91618100 0 132.24699593 0 32361
0.17350000 0.17350400 7973.98277233 0 22.94679919 0 1943.58807962 0 98.03253885 0 -10.21491475 0 32508
0.17450000 0.17449800 7926.03552793 0 -15.86995007 0 1576.95747330 0 124.46541215 0 -118.65473407 0 32791
0.17550000 0.17549800 7973.84967797 0 53.93138881 0 1778.14069474 0 -81.20475302 0 -350.15796061 0 33633
0.17650000 0.17650100 7807.77009487 0 155.44423435 0 1911.39033487 0 -166.22376866 0 55.68557252 0 33984
0.17750000 0.17750300 7740.71271812 0 168.20021996 0 2090.51316559 0 -124.52530462 0 -224.67659482 0 34069
0.17850000 0.17849800 7599.92106406 0 -1.85911752 0 2051.09505163 0 131.19887782 0 17.49669592 0 34536
