### header ###
fiducial parameters:
Omega_m = 0.31
Omega_nu = 0
Omega_de = 0.69
Omega_k = 0
H_0 = 100
w_de = -1
zeff = 0
beta = 0
fgrowth = 0
b_1 = 2
gamma = 0.55
Lx = 3500 Ly = 3500 Lz = 3500
nx = 700 ny = 700 nz = 700
xoffset = 1379.75464 yoffset = 22.6059522 zoffset = 368.141391
bins = 400 dk = 0.001
kx_ny = 0.628318531 ky_ny = 0.628318531 kz_ny = 0.628318531
############################
A(data) = 3.3055297 (not used)
A(ran) = 3.30140219 (used)
Ngal = 185403
weighted Ngal = 0
Nran = 9399747
weighted Nran = 0
SN(data) = 6696.69495
SN(ran) = 131.314536
SN(data+ran) = 6828.00949
############################
13 columns: k_central k_mean P_0(k) sigma^{lin}_{P_0(k)} P^img_1(k) sigma^{lin}_{P_1(k)} P_2(k) sigma^{lin}_{P_2(k)} P^img_3(k) sigma^{lin}_{P_3(k)} P_4(k) sigma^{lin}_{P_4(k)} N_modes
### header ###
0.00050000 0 0 0 0 0 0 0 0 0 0 0 0
0.00150000 0.00179520 33911.55649313 0 -13180.55662933 0 -42950.88200593 0 42589.64172133 0 816.31542275 0 3
0.00250000 0.00253879 61804.69678625 0 -16473.97665113 0 -1567.35249674 0 -18747.89384946 0 10668.28960859 0 6
0.00350000 0.00331552 61367.59271452 0 -1429.38909790 0 17646.31616856 0 -64128.30254690 0 -3691.17252676 0 7
0.00450000 0.00420575 70283.02955741 0 8523.98413780 0 45739.43074265 0 -30912.38592636 0 30116.48163336 0 24
0.00550000 0.00557378 60814.36381074 0 -1253.40507592 0 66683.71432377 0 27610.20385897 0 32502.75265677 0 45
0.00650000 0.00659388 63593.26320612 0 7043.47571317 0 58408.35045676 0 65923.52368494 0 17040.62590322 0 40
0.00750000 0.00754703 83119.75908134 0 -15815.60320029 0 40928.95680227 0 32591.03858447 0 35802.93830871 0 57
0.00850000 0.00846663 74361.15176330 0 3824.31125493 0 44967.70525900 0 36249.69172178 0 61586.20020637 0 75
0.00950000 0.00948925 90418.09940918 0 6161.64791740 0 38509.07945211 0 15275.35099694 0 53063.50264741 0 112
0.01050000 0.01054430 72428.17795916 0 5526.28870022 0 34363.52276877 0 9438.35350541 0 59667.64495826 0 105
0.01150000 0.01145670 74737.91972363 0 510.86164055 0 47380.59515508 0 35982.83752321 0 54020.34020814 0 144
0.01250000 0.01249090 73882.89935089 0 -8584.75280588 0 22017.02414995 0 16570.58097655 0 46821.82065283 0 169
0.01350000 0.01339930 88887.51423032 0 -4807.20203728 0 9878.76275383 0 14070.51427245 0 56756.20575935 0 180
0.01450000 0.01448870 84904.88723016 0 -1774.54714693 0 1442.84271980 0 17861.04174148 0 35624.81368572 0 267
0.01550000 0.01550050 90683.95540003 0 -1484.24615801 0 -15673.63587935 0 -8993.54105180 0 24067.23190583 0 238
0.01650000 0.01653350 83166.78575640 0 5538.53338166 0 3940.26971902 0 -6201.77586796 0 21774.68149663 0 315
0.01750000 0.01747870 80010.34201691 0 6329.73500715 0 3114.49683264 0 -12855.80638268 0 12691.32393194 0 297
0.01850000 0.01844180 73276.09996585 0 4514.66062658 0 19382.86487474 0 -4825.90179534 0 15821.48153467 0 388
0.01950000 0.01947590 67643.21377176 0 3146.52820942 0 9689.38056594 0 -1433.41520239 0 -6275.58778365 0 399
0.02050000 0.02045430 66053.51251317 0 -22.33900160 0 21064.29033209 0 254.01059251 0 10706.55423806 0 462
0.02150000 0.02154770 66609.95786406 0 1026.72652005 0 16486.28787975 0 581.56469374 0 4837.48100495 0 571
0.02250000 0.02255340 68296.26344807 0 878.08562591 0 25656.93316441 0 7012.66436804 0 4932.56583639 0 510
0.02350000 0.02348930 70039.68869636 0 -2928.05381194 0 14751.18102917 0 8696.84044224 0 15241.63375822 0 555
0.02450000 0.02439640 66903.43093531 0 -4050.42748711 0 11041.14237640 0 12378.88491391 0 -4281.80094665 0 592
0.02550000 0.02547300 77393.48500894 0 -708.44244123 0 7930.80474261 0 -612.77199459 0 15359.86591769 0 837
0.02650000 0.02652900 72653.10743327 0 233.20239791 0 4777.97673332 0 224.31834916 0 -4416.27061845 0 723
0.02750000 0.02749970 72641.46167648 0 2522.47092193 0 11268.21245152 0 -4272.76162114 0 19369.99908628 0 826
0.02850000 0.02848090 69297.46579659 0 2348.12839711 0 4027.59071260 0 -3628.35198725 0 -5987.41630454 0 831
0.02950000 0.02946900 66230.86075237 0 3744.54336648 0 14552.31586788 0 -140.92363930 0 8818.84360867 0 996
0.03050000 0.03053250 62254.33391053 0 1088.99360884 0 12668.36515426 0 3991.04521865 0 4321.58507010 0 1041
0.03150000 0.03150510 60724.96876334 0 559.79267413 0 10275.69451021 0 2507.10961416 0 4776.54596892 0 1036
0.03250000 0.03246190 59695.92751048 0 998.26318132 0 11167.39347126 0 757.57755283 0 6288.96376717 0 1059
0.03350000 0.03345080 58080.27285103 0 2533.10737981 0 8501.22500166 0 -1724.10438321 0 -3090.29584090 0 1302
0.03450000 0.03451200 54151.10542015 0 4575.79530416 0 20195.84961105 0 -7883.72261157 0 4751.36895185 0 1339
0.03550000 0.03553350 50249.77689362 0 2355.99205574 0 20981.43909089 0 -5236.79736868 0 -4603.23492541 0 1365
0.03650000 0.03647120 47978.85431847 0 510.90045974 0 22767.56544743 0 3391.69911796 0 454.21113390 0 1308
0.03750000 0.03744890 48853.06246193 0 -1514.92440876 0 18871.11704755 0 2520.14177058 0 -7821.20153437 0 1579
0.03850000 0.03847530 48779.86056207 0 294.64319253 0 19502.20615391 0 830.65412216 0 -7824.04088079 0 1662
0.03950000 0.03950240 48667.61764895 0 2351.43357380 0 21978.42678457 0 -932.32601547 0 -3491.54207289 0 1683
0.04050000 0.04050350 45313.19604393 0 1755.33719381 0 19264.07815543 0 -153.68738875 0 -6347.50310466 0 1822
0.04150000 0.04152450 44291.80771697 0 1036.82949135 0 22134.81266154 0 3338.78301732 0 -3095.05396439 0 1887
0.04250000 0.04250150 42870.69265200 0 533.76607137 0 20845.79375221 0 162.09895252 0 -1139.99758713 0 1920
0.04350000 0.04349210 42410.07524274 0 39.90657027 0 18041.49551583 0 4621.86813628 0 -2627.73747217 0 2005
0.04450000 0.04448520 42218.97391932 0 -334.38627855 0 15630.15838731 0 1183.63035592 0 -4257.92159962 0 2151
0.04550000 0.04548030 41629.69862546 0 658.23259265 0 17166.62190055 0 924.66532574 0 -1356.19828924 0 2274
0.04650000 0.04648670 40318.83005815 0 1798.93668902 0 17918.05049379 0 -2278.00985000 0 -1838.18843502 0 2311
0.04750000 0.04749250 39630.62128751 0 1050.82990926 0 16641.67554899 0 357.60237200 0 -2036.55449244 0 2568
0.04850000 0.04851840 37650.06624847 0 706.87414598 0 20486.10623518 0 287.94632781 0 -3802.90524482 0 2493
0.04950000 0.04949480 37682.00889568 0 1206.93296071 0 19787.47173942 0 -3022.11825325 0 -5090.84830804 0 2644
0.05050000 0.05050630 37178.13581832 0 234.78178436 0 21529.78786801 0 1466.30060134 0 -1407.12906562 0 2829
0.05150000 0.05149060 35891.88970823 0 340.53634726 0 22438.71145792 0 817.82493465 0 -4091.78656053 0 2784
0.05250000 0.05249300 36904.84872552 0 1072.87255408 0 20779.35748250 0 260.03089421 0 -1749.71395696 0 3055
0.05350000 0.05348950 35543.18247618 0 828.33606200 0 24700.76107551 0 -289.50575010 0 -2132.68189639 0 3009
0.05450000 0.05448610 34142.80794950 0 739.10516431 0 24146.42305204 0 296.71280988 0 2792.26428770 0 3336
0.05550000 0.05550870 34698.47691661 0 90.73397670 0 23904.63495857 0 1766.86094744 0 -777.87111589 0 3349
0.05650000 0.05647670 34529.44707512 0 130.17516034 0 24791.70889048 0 2259.94229017 0 2917.99409630 0 3324
0.05750000 0.05747970 33754.83788025 0 686.87006317 0 22902.32349035 0 1661.91604192 0 693.15100800 0 3639
0.05850000 0.05849280 32733.00590541 0 821.75565485 0 22532.43207213 0 917.95182422 0 3717.28120438 0 3846
0.05950000 0.05951020 31743.22748975 0 559.00409003 0 21004.39786857 0 1836.20311076 0 2899.20560867 0 3787
0.06050000 0.06049470 30978.04581229 0 313.15107288 0 20368.76137147 0 2751.12703822 0 4427.04017069 0 3930
0.06150000 0.06148310 30433.68986608 0 -3.66311180 0 17353.61948110 0 3972.06818067 0 5004.72516373 0 4083
0.06250000 0.06249100 30787.94269660 0 -254.66719137 0 15058.40718463 0 2668.63071532 0 5495.99864136 0 4303
0.06350000 0.06350600 30697.99308935 0 -496.88340504 0 12591.28133547 0 3378.33422564 0 6130.01582371 0 4470
0.06450000 0.06451750 30975.27301306 0 -309.61963577 0 9870.62181527 0 1343.96469900 0 6543.58437551 0 4479
0.06550000 0.06550280 31075.64834544 0 -500.48138933 0 8170.05295198 0 1049.90046696 0 4724.91644712 0 4636
0.06650000 0.06648880 31436.99954201 0 277.16568438 0 8698.68158093 0 -458.19398273 0 3466.29850864 0 4653
0.06750000 0.06749660 31175.24729403 0 430.89411056 0 6565.85549898 0 -94.46361350 0 1624.42779623 0 5220
0.06850000 0.06852730 30567.56061324 0 772.73256434 0 8497.30980914 0 -1905.43436211 0 861.97122587 0 5029
0.06950000 0.06949320 29487.38894245 0 890.84493888 0 9236.40499137 0 -1659.84198809 0 -3129.19266859 0 5040
0.07050000 0.07048030 28802.50753090 0 1260.22616204 0 11575.88225486 0 -2252.14517872 0 -1940.95946594 0 5475
0.07150000 0.07148790 26908.13109214 0 637.33123200 0 9990.53983667 0 -263.56344044 0 -4665.02398360 0 5509
0.07250000 0.07249820 26891.93794460 0 -386.80882093 0 11408.51609291 0 2141.29975641 0 -1954.95655649 0 5916
0.07350000 0.07351270 26983.99487927 0 -496.81907610 0 10066.40362380 0 1816.25004745 0 -4080.92827872 0 5721
0.07450000 0.07449140 27934.39954576 0 353.23465865 0 8058.58642265 0 1298.61279468 0 -3309.25825105 0 6028
0.07550000 0.07549160 26360.78052275 0 650.56413908 0 9071.60089592 0 -95.37209344 0 -955.33914002 0 6183
0.07650000 0.07648840 25754.64660953 0 856.31027894 0 8858.28390502 0 -368.38190632 0 -602.89084723 0 6330
0.07750000 0.07749960 24918.81400751 0 410.35321381 0 9240.45327826 0 300.38732343 0 -666.20827237 0 6583
0.07850000 0.07848650 24292.27229191 0 380.78519187 0 10205.32086557 0 -199.14909592 0 -274.39843074 0 6549
0.07950000 0.07947320 24143.09569295 0 638.10096106 0 10468.37078360 0 425.97294647 0 1135.18400765 0 6828
0.08050000 0.08048110 23720.63200119 0 53.87338185 0 10385.23117127 0 324.30770789 0 937.42796606 0 7147
0.08150000 0.08149960 23065.14226155 0 240.90967067 0 10187.99641594 0 656.26501431 0 1931.39885417 0 7386
0.08250000 0.08250610 23146.44073518 0 349.36272179 0 9345.18745104 0 157.48390547 0 981.22932105 0 7227
0.08350000 0.08350160 22878.81015282 0 125.61224192 0 9391.36010394 0 77.78356241 0 628.66124334 0 7798
0.08450000 0.08449610 22583.11884218 0 -31.74411479 0 10424.57164685 0 761.83102686 0 1486.46439739 0 7371
0.08550000 0.08548940 22257.48129978 0 237.88177391 0 8493.91590287 0 466.82293395 0 -214.62686126 0 8256
0.08650000 0.08650700 22228.75509969 0 292.83976390 0 8118.40124780 0 1184.05182140 0 854.99486299 0 8037
0.08750000 0.08749060 21323.04795690 0 405.95666334 0 7854.28657487 0 -42.36205036 0 -1169.76635974 0 8155
0.08850000 0.08849210 20742.97835650 0 596.99920341 0 7445.53160254 0 296.31796327 0 1024.90867287 0 8718
0.08950000 0.08949900 19625.20752806 0 394.99079692 0 7320.04580027 0 369.50766281 0 -336.53131604 0 8571
0.09050000 0.09049190 20002.86278415 0 49.79525964 0 6174.93517135 0 165.95757994 0 -957.01391075 0 8932
0.09150000 0.09150830 19390.29597670 0 96.11731096 0 6901.27547709 0 171.18153370 0 -1667.46164039 0 9285
0.09250000 0.09250820 18972.04693978 0 473.10166054 0 5534.78455709 0 94.87188046 0 -1398.71084714 0 9204
0.09350000 0.09350330 19079.40972624 0 -53.94813652 0 5720.82829470 0 131.29426211 0 -1252.06304109 0 9349
0.09450000 0.09448040 18558.56711755 0 273.71632213 0 5783.99266132 0 205.01190263 0 -2295.77794751 0 9564
0.09550000 0.09549270 18683.56490716 0 197.49539846 0 5684.99263736 0 553.45516420 0 -547.09547186 0 10155
0.09650000 0.09649430 17995.57796046 0 301.65726548 0 6249.61220040 0 -648.86718594 0 -1292.42390679 0 9913
0.09750000 0.09749140 17842.40853061 0 399.35961939 0 5248.03275119 0 69.89738864 0 -666.41900511 0 10476
0.09850000 0.09850240 17567.67958220 0 135.79839719 0 6354.04691086 0 631.72241370 0 -601.46451931 0 10575
0.09950000 0.09950330 17309.25469330 0 -57.46193862 0 5492.85983262 0 829.96424971 0 416.86818290 0 10882
0.10050000 0.10051200 17384.34209664 0 28.84853600 0 5851.11658525 0 607.11548415 0 -224.40264225 0 10875
0.10150000 0.10150300 17228.39986755 0 354.16521007 0 5030.03527517 0 26.57894437 0 907.23218237 0 11118
0.10250000 0.10250800 16674.94913984 0 252.65413912 0 5197.74526422 0 247.87383324 0 862.08657431 0 11575
0.10350000 0.10349800 16535.64370617 0 218.91582712 0 5004.95807887 0 -72.60463890 0 1663.09170880 0 11364
0.10450000 0.10450100 16103.08702519 0 46.84611037 0 5242.59806468 0 839.74557630 0 1065.87622704 0 12093
0.10550000 0.10551000 16036.76166744 0 191.77677731 0 4893.95737981 0 230.90097455 0 1330.07852042 0 12067
0.10650000 0.10649700 15692.15817825 0 269.92424189 0 4575.60675381 0 -193.56246002 0 1961.42272431 0 12054
0.10750000 0.10749900 15504.93877377 0 237.02442438 0 5382.33605503 0 -162.72338691 0 1306.80918923 0 12807
0.10850000 0.10850100 15310.17735536 0 159.57348697 0 5338.82528941 0 -559.21371365 0 1077.77597225 0 12736
0.10950000 0.10950300 15192.05610786 0 11.89142681 0 4949.30245258 0 296.31352679 0 562.77731523 0 12933
0.11050000 0.11050200 15112.19948983 0 102.80485907 0 5466.01913601 0 161.69966943 0 8.31729968 0 13428
0.11150000 0.11150900 14930.30385988 0 269.89762302 0 4745.03587839 0 -214.06564670 0 475.81013084 0 13453
0.11250000 0.11250000 14456.48792625 0 326.85313759 0 5452.68751728 0 79.85240337 0 -246.36210309 0 13668
0.11350000 0.11349100 14212.59250536 0 210.57413790 0 5486.41584720 0 -185.92506180 0 700.18726334 0 13791
0.11450000 0.11448600 14360.77089659 0 -235.22543224 0 4294.88855905 0 1259.61614621 0 805.23088052 0 14205
0.11550000 0.11549300 14641.37817938 0 -411.63757442 0 4373.28113908 0 752.11846569 0 703.83293978 0 14776
0.11650000 0.11649800 14859.54202335 0 68.99323426 0 3963.58341501 0 247.84832348 0 892.35777814 0 14553
0.11750000 0.11747300 14654.57670375 0 186.59275186 0 3256.80798068 0 -126.93542171 0 103.47609831 0 14568
0.11850000 0.11849100 14292.78185930 0 349.89177189 0 3998.23231427 0 -577.32452915 0 1230.29102148 0 16015
0.11950000 0.11950300 14260.72830012 0 118.44511045 0 3949.25358855 0 351.96471660 0 331.82310294 0 15270
0.12050000 0.12050700 14130.40673597 0 96.57626469 0 4059.66645417 0 339.41059077 0 613.81123975 0 15999
0.12150000 0.12150000 13890.83688189 0 61.90651397 0 3819.65295221 0 23.94733607 0 288.88686131 0 15670
0.12250000 0.12250700 13844.36476668 0 25.88563365 0 3502.75527301 0 480.30761120 0 706.63457613 0 16887
0.12350000 0.12352200 13662.13640082 0 285.75027081 0 3290.19248349 0 -269.76231041 0 -573.27291490 0 16407
0.12450000 0.12449800 13082.06680043 0 305.87192032 0 3310.16772920 0 -370.96948257 0 -319.73702562 0 16306
0.12550000 0.12549900 12824.30738335 0 346.75850875 0 3663.94363825 0 -379.42873848 0 -874.01848399 0 17523
0.12650000 0.12650100 12459.62882769 0 154.24083948 0 3490.61041235 0 -234.72300102 0 -1106.65855822 0 17154
0.12750000 0.12750600 12336.51654157 0 114.88594535 0 3636.65929376 0 181.44865471 0 -1807.45472827 0 18007
0.12850000 0.12850300 12354.92792850 0 -82.62564626 0 3271.33744868 0 260.18949833 0 -1733.15479992 0 17496
0.12950000 0.12949900 12100.71769445 0 164.07096734 0 3442.24170246 0 -4.54027020 0 -1969.59693646 0 18405
0.13050000 0.13049000 12102.82502187 0 286.23384700 0 3212.14373057 0 -209.08680839 0 -1968.46563437 0 18100
0.13150000 0.13148800 11753.45231800 0 213.56987020 0 3785.85807511 0 -196.39404260 0 -1499.99565767 0 19059
0.13250000 0.13249300 11601.61383178 0 -40.08114571 0 3428.55516542 0 360.06905421 0 -727.07676122 0 18957
0.13350000 0.13349100 11633.22374308 0 -25.61778124 0 3676.29923165 0 916.28703556 0 -930.56916987 0 19468
0.13450000 0.13450700 11862.70060794 0 -53.16010697 0 2686.18808009 0 384.30221042 0 139.98532404 0 19953
0.13550000 0.13551000 11792.82606717 0 27.56739184 0 3162.76572176 0 409.60566714 0 832.13590608 0 19956
0.13650000 0.13649900 11759.33065238 0 212.51177001 0 2901.27966250 0 -216.79075379 0 973.22813157 0 19723
0.13750000 0.13749600 11550.59432582 0 179.58977011 0 3207.18596553 0 108.62507558 0 904.03791765 0 20946
0.13850000 0.13851100 11092.74971580 0 216.08535366 0 3363.76039285 0 -79.81990617 0 1273.43577761 0 20955
0.13950000 0.13949800 11060.42996789 0 88.37022080 0 3312.98489322 0 133.56352101 0 1382.47333481 0 20506
0.14050000 0.14048300 10949.36272165 0 57.31198564 0 3448.26422240 0 -164.04323934 0 1143.54677015 0 21447
0.14150000 0.14148400 10919.63831383 0 89.81085638 0 3422.14445359 0 70.00419687 0 650.42106263 0 21771
0.14250000 0.14249400 10703.47088531 0 129.04053089 0 3380.17536433 0 -64.26561157 0 849.30951543 0 22470
0.14350000 0.14350900 10891.33357922 0 -115.29853788 0 3105.28004797 0 327.98111231 0 514.40084150 0 22519
0.14450000 0.14449900 10864.73688893 0 -178.94648068 0 2997.26288089 0 441.81783043 0 130.57998903 0 22218
0.14550000 0.14550500 10942.03144047 0 192.43892177 0 2853.15495895 0 -199.44966736 0 29.95898664 0 23559
0.14650000 0.14650700 10792.84375032 0 248.05905623 0 2874.89370496 0 -660.20238922 0 -573.69438039 0 23044
0.14750000 0.14750500 10272.13423599 0 343.67626512 0 3363.57184250 0 -275.15706861 0 -76.27271956 0 23649
0.14850000 0.14849900 10046.30637493 0 193.72439150 0 3603.15278778 0 -20.45194535 0 -482.83307675 0 23640
0.14950000 0.14949500 10107.05286061 0 -42.27431899 0 3356.59547962 0 559.89582226 0 -249.54638574 0 24457
0.15050000 0.15050000 9993.12408556 0 -138.58783323 0 3127.63990102 0 534.49587213 0 -163.85025252 0 24591
0.15150000 0.15149900 10147.49136469 0 56.25865466 0 2711.01017886 0 227.82427651 0 262.80591169 0 25020
0.15250000 0.15250500 10084.97028749 0 141.38059662 0 2585.73510933 0 -16.03021786 0 338.46672991 0 25297
0.15350000 0.15350100 9705.99517897 0 166.68183510 0 2640.59216943 0 39.94272757 0 657.27431323 0 25452
0.15450000 0.15450400 9664.22573126 0 99.56467680 0 2756.15135044 0 141.51812746 0 772.74032818 0 26061
0.15550000 0.15549900 9660.33272113 0 152.99307982 0 2861.75063658 0 87.67169722 0 365.01129157 0 26128
0.15650000 0.15649500 9295.17724400 0 213.22160661 0 2950.50239456 0 -232.42379589 0 616.56740219 0 26331
0.15750000 0.15749700 9143.19457222 0 186.50402228 0 3046.84053125 0 -222.69348881 0 674.80284089 0 27345
0.15850000 0.15849900 8881.98579289 0 95.46991780 0 3077.62969398 0 -105.31235688 0 368.18781037 0 26980
0.15950000 0.15949700 8908.63793916 0 129.56181715 0 3495.22435028 0 -54.35706895 0 322.84921549 0 27777
0.16050000 0.16050000 8735.18271009 0 68.27053187 0 3386.58607617 0 8.89173496 0 240.43940392 0 28224
0.16150000 0.16150500 8753.48318505 0 60.26934239 0 3176.11952288 0 -21.38416045 0 25.90027403 0 28075
0.16250000 0.16249700 8702.68550303 0 31.03150538 0 3124.64527784 0 176.04169620 0 40.60886486 0 28590
0.16350000 0.16349900 8566.24159817 0 -65.85398188 0 2763.11662212 0 521.72324973 0 428.81007465 0 29163
0.16450000 0.16449100 8895.73887711 0 -104.02533439 0 2699.37551326 0 498.22433075 0 399.46387665 0 28996
0.16550000 0.16550500 8747.88213059 0 -46.97898291 0 2073.45490468 0 259.96545615 0 100.65250139 0 30777
0.16650000 0.16650700 8883.87129638 0 186.21565116 0 2200.62656889 0 -445.49678046 0 -1.68812454 0 29211
0.16750000 0.16749900 8428.42238489 0 189.06719790 0 2386.94758642 0 -314.05278719 0 110.18194690 0 30922
0.16850000 0.16850800 8535.58552981 0 90.15379619 0 2477.60703028 0 -117.35817315 0 -146.75649978 0 30867
0.16950000 0.16949900 8440.43415119 0 -2.00547696 0 2492.91288207 0 185.27844502 0 -146.48476545 0 30852
0.17050000 0.17049200 8481.44939750 0 -21.00561790 0 2340.51983600 0 412.68236517 0 -188.99843248 0 31257
0.17150000 0.17149500 8362.15248313 0 32.26140821 0 1831.05679538 0 347.42952616 0 110.97408019 0 32608
0.17250000 0.17250900 8269.84045093 0 154.80981788 0 2202.21261005 0 -116.91008879 0 224.63001179 0 32361
0.17350000 0.17350400 8116.03882285 0 241.88236865 0 2077.80265389 0 19.99044064 0 350.14797854 0 32508
0.17450000 0.17449800 7844.08267368 0 173.11472933 0 2434.76173647 0 -116.28343616 0 678.04257951 0 32791
0.17550000 0.17549800 7720.72638122 0 75.67501495 0 2418.84586885 0 -33.42764757 0 483.65937092 0 33633
0.17650000 0.17650100 7696.89139898 0 11.96429597 0 2468.78952870 0 81.89739827 0 361.76600734 0 33984
0.17750000 0.17750300 7689.41593223 0 9.17098911 0 2533.01865023 0 -225.67702078 0 442.33689845 0 34069
0.17850000 0.17849800 7594.47528636 0 120.91401089 0 2463.48793656 0 -18.82841594 0 -32.22325449 0 34536
