### header ###
fiducial parameters:
Omega_m = 0.31
Omega_nu = 0
Omega_de = 0.69
Omega_k = 0
H_0 = 100
w_de = -1
zeff = 0
beta = 0
fgrowth = 0
b_1 = 2
gamma = 0.55
Lx = 3500 Ly = 3500 Lz = 3500
nx = 700 ny = 700 nz = 700
xoffset = 1379.75464 yoffset = 22.6059522 zoffset = 368.141391
bins = 400 dk = 0.001
kx_ny = 0.628318531 ky_ny = 0.628318531 kz_ny = 0.628318531
############################
A(data) = 3.3664249 (not used)
A(ran) = 3.37538862 (used)
Ngal = 189808
weighted Ngal = 0
Nran = 9399747
weighted Nran = 0
SN(data) = 6590.26568
SN(ran) = 134.257374
SN(data+ran) = 6724.52306
############################
13 columns: k_central k_mean P_0(k) sigma^{lin}_{P_0(k)} P^img_1(k) sigma^{lin}_{P_1(k)} P_2(k) sigma^{lin}_{P_2(k)} P^img_3(k) sigma^{lin}_{P_3(k)} P_4(k) sigma^{lin}_{P_4(k)} N_modes
### header ###
0.00050000 0 0 0 0 0 0 0 0 0 0 0 0
0.00150000 0.00179520 22795.29343980 0 -6307.94080515 0 -9607.57189725 0 36343.07960009 0 -50164.59650105 0 3
0.00250000 0.00253879 31513.30697702 0 -7933.48881228 0 14258.17732482 0 -31876.21094116 0 -4714.24671566 0 6
0.00350000 0.00331552 65093.12576942 0 -37854.25518428 0 -85148.56082711 0 111880.23097581 0 79321.24595051 0 7
0.00450000 0.00420575 101187.76255787 0 -57433.76698092 0 -74344.95861575 0 29963.42311547 0 -5839.75919957 0 24
0.00550000 0.00557378 172074.37505320 0 -14673.65356250 0 -121915.54597456 0 -59952.13415998 0 -11337.19969653 0 45
0.00650000 0.00659388 175204.31083199 0 66.06116544 0 5942.65223366 0 -93347.94999502 0 -97274.23371469 0 40
0.00750000 0.00754703 152173.44036900 0 35440.58890441 0 -34539.42915237 0 -66047.07961894 0 38365.00480375 0 57
0.00850000 0.00846663 111802.59259717 0 25884.08087791 0 57768.72112876 0 -46754.16435145 0 -20426.43559560 0 75
0.00950000 0.00948925 90329.25892162 0 14328.60642544 0 70104.79402245 0 5094.41967345 0 19257.97799711 0 112
0.01050000 0.01054430 89137.39889757 0 873.45616031 0 42779.52301308 0 75806.55654959 0 -11327.21761928 0 105
0.01150000 0.01145670 90076.26871923 0 -4659.15674042 0 65230.87843552 0 10999.23983432 0 44305.56080119 0 144
0.01250000 0.01249090 89518.04877683 0 4578.11336432 0 10492.09485387 0 35664.96381867 0 13536.91678728 0 169
0.01350000 0.01339930 94109.80431339 0 -1355.34426707 0 56062.11865433 0 537.58255224 0 64202.05900660 0 180
0.01450000 0.01448870 82440.42326826 0 6374.12197734 0 29222.19842342 0 -7312.69233669 0 20336.48598835 0 267
0.01550000 0.01550050 84439.61151818 0 4113.96895443 0 45028.26319433 0 5527.14272239 0 7260.15333675 0 238
0.01650000 0.01653350 82877.08369211 0 -3485.94101843 0 28318.04404820 0 5457.93365343 0 -1164.68659153 0 315
0.01750000 0.01747870 86331.10424573 0 -2225.69267399 0 41097.43208391 0 8263.28555353 0 -1906.25511069 0 297
0.01850000 0.01844180 89121.64939790 0 1247.94820702 0 26239.88647601 0 -3452.37905647 0 -15354.87487906 0 388
0.01950000 0.01947590 78766.35336719 0 6610.10937481 0 30278.30219683 0 -6793.10303326 0 -26990.31686153 0 399
0.02050000 0.02045430 73516.11346781 0 7222.08834882 0 28778.77236943 0 1466.13423339 0 -1771.70780051 0 462
0.02150000 0.02154770 62266.20149126 0 3788.47559759 0 34806.94882276 0 4233.82042865 0 -9213.75676721 0 571
0.02250000 0.02255340 64021.60523226 0 3178.80359254 0 28620.50098898 0 11567.34203321 0 -3871.68175709 0 510
0.02350000 0.02348930 55844.39845824 0 427.68653640 0 21423.53420125 0 8330.76439576 0 -8513.60277746 0 555
0.02450000 0.02439640 56150.29367007 0 3032.68816395 0 28623.27378822 0 -1093.12175234 0 2269.60272271 0 592
0.02550000 0.02547300 51805.65000151 0 1994.30812326 0 21512.15286486 0 507.88919977 0 7734.93420451 0 837
0.02650000 0.02652900 51789.67867791 0 -524.10342059 0 23004.80615016 0 3603.66298284 0 -4196.99765478 0 723
0.02750000 0.02749970 51354.12737375 0 -808.93644942 0 23216.09345202 0 4673.83039398 0 11077.12221930 0 826
0.02850000 0.02848090 53895.45333050 0 -1176.35453072 0 22063.38535319 0 7871.67757168 0 408.46438297 0 831
0.02950000 0.02946900 56762.86047752 0 -548.14580822 0 21285.44879924 0 147.28998635 0 8995.99220632 0 996
0.03050000 0.03053250 56684.55662707 0 -174.87712052 0 19668.24137222 0 -1488.17244172 0 8593.98068174 0 1041
0.03150000 0.03150510 55056.81256295 0 1062.27935187 0 22549.40160346 0 1849.78982702 0 1102.33631877 0 1036
0.03250000 0.03246190 56161.60669096 0 786.25716990 0 24562.56476153 0 -5229.58809066 0 9684.63353364 0 1059
0.03350000 0.03345080 56725.92679168 0 1147.78360738 0 28170.53112879 0 -345.66824409 0 1098.24477621 0 1302
0.03450000 0.03451200 53103.20913249 0 2353.84036353 0 29248.15182428 0 1178.37312857 0 4870.57713665 0 1339
0.03550000 0.03553350 51818.07214210 0 1561.92890143 0 30131.12201333 0 -860.78557691 0 2099.37503195 0 1365
0.03650000 0.03647120 48030.31747231 0 3392.81932886 0 34300.52477010 0 1301.95124496 0 978.77705741 0 1308
0.03750000 0.03744890 46930.40347095 0 1576.09235993 0 34842.66247693 0 3109.12869331 0 8028.68455568 0 1579
0.03850000 0.03847530 43957.74086489 0 734.30045779 0 30183.80519883 0 2680.83103196 0 3757.60879648 0 1662
0.03950000 0.03950240 44673.67762790 0 647.36654700 0 30205.32212091 0 3886.03376595 0 3522.20923245 0 1683
0.04050000 0.04050350 42517.54894116 0 -376.73468674 0 26195.96533610 0 3922.62362468 0 1666.44125027 0 1822
0.04150000 0.04152450 43102.38775624 0 124.72050968 0 20197.62420256 0 2762.11841439 0 3791.69204470 0 1887
0.04250000 0.04250150 42527.30919448 0 368.88544666 0 20065.86078282 0 3232.25207064 0 -2507.89708914 0 1920
0.04350000 0.04349210 40632.60001981 0 1301.51868828 0 17134.23560546 0 599.44813970 0 170.83437923 0 2005
0.04450000 0.04448520 39808.52408656 0 1071.32422298 0 14479.33579197 0 1078.54015572 0 -1647.30893554 0 2151
0.04550000 0.04548030 38210.39351829 0 299.61315788 0 14196.62118176 0 1422.65674135 0 482.59461601 0 2274
0.04650000 0.04648670 37235.47730654 0 284.14204726 0 13646.94146100 0 1799.14742176 0 -1050.34633307 0 2311
0.04750000 0.04749250 37502.10968118 0 12.89651108 0 12666.25782684 0 2163.11614081 0 -2728.14607814 0 2568
0.04850000 0.04851840 38815.86195969 0 -427.67655432 0 8587.66979068 0 2256.77020784 0 1762.76829577 0 2493
0.04950000 0.04949480 37333.74531150 0 -358.35102780 0 12167.81943599 0 -663.34008884 0 -1711.37168911 0 2644
0.05050000 0.05050630 37861.68628624 0 213.70185544 0 10067.84547940 0 -83.74641171 0 2109.14637646 0 2829
0.05150000 0.05149060 37170.48289243 0 239.02971279 0 10786.87668636 0 2952.85372831 0 -1498.65362284 0 2784
0.05250000 0.05249300 37872.22292334 0 827.08941146 0 9826.81158732 0 -648.55774155 0 2498.18120062 0 3055
0.05350000 0.05348950 35942.24374238 0 765.94475181 0 9627.01476550 0 929.83160527 0 2814.60195835 0 3009
0.05450000 0.05448610 35294.96148848 0 1109.02763789 0 11172.38450988 0 149.68790313 0 4497.01453223 0 3336
0.05550000 0.05550870 33334.59242788 0 1168.72378722 0 9776.65719472 0 -886.38405947 0 90.24174938 0 3349
0.05650000 0.05647670 32452.84227050 0 1316.70253691 0 12709.40258297 0 -1130.10423945 0 1263.30951480 0 3324
0.05750000 0.05747970 30871.01576174 0 610.55708256 0 12589.17400805 0 -168.64164960 0 2163.20487039 0 3639
0.05850000 0.05849280 30901.40564138 0 -753.90969400 0 11169.50079868 0 2997.97271750 0 813.28198038 0 3846
0.05950000 0.05951020 31758.08969366 0 -1483.90233090 0 7483.31931054 0 3115.15121326 0 593.49882166 0 3787
0.06050000 0.06049470 33631.17103428 0 -919.93714848 0 6834.38446830 0 1740.49717230 0 -1751.53291326 0 3930
0.06150000 0.06148310 33616.64156628 0 295.80333173 0 5729.03578044 0 -486.34233146 0 208.12852897 0 4083
0.06250000 0.06249100 33320.61751973 0 459.47390685 0 3329.07821999 0 138.78192917 0 -374.94124019 0 4303
0.06350000 0.06350600 33517.81900147 0 54.21232883 0 6468.94062005 0 -247.32260075 0 527.37865105 0 4470
0.06450000 0.06451750 32951.28066135 0 719.14766452 0 4956.85555771 0 -1249.37897143 0 -1194.17808422 0 4479
0.06550000 0.06550280 31895.17688794 0 782.10240752 0 6344.44193431 0 -647.47967720 0 -2885.55234523 0 4636
0.06650000 0.06648880 30806.68681944 0 1180.91301267 0 9050.37234496 0 -1652.35543015 0 -664.09539935 0 4653
0.06750000 0.06749660 29168.73885413 0 944.70822774 0 8253.78039775 0 -400.04283713 0 -2572.28148743 0 5220
0.06850000 0.06852730 29035.08993090 0 372.12629441 0 10686.57899235 0 578.65658190 0 -1822.86040083 0 5029
0.06950000 0.06949320 28036.43855769 0 231.26698405 0 7862.16132470 0 283.47102984 0 -3151.95180473 0 5040
0.07050000 0.07048030 28589.22381359 0 -58.43718757 0 7857.33665403 0 2101.01652910 0 -166.91585935 0 5475
0.07150000 0.07148790 27770.47165487 0 -5.07942438 0 7077.66987336 0 898.37697073 0 -1392.20031453 0 5509
0.07250000 0.07249820 28418.41938058 0 261.91307033 0 5518.90196306 0 1188.45502659 0 549.13292474 0 5916
0.07350000 0.07351270 27018.71032572 0 450.63089553 0 7246.75517083 0 -206.38166545 0 154.13880047 0 5721
0.07450000 0.07449140 26587.92823625 0 597.92753660 0 4827.33255974 0 596.56110113 0 2378.05244647 0 6028
0.07550000 0.07549160 26094.92453190 0 -20.55830993 0 7478.05099199 0 1085.56310162 0 2451.84217977 0 6183
0.07650000 0.07648840 26380.52285332 0 211.93946424 0 5625.72128087 0 -388.80967286 0 1313.20880987 0 6330
0.07750000 0.07749960 25904.26685636 0 774.39291652 0 7373.48318716 0 -434.15159510 0 1659.15433388 0 6583
0.07850000 0.07848650 24523.96739615 0 529.51703382 0 6982.66268030 0 -1844.66569403 0 1451.88204531 0 6549
0.07950000 0.07947320 24373.34894160 0 322.24585437 0 8609.67472542 0 143.87611593 0 2652.38211179 0 6828
0.08050000 0.08048110 24013.21777669 0 303.54276896 0 7491.17187798 0 709.48612286 0 643.79074510 0 7147
0.08150000 0.08149960 23728.95039891 0 309.40003007 0 7228.17741594 0 1524.57375011 0 801.91683087 0 7386
0.08250000 0.08250610 23431.15176085 0 -156.60215531 0 6252.65118836 0 718.76169087 0 2264.03494184 0 7227
0.08350000 0.08350160 23298.05739747 0 263.39041777 0 5861.33157764 0 568.86970971 0 1861.45776621 0 7798
0.08450000 0.08449610 22853.74404772 0 598.03733945 0 6369.48585702 0 -754.82360863 0 1340.09387127 0 7371
0.08550000 0.08548940 22101.98271857 0 584.61255466 0 6157.31125940 0 -646.26851850 0 647.33327340 0 8256
0.08650000 0.08650700 21029.79670959 0 589.62133920 0 6853.51678303 0 -21.50272535 0 926.91129312 0 8037
0.08750000 0.08749060 20611.88040858 0 317.54762335 0 7389.72069950 0 -137.52640568 0 -353.92342198 0 8155
0.08850000 0.08849210 20349.24086484 0 313.36846034 0 7101.92632108 0 69.91513455 0 -333.10524531 0 8718
0.08950000 0.08949900 20022.93785063 0 230.01256967 0 7292.88345894 0 -17.49214853 0 -1497.13412886 0 8571
0.09050000 0.09049190 19382.42122687 0 191.53831658 0 7224.69478010 0 126.26773166 0 218.96462839 0 8932
0.09150000 0.09150830 19703.95502640 0 153.48331073 0 6485.61068906 0 115.78876878 0 -485.20326553 0 9285
0.09250000 0.09250820 19382.53213884 0 11.56057640 0 5810.77790195 0 1359.50346593 0 -868.33868203 0 9204
0.09350000 0.09350330 19282.26771842 0 -14.85754561 0 6380.10013250 0 1341.60227405 0 824.18351786 0 9349
0.09450000 0.09448040 18583.96595856 0 489.10625774 0 5191.03509007 0 -340.15037361 0 -263.20075830 0 9564
0.09550000 0.09549270 18750.44482476 0 511.86872124 0 6471.76887527 0 -413.41771153 0 2552.77207200 0 10155
0.09650000 0.09649430 17506.67799898 0 372.97477097 0 6293.56661391 0 -851.76732467 0 -1059.80490583 0 9913
0.09750000 0.09749140 17391.55137466 0 641.78656581 0 7597.80264544 0 -1194.12262823 0 1036.72412498 0 10476
0.09850000 0.09850240 16943.02337007 0 338.78282902 0 7900.78087248 0 -780.37883552 0 -1465.89022706 0 10575
0.09950000 0.09950330 16564.81355414 0 125.73757244 0 9003.56749384 0 -187.85382095 0 -735.04800447 0 10882
0.10050000 0.10051200 16717.09568824 0 -84.54830525 0 8715.28510276 0 21.96689194 0 -1925.79779971 0 10875
0.10150000 0.10150300 16723.30675853 0 207.11257533 0 8836.10151112 0 789.88731866 0 -2143.61781658 0 11118
0.10250000 0.10250800 16524.10886134 0 -49.13200607 0 7939.97716249 0 602.61467643 0 -638.47695264 0 11575
0.10350000 0.10349800 16397.44739219 0 -36.10716984 0 7964.44434296 0 744.30471744 0 -2041.57880465 0 11364
0.10450000 0.10450100 16735.61798714 0 -93.72072512 0 6506.62850728 0 960.95239479 0 -313.22538390 0 12093
0.10550000 0.10551000 16386.13437130 0 -106.70807310 0 6270.47474186 0 893.17741760 0 -1009.03162444 0 12067
0.10650000 0.10649700 16581.11761365 0 184.68728422 0 5566.40555959 0 131.32975394 0 -248.48052171 0 12054
0.10750000 0.10749900 16064.48965981 0 424.18393640 0 6062.89189978 0 -471.22392090 0 -960.14717389 0 12807
0.10850000 0.10850100 15699.47836824 0 416.85598258 0 6245.69700788 0 -440.59779877 0 126.59935845 0 12736
0.10950000 0.10950300 15201.59453723 0 193.37945527 0 6264.72950184 0 247.01426547 0 -748.04910553 0 12933
0.11050000 0.11050200 15504.60603786 0 -138.45030238 0 5972.77592457 0 580.33689824 0 530.27567169 0 13428
0.11150000 0.11150900 15421.20023681 0 19.54180173 0 5988.71397459 0 885.58216593 0 -361.95899417 0 13453
0.11250000 0.11250000 15403.56523366 0 152.79343828 0 6135.86088450 0 140.59866723 0 1071.84994572 0 13668
0.11350000 0.11349100 14948.71524681 0 255.36482766 0 5768.98627185 0 -34.11119804 0 1595.53522818 0 13791
0.11450000 0.11448600 15069.60929355 0 42.79771258 0 6339.65053723 0 281.60881787 0 2099.94068299 0 14205
0.11550000 0.11549300 15064.72916689 0 -27.05154027 0 6116.56220181 0 659.23745509 0 2324.23795888 0 14776
0.11650000 0.11649800 14951.82078196 0 54.94556786 0 6148.74885535 0 557.87722442 0 2878.37634081 0 14553
0.11750000 0.11747300 14898.47212464 0 197.66620289 0 5871.05855736 0 276.69209027 0 3776.71892882 0 14568
0.11850000 0.11849100 14881.50259331 0 28.00383044 0 6256.75493123 0 53.24684013 0 3562.86956047 0 16015
0.11950000 0.11950300 14535.45724852 0 256.52940334 0 5318.02929513 0 104.32257846 0 3019.86674027 0 15270
0.12050000 0.12050700 14463.36446836 0 271.81196361 0 6615.65497328 0 -357.75875788 0 3875.98514151 0 15999
0.12150000 0.12150000 14062.41769868 0 205.81046881 0 6318.89890774 0 -315.59557268 0 2340.70838635 0 15670
0.12250000 0.12250700 14211.92703354 0 1.40387934 0 6788.79964884 0 56.22283010 0 2660.82251267 0 16887
0.12350000 0.12352200 13833.60630564 0 111.04728208 0 6382.42928385 0 -136.22651740 0 1053.21340749 0 16407
0.12450000 0.12449800 13927.54874379 0 311.99758839 0 6960.75756633 0 -471.22503002 0 1080.46669663 0 16306
0.12550000 0.12549900 13433.65774369 0 276.24733327 0 6687.37065275 0 14.24287147 0 810.14649901 0 17523
0.12650000 0.12650100 13305.11077106 0 74.60770907 0 6622.32078265 0 383.02561365 0 1514.60276405 0 17154
0.12750000 0.12750600 13089.38699041 0 -214.88528615 0 6114.31068883 0 1212.99984544 0 1627.18950427 0 18007
0.12850000 0.12850300 13507.74693930 0 -120.71326023 0 5267.14288353 0 887.32570209 0 1283.98350591 0 17496
0.12950000 0.12949900 13315.98014407 0 113.58605707 0 5171.42585387 0 460.61075454 0 2140.64537579 0 18405
0.13050000 0.13049000 13202.62811126 0 387.62069654 0 5298.63079167 0 -485.94083013 0 2013.87299468 0 18100
0.13150000 0.13148800 12756.98381788 0 200.55989618 0 5119.89615284 0 86.82654801 0 2585.22491427 0 19059
0.13250000 0.13249300 12629.87870085 0 81.92789906 0 5368.26132611 0 96.61741303 0 1615.85430099 0 18957
0.13350000 0.13349100 12530.16884028 0 146.67331580 0 4872.56246090 0 -174.36581634 0 1427.71432716 0 19468
0.13450000 0.13450700 12120.79276093 0 268.35151016 0 5372.43161616 0 -190.33713995 0 1296.84929437 0 19953
0.13550000 0.13551000 11926.47499039 0 218.23704587 0 5438.63497074 0 244.26697599 0 1340.11605366 0 19956
0.13650000 0.13649900 11802.47540851 0 89.32606016 0 4580.65324842 0 305.32068783 0 1067.72734781 0 19723
0.13750000 0.13749600 11475.17418657 0 85.20623505 0 4867.05013602 0 619.53651561 0 668.40765673 0 20946
0.13850000 0.13851100 11304.92431341 0 135.58988269 0 4044.63788231 0 -34.21745170 0 1053.65816448 0 20955
0.13950000 0.13949800 11091.14149224 0 119.18600241 0 4289.38732536 0 659.03559530 0 1098.68398761 0 20506
0.14050000 0.14048300 10894.26165521 0 175.13665453 0 3353.61194764 0 52.62839499 0 683.00145367 0 21447
0.14150000 0.14148400 10847.01315621 0 40.40789237 0 3585.65087900 0 161.28818602 0 1138.37827237 0 21771
0.14250000 0.14249400 10554.64920466 0 65.77756353 0 3073.30412717 0 39.89326083 0 392.95001668 0 22470
0.14350000 0.14350900 10719.99676876 0 -21.65888940 0 2877.68868659 0 163.61955562 0 194.18245793 0 22519
0.14450000 0.14449900 10591.29451937 0 116.30118208 0 2603.64739240 0 116.00948360 0 9.57928935 0 22218
0.14550000 0.14550500 10342.25278310 0 143.81289611 0 2744.29486090 0 -59.49173857 0 115.84089741 0 23559
0.14650000 0.14650700 10303.34486420 0 49.01177749 0 2726.56003698 0 125.26841481 0 -240.34069227 0 23044
0.14750000 0.14750500 10242.60946971 0 -45.82328019 0 2153.98808572 0 423.51180987 0 57.89471713 0 23649
0.14850000 0.14849900 10393.13919470 0 -118.39963654 0 2012.51986865 0 349.01334909 0 -95.90757643 0 23640
0.14950000 0.14949500 10260.92103588 0 68.01743076 0 1601.56883932 0 147.85674652 0 -273.60873752 0 24457
0.15050000 0.15050000 10322.88755323 0 131.88985939 0 2013.03006371 0 -299.60095756 0 -445.66980313 0 24591
0.15150000 0.15149900 10010.11579929 0 196.74896090 0 1791.60540783 0 -333.62653156 0 -430.72441524 0 25020
0.15250000 0.15250500 9833.58830866 0 201.79101904 0 2183.66812876 0 -179.85595883 0 -481.06070347 0 25297
0.15350000 0.15350100 9699.27391361 0 66.45789755 0 2194.00512431 0 -60.08911044 0 -761.16666416 0 25452
0.15450000 0.15450400 9686.75195226 0 18.28605641 0 2447.69407211 0 166.05407335 0 -494.54648984 0 26061
0.15550000 0.15549900 9630.33103338 0 111.16484877 0 2420.54282198 0 84.27135806 0 -295.88429747 0 26128
0.15650000 0.15649500 9645.76997954 0 67.97007135 0 2763.78209394 0 0.15217455 0 -157.44397716 0 26331
0.15750000 0.15749700 9596.00377883 0 80.95265011 0 2692.65424791 0 -46.97709741 0 -326.30412334 0 27345
0.15850000 0.15849900 9482.23028053 0 124.27464357 0 3001.36662376 0 -207.29668920 0 -79.67239325 0 26980
0.15950000 0.15949700 9332.92058722 0 184.53200747 0 3131.14471926 0 -153.97575987 0 154.00681522 0 27777
0.16050000 0.16050000 9105.92815048 0 244.80489904 0 3296.56992174 0 -286.21277373 0 -322.83368781 0 28224
0.16150000 0.16150500 8874.06667827 0 194.47526553 0 3669.75542546 0 20.67055284 0 -321.35855862 0 28075
0.16250000 0.16249700 8748.18159291 0 56.14496990 0 3493.29448201 0 244.06178885 0 -45.25208355 0 28590
0.16350000 0.16349900 8501.75737911 0 10.28583186 0 3059.82832288 0 286.08744320 0 -183.12009809 0 29163
0.16450000 0.16449100 8792.40219514 0 -16.05284390 0 3108.24139756 0 382.60636640 0 -8.33566670 0 28996
0.16550000 0.16550500 8416.06679149 0 100.98557004 0 2575.12083385 0 -12.27584769 0 -267.38768515 0 30777
0.16650000 0.16650700 8513.85787499 0 168.84794586 0 2896.58808619 0 -195.94928560 0 -176.88240893 0 29211
0.16750000 0.16749900 8212.14404440 0 136.74447629 0 2556.09943108 0 -120.38606992 0 -300.56367346 0 30922
0.16850000 0.16850800 7992.36088568 0 176.22691919 0 3049.79078964 0 79.62481201 0 -180.81091089 0 30867
0.16950000 0.16949900 8025.32392301 0 -10.82650553 0 2979.67224253 0 260.17618889 0 -9.52260224 0 30852
0.17050000 0.17049200 8001.74403830 0 -109.44404957 0 2522.64838109 0 297.45481095 0 -386.95966121 0 31257
0.17150000 0.17149500 8171.41716921 0 36.10816805 0 2558.27330568 0 119.92800348 0 -235.77444649 0 32608
0.17250000 0.17250900 8053.67302241 0 19.60280331 0 2453.38385614 0 -14.44384396 0 -20.08072299 0 32361
0.17350000 0.17350400 8046.43047080 0 67.09253584 0 2403.00763960 0 -188.72337079 0 -412.27310000 0 32508
0.17450000 0.17449800 8055.65834666 0 36.90407234 0 2435.13883716 0 23.53152709 0 -449.68481643 0 32791
0.17550000 0.17549800 8056.09090334 0 40.21989658 0 2340.83038951 0 -22.23951356 0 -1450.63983125 0 33633
0.17650000 0.17650100 7739.49268645 0 177.15968885 0 2289.57796842 0 -116.55295225 0 -871.96106696 0 33984
0.17750000 0.17750300 7554.72443649 0 279.20091902 0 2325.08088985 0 -182.55555617 0 -990.75111363 0 34069
0.17850000 0.17849800 7336.76023407 0 84.96544517 0 2424.63547365 0 360.19882121 0 -747.32374125 0 34536
