### header ###
fiducial parameters:
Omega_m = 0.31
Omega_nu = 0
Omega_de = 0.69
Omega_k = 0
H_0 = 100
w_de = -1
zeff = 0
beta = 0
fgrowth = 0
b_1 = 2
gamma = 0.55
Lx = 3500 Ly = 3500 Lz = 3500
nx = 700 ny = 700 nz = 700
xoffset = 1379.75464 yoffset = 22.6059522 zoffset = 368.141391
bins = 400 dk = 0.001
kx_ny = 0.628318531 ky_ny = 0.628318531 kz_ny = 0.628318531
############################
A(data) = 3.3662083 (not used)
A(ran) = 3.36813274 (used)
Ngal = 188863
weighted Ngal = 0
Nran = 9399747
weighted Nran = 0
SN(data) = 6602.44221
SN(ran) = 133.968769
SN(data+ran) = 6736.41098
############################
13 columns: k_central k_mean P_0(k) sigma^{lin}_{P_0(k)} P^img_1(k) sigma^{lin}_{P_1(k)} P_2(k) sigma^{lin}_{P_2(k)} P^img_3(k) sigma^{lin}_{P_3(k)} P_4(k) sigma^{lin}_{P_4(k)} N_modes
### header ###
0.00050000 0 0 0 0 0 0 0 0 0 0 0 0
0.00150000 0.00179520 6405.29933196 0 -10020.44170364 0 -9477.79380176 0 17223.85247680 0 32934.86568987 0 3
0.00250000 0.00253879 9555.93128426 0 -12363.80088606 0 -0.21626392 0 -23044.73445917 0 -16563.48261051 0 6
0.00350000 0.00331552 22652.43882311 0 -7292.58399662 0 -16219.98824102 0 -843.72509777 0 -15993.94964721 0 7
0.00450000 0.00420575 33884.82670848 0 -4374.77845067 0 -9706.19482051 0 -8463.60366161 0 -1579.53063099 0 24
0.00550000 0.00557378 35130.47903774 0 -4594.01814074 0 -1980.66595101 0 239.47336067 0 7854.66367556 0 45
0.00650000 0.00659388 34315.05423811 0 -9425.95354722 0 -23739.04338813 0 8654.52752588 0 -5267.69744338 0 40
0.00750000 0.00754703 54151.32724409 0 -5750.78561765 0 9637.86195611 0 -17601.61864486 0 -6359.98070123 0 57
0.00850000 0.00846663 52559.07501021 0 2124.66296099 0 -22173.74276283 0 -22641.34762616 0 5062.38829667 0 75
0.00950000 0.00948925 64445.17804371 0 -14655.13126359 0 -16172.85065399 0 17878.45492069 0 -21859.97280116 0 112
0.01050000 0.01054430 81063.78390305 0 -12278.73140547 0 -1002.22717511 0 -10646.98341925 0 -3167.69021320 0 105
0.01150000 0.01145670 86826.76983734 0 -1548.84128903 0 -31391.08198665 0 -20380.07439236 0 -41129.48564309 0 144
0.01250000 0.01249090 95237.00265924 0 2221.40038077 0 8324.65314625 0 -16563.37169854 0 -1304.51331146 0 169
0.01350000 0.01339930 81236.47383953 0 9922.12933390 0 -4655.69628697 0 -23648.76104497 0 -40609.19759425 0 180
0.01450000 0.01448870 75004.33027432 0 9999.56807099 0 33154.47138944 0 -9393.01269228 0 -13038.14566051 0 267
0.01550000 0.01550050 69961.49575788 0 4994.56562733 0 44299.34973090 0 4605.78590070 0 -15699.81110415 0 238
0.01650000 0.01653350 62864.57156662 0 3138.58691241 0 41785.86267849 0 6162.45757478 0 7523.55817307 0 315
0.01750000 0.01747870 60061.49336189 0 -168.65939551 0 38541.13301129 0 22794.51705602 0 7222.68727346 0 297
0.01850000 0.01844180 60206.67712995 0 -3262.02084324 0 26191.75068126 0 11513.21699210 0 27964.12395358 0 388
0.01950000 0.01947590 63367.33552428 0 -2464.07577000 0 20367.76316375 0 11399.08857551 0 19159.15543230 0 399
0.02050000 0.02045430 70776.92055751 0 -1390.45899661 0 12518.74490743 0 8862.74256619 0 16616.94217980 0 462
0.02150000 0.02154770 67788.17571587 0 -789.98824855 0 10111.61134256 0 -3005.39272826 0 10472.75180639 0 571
0.02250000 0.02255340 71463.79838451 0 728.33006648 0 12251.33614901 0 -5689.14074502 0 13074.96843438 0 510
0.02350000 0.02348930 67143.22261333 0 861.59856165 0 4533.24947266 0 2324.00504374 0 -4082.48104629 0 555
0.02450000 0.02439640 70860.65909447 0 -547.17311024 0 11968.51062683 0 2923.82806590 0 1423.74367865 0 592
0.02550000 0.02547300 67918.16454411 0 -75.02473808 0 4205.39369087 0 3328.27965381 0 1761.93645600 0 837
0.02650000 0.02652900 68241.02928727 0 1830.14731723 0 8765.28421860 0 5799.37615148 0 -4296.98479527 0 723
0.02750000 0.02749970 63268.51295947 0 1425.50717897 0 -2269.49181074 0 1224.35723111 0 9785.44142271 0 826
0.02850000 0.02848090 60014.13395092 0 180.28296991 0 950.77067599 0 -4245.01144637 0 -1752.32038824 0 831
0.02950000 0.02946900 62610.25042059 0 3752.44029870 0 3048.78149072 0 -3233.11718400 0 2467.63604422 0 996
0.03050000 0.03053250 54674.05535626 0 1273.85724309 0 -174.27265029 0 -1908.45116768 0 -5538.27828413 0 1041
0.03150000 0.03150510 58005.51818360 0 -942.73954028 0 5085.12525041 0 -2756.31771839 0 -4356.64434366 0 1036
0.03250000 0.03246190 57294.01789937 0 -1289.59565156 0 755.31051217 0 3990.39083803 0 -7320.65581610 0 1059
0.03350000 0.03345080 57596.91848803 0 409.82416372 0 4073.64136232 0 -1782.88772703 0 -17093.97456054 0 1302
0.03450000 0.03451200 56920.57729813 0 3289.90411237 0 6883.99539225 0 -9020.42611320 0 -11311.02447174 0 1339
0.03550000 0.03553350 52835.46763816 0 2303.12031989 0 12687.99657286 0 -4969.46624864 0 -11314.90639067 0 1365
0.03650000 0.03647120 52981.87143787 0 1805.85759591 0 16524.10886134 0 -1595.35776903 0 -13507.96876324 0 1308
0.03750000 0.03744890 49024.86510266 0 949.40534965 0 17761.66461682 0 553.56274881 0 -11776.74383159 0 1579
0.03850000 0.03847530 50519.51480340 0 491.43097262 0 16048.07468832 0 2339.94309376 0 -12144.08427452 0 1662
0.03950000 0.03950240 48522.32296893 0 870.80425512 0 16910.08251514 0 -337.33099134 0 -8566.70742844 0 1683
0.04050000 0.04050350 47632.03258990 0 823.27958531 0 15741.73582861 0 1788.67733184 0 -7341.31871601 0 1822
0.04150000 0.04152450 44669.01932518 0 546.77049979 0 15781.22048975 0 1598.52985136 0 -10863.51685727 0 1887
0.04250000 0.04250150 45870.75051452 0 845.77364184 0 14865.53126970 0 1061.34214573 0 -5275.71637877 0 1920
0.04350000 0.04349210 43833.63037104 0 456.11660154 0 11090.89748590 0 1845.02061234 0 -8882.42944077 0 2005
0.04450000 0.04448520 43582.30384819 0 1558.52390397 0 13914.23930745 0 81.45219762 0 -6328.22660437 0 2151
0.04550000 0.04548030 40270.69426339 0 1897.14923799 0 12997.55187968 0 -2152.95660441 0 -5401.22436344 0 2274
0.04650000 0.04648670 38568.30644381 0 2127.93486409 0 16825.56759439 0 -1936.80026708 0 -4906.97844503 0 2311
0.04750000 0.04749250 36961.63565389 0 356.99457441 0 16764.45509921 0 649.76002730 0 -4225.97895241 0 2568
0.04850000 0.04851840 36754.56300687 0 186.92770601 0 17839.74664334 0 3005.41491065 0 -4459.09372987 0 2493
0.04950000 0.04949480 38083.73204914 0 -307.63320239 0 19397.17251881 0 1362.46481551 0 -2669.93947656 0 2644
0.05050000 0.05050630 37470.94341775 0 -192.74725704 0 15113.64134543 0 -83.13351217 0 -1688.37963784 0 2829
0.05150000 0.05149060 38698.96074386 0 -511.67462529 0 17102.29295825 0 1105.76460775 0 -1274.84435962 0 2784
0.05250000 0.05249300 38007.64643808 0 -176.13153490 0 14985.98166856 0 1128.95075497 0 -2830.96147385 0 3055
0.05350000 0.05348950 39076.06144010 0 177.06985016 0 14099.46229649 0 1011.76449537 0 -1877.19617468 0 3009
0.05450000 0.05448610 38408.92594366 0 453.41034948 0 13899.59892748 0 1311.62276870 0 345.36989089 0 3336
0.05550000 0.05550870 37274.62923177 0 800.11340225 0 15385.59749460 0 357.02673888 0 627.03416475 0 3349
0.05650000 0.05647670 36953.76090406 0 614.22605051 0 12083.52633918 0 1697.17495702 0 1394.35200674 0 3324
0.05750000 0.05747970 34958.23274913 0 826.06902134 0 14479.11396803 0 1174.97922230 0 518.59220483 0 3639
0.05850000 0.05849280 35216.54672606 0 1158.86371314 0 12125.78379955 0 -484.74076262 0 1727.17664476 0 3846
0.05950000 0.05951020 32871.97860317 0 921.08730560 0 14554.64501924 0 432.21285388 0 3882.37367095 0 3787
0.06050000 0.06049470 31391.85837043 0 1017.56851873 0 13446.96718003 0 -881.94203509 0 2473.95802648 0 3930
0.06150000 0.06148310 30575.87901095 0 833.16627827 0 12753.76737076 0 1264.71809681 0 -397.68484866 0 4083
0.06250000 0.06249100 29956.87930927 0 389.78015259 0 13617.32796515 0 -86.25590593 0 -156.14297976 0 4303
0.06350000 0.06350600 29919.83471146 0 -117.55559645 0 13507.52511536 0 321.12120700 0 901.17527972 0 4470
0.06450000 0.06451750 28769.56667596 0 526.35049709 0 11778.29659916 0 82.63019365 0 -3078.27298340 0 4479
0.06550000 0.06550280 28888.13157134 0 774.26536776 0 12777.39162026 0 -96.99773017 0 -1043.69826962 0 4636
0.06650000 0.06648880 27879.71994481 0 41.19658738 0 11766.31810646 0 190.24397389 0 -4704.32009439 0 4653
0.06750000 0.06749660 28373.27820900 0 -128.45158834 0 11591.96449043 0 1416.96695732 0 -3006.47966556 0 5220
0.06850000 0.06852730 27319.72541089 0 121.23232824 0 10440.77588559 0 -1078.97271240 0 -4362.70013719 0 5029
0.06950000 0.06949320 27809.17993222 0 -64.60855137 0 9107.32564129 0 1968.68745831 0 -4692.38596648 0 5040
0.07050000 0.07048030 28217.00324400 0 -285.07703516 0 8827.28400955 0 1062.31706194 0 -3585.06304556 0 5475
0.07150000 0.07148790 28360.63424448 0 -145.29800738 0 7792.81916138 0 631.39078691 0 -4236.53777190 0 5509
0.07250000 0.07249820 27793.65225649 0 423.16909188 0 7358.08860580 0 1294.43141343 0 -2030.94234678 0 5916
0.07350000 0.07351270 27264.49125009 0 699.43084371 0 8072.65006039 0 -2114.92489007 0 -3232.39625620 0 5721
0.07450000 0.07449140 26459.15943968 0 979.60778806 0 9636.09845580 0 -1232.74217601 0 -3373.65374053 0 6028
0.07550000 0.07549160 26166.24092828 0 454.91653403 0 11663.83544666 0 -396.46259875 0 -2876.23573979 0 6183
0.07650000 0.07648840 25069.09972616 0 393.42471991 0 12516.52666804 0 -218.28473802 0 -1798.84795944 0 6330
0.07750000 0.07749960 25697.97059312 0 9.57444249 0 12279.39687729 0 1191.61601772 0 -956.79430506 0 6583
0.07850000 0.07848650 25282.82709135 0 -290.64259779 0 13210.05921321 0 1724.90294939 0 415.67920658 0 6549
0.07950000 0.07947320 25982.34888288 0 185.92173444 0 10408.75560000 0 1446.85773309 0 925.28754188 0 6828
0.08050000 0.08048110 25083.29645825 0 547.19085616 0 11038.33630357 0 778.12843166 0 2341.08548704 0 7147
0.08150000 0.08149960 24230.38341293 0 601.61203222 0 10464.23376713 0 716.12087688 0 5172.34642321 0 7386
0.08250000 0.08250610 23996.02642142 0 533.37344300 0 10998.56327131 0 267.82578743 0 3226.40700984 0 7227
0.08350000 0.08350160 22977.96545354 0 513.33608659 0 11048.03000970 0 18.33763047 0 3709.79464644 0 7798
0.08450000 0.08449610 21830.13748137 0 868.40079274 0 11633.44556702 0 -1180.35845282 0 3384.06837446 0 7371
0.08550000 0.08548940 20967.46418274 0 754.65724067 0 11292.72399677 0 -1305.78879911 0 -138.61556122 0 8256
0.08650000 0.08650700 20938.73798264 0 201.08561891 0 12985.24065107 0 -426.69831075 0 -230.54827448 0 8037
0.08750000 0.08749060 20695.39712160 0 111.39887303 0 12457.18876437 0 547.00674229 0 -1580.80611864 0 8155
0.08850000 0.08849210 20517.60523452 0 -196.80885337 0 11021.11167471 0 1167.48157316 0 -117.30049892 0 8718
0.08950000 0.08949900 20785.45764082 0 -162.33963149 0 9773.05255571 0 1064.24693021 0 -1717.34984427 0 8571
0.09050000 0.09049190 20230.23232159 0 472.17000000 0 10712.25511329 0 388.15307400 0 -1720.54410899 0 8932
0.09150000 0.09150830 20203.61344891 0 541.76393349 0 9877.12125668 0 -87.20453601 0 -482.38277415 0 9285
0.09250000 0.09250820 19109.91051785 0 18.88786475 0 9017.17639250 0 1433.49284077 0 395.57419388 0 9204
0.09350000 0.09350330 19784.25529230 0 -248.37404622 0 8948.00059713 0 1681.42545735 0 991.31343732 0 9349
0.09450000 0.09448040 19149.61700292 0 79.18360420 0 6163.88833919 0 1065.33275839 0 295.15671495 0 9564
0.09550000 0.09549270 18760.87054989 0 349.73538601 0 7081.39651553 0 733.31777775 0 1800.73346292 0 10155
0.09650000 0.09649430 18406.83954330 0 566.47733853 0 5682.76330677 0 -901.59452696 0 808.35416158 0 9913
0.09750000 0.09749140 17795.82550342 0 362.95054717 0 7342.93803077 0 188.76662646 0 1372.30270721 0 10476
0.09850000 0.09850240 17146.76865801 0 248.12449429 0 6346.48271455 0 413.84694085 0 308.04024932 0 10575
0.09950000 0.09950330 16821.46385152 0 227.34513681 0 6343.47700017 0 224.85405397 0 572.20594176 0 10882
0.10050000 0.10051200 16630.91708795 0 528.91921831 0 6473.23291327 0 -316.87106033 0 76.45272968 0 10875
0.10150000 0.10150300 15862.85169929 0 413.90794243 0 6663.01438425 0 86.07567398 0 39.50473620 0 11118
0.10250000 0.10250800 15503.05327029 0 300.52041779 0 7063.89460675 0 -565.87952302 0 859.62211035 0 11575
0.10350000 0.10349800 15116.74688058 0 139.44851011 0 7209.67729943 0 106.15329143 0 -250.16971101 0 11364
0.10450000 0.10450100 15446.93181373 0 -193.78317484 0 6370.92771262 0 747.18842865 0 73.11483396 0 12093
0.10550000 0.10551000 15534.33044568 0 -404.98729273 0 6191.49432839 0 749.04065854 0 115.24640925 0 12067
0.10650000 0.10649700 16264.46394078 0 -223.31570495 0 5510.89411886 0 868.62483492 0 686.68262194 0 12054
0.10750000 0.10749900 16414.08418761 0 -191.45069612 0 4799.77093533 0 1206.54476882 0 119.88696605 0 12807
0.10850000 0.10850100 16233.51950130 0 194.10260131 0 4964.91885789 0 -202.67831479 0 1587.95994067 0 12736
0.10950000 0.10950300 16155.32656281 0 256.61036907 0 4426.48561084 0 217.01479597 0 1734.09755166 0 12933
0.11050000 0.11050200 15816.93414392 0 255.84618560 0 5338.79201581 0 -109.75526855 0 2042.80992751 0 13428
0.11150000 0.11150900 15750.16513829 0 182.67090462 0 5210.87724141 0 -193.12213950 0 2663.55094712 0 13453
0.11250000 0.11250000 15370.29164282 0 276.67656259 0 5498.41652229 0 71.70813745 0 1434.22485977 0 13668
0.11350000 0.11349100 15287.99496146 0 315.80408719 0 6080.10543744 0 -674.33479237 0 2646.53705100 0 13791
0.11450000 0.11448600 14692.61950928 0 303.79786649 0 6085.09647607 0 -154.76212574 0 1079.09138820 0 14205
0.11550000 0.11549300 14588.69499388 0 267.38990339 0 7231.41604545 0 -109.44693328 0 1990.60366348 0 14776
0.11650000 0.11649800 14034.68970631 0 159.04665512 0 6123.68275025 0 512.44657260 0 481.34685636 0 14553
0.11750000 0.11747300 13939.63814847 0 125.83184762 0 5792.71034212 0 350.04039393 0 1430.97513906 0 14568
0.11850000 0.11849100 13710.93766739 0 124.30791716 0 5397.00970860 0 230.77120754 0 512.08832694 0 16015
0.11950000 0.11950300 13536.91678728 0 73.91694933 0 5332.15948004 0 579.64591667 0 729.24398111 0 15270
0.12050000 0.12050700 13504.41958022 0 -13.81597130 0 4264.48758821 0 665.44297978 0 599.74538378 0 15999
0.12150000 0.12150000 13269.28620491 0 -98.99248195 0 3674.16972184 0 545.70352665 0 153.02857165 0 15670
0.12250000 0.12250700 13262.96422265 0 139.91988598 0 3386.87444729 0 36.81012990 0 872.13630787 0 16887
0.12350000 0.12352200 13286.92120806 0 51.94883735 0 3573.91639263 0 331.41827425 0 699.44526227 0 16407
0.12450000 0.12449800 13020.62156934 0 103.92662273 0 3082.31017909 0 76.48090132 0 772.91445997 0 16306
0.12550000 0.12549900 13077.29758574 0 152.06807400 0 4008.44730666 0 -646.13431501 0 929.68520147 0 17523
0.12650000 0.12650100 12973.48398231 0 147.27667692 0 3484.36606847 0 -26.21648405 0 383.97280187 0 17154
0.12750000 0.12750600 13010.52858011 0 -3.74057272 0 4778.79748190 0 -77.86530453 0 925.89644860 0 18007
0.12850000 0.12850300 12917.47343772 0 82.16957624 0 4408.36259503 0 -406.55891533 0 -116.35331071 0 17496
0.12950000 0.12949900 13032.37823810 0 96.82947672 0 4840.86382002 0 11.12480327 0 327.14927254 0 18405
0.13050000 0.13049000 12900.94755426 0 1.03701361 0 4317.10422654 0 -9.61145382 0 -438.83097109 0 18100
0.13150000 0.13148800 12774.28608512 0 169.83838975 0 4671.50124262 0 94.50099083 0 -135.80505191 0 19059
0.13250000 0.13249300 12723.26657915 0 219.51364264 0 4797.46396636 0 -235.03022717 0 -400.22362364 0 18957
0.13350000 0.13349100 12443.76841606 0 132.25143241 0 4567.38817687 0 337.94433453 0 -133.39604394 0 19468
0.13450000 0.13450700 12100.93951839 0 153.99128755 0 4566.14596281 0 319.05824437 0 -6.32513216 0 19953
0.13550000 0.13551000 11989.58390103 0 169.12189843 0 3888.30746132 0 481.48438720 0 10.58148990 0 19956
0.13650000 0.13649900 11787.72411657 0 179.61084338 0 4315.29636143 0 138.15527655 0 414.91058664 0 19723
0.13750000 0.13749600 11485.82173564 0 7.59786919 0 3497.59786643 0 222.67019729 0 -16.93537044 0 20946
0.13850000 0.13851100 11553.14530112 0 -0.56921797 0 3922.88981340 0 591.45249582 0 953.98268663 0 20955
0.13950000 0.13949800 11561.24187489 0 -124.21918758 0 2712.47421685 0 535.07261437 0 414.76972843 0 20506
0.14050000 0.14048300 11835.97082330 0 -86.62479914 0 2987.25862125 0 387.07944613 0 1373.62255964 0 21447
0.14150000 0.14148400 11669.60286907 0 3.37220079 0 2210.56428136 0 281.35926594 0 640.21272496 0 21771
0.14250000 0.14249400 11608.82310980 0 277.61044137 0 2445.42037673 0 -174.84606517 0 944.64833528 0 22470
0.14350000 0.14350900 11110.27380697 0 390.41345994 0 2686.37663044 0 -283.89915004 0 916.65415418 0 22519
0.14450000 0.14449900 10828.08048302 0 203.42142499 0 2964.86549461 0 -367.78741816 0 794.05982695 0 22218
0.14550000 0.14550500 10487.12599763 0 228.08935612 0 3091.78206129 0 -85.77876264 0 427.09981208 0 23559
0.14650000 0.14650700 10328.75479641 0 151.99154474 0 3518.08330719 0 -297.31173451 0 273.82945233 0 23044
0.14750000 0.14750500 9999.26860867 0 230.17117379 0 3317.24391285 0 -220.00498266 0 80.85282934 0 23649
0.14850000 0.14849900 9920.25492161 0 150.87577033 0 3812.45476539 0 194.06267300 0 33.86253340 0 23640
0.14950000 0.14949500 9923.12754162 0 -121.89669094 0 3204.30225433 0 124.21031462 0 -392.29563606 0 24457
0.15050000 0.15050000 10046.23982775 0 -6.26855596 0 3522.05395570 0 327.33116817 0 -174.20166663 0 24591
0.15150000 0.15149900 9976.12128064 0 143.29604633 0 3123.83562047 0 -119.62854116 0 -81.77783516 0 25020
0.15250000 0.15250500 9822.12001101 0 137.31456382 0 3027.55293976 0 86.18192765 0 0.90007392 0 25297
0.15350000 0.15350100 9714.96795730 0 5.68687814 0 3195.69548549 0 227.62352585 0 235.96965155 0 25452
0.15450000 0.15450400 9584.99022026 0 109.75737588 0 2614.07311753 0 250.61446800 0 340.42321705 0 26061
0.15550000 0.15549900 9489.11791384 0 184.72277605 0 3082.37672627 0 182.07087086 0 157.82440521 0 26128
0.15650000 0.15649500 9213.86767918 0 152.18120421 0 2913.42452316 0 -3.54755262 0 746.28338698 0 26331
0.15750000 0.15749700 9120.57962164 0 57.27749202 0 2726.28275705 0 365.60688884 0 759.62942427 0 27345
0.15850000 0.15849900 8957.71648566 0 50.33196266 0 2682.64998826 0 110.40743093 0 1078.19189213 0 26980
0.15950000 0.15949700 9071.81162866 0 37.64707163 0 2472.13907018 0 3.08303111 0 907.80559725 0 27777
0.16050000 0.16050000 8812.74345035 0 158.74608368 0 2654.82217512 0 84.33601974 0 848.95459713 0 28224
0.16150000 0.16150500 8836.35660865 0 57.22636160 0 2616.24699213 0 -172.58124275 0 763.28064630 0 28075
0.16250000 0.16249700 8692.39287226 0 -31.52273449 0 2493.99981937 0 121.09368828 0 426.40772139 0 28590
0.16350000 0.16349900 8822.28187972 0 -1.83123425 0 2594.71897885 0 152.27880674 0 921.80157868 0 29163
0.16450000 0.16449100 8841.46965044 0 -59.07814784 0 2285.99551180 0 88.89028703 0 314.16813564 0 28996
0.16550000 0.16550500 8866.33611400 0 38.42412088 0 2270.16837376 0 100.00854650 0 513.86735493 0 30777
0.16650000 0.16650700 8875.55289866 0 8.96118803 0 2256.75911665 0 196.66688605 0 708.23947233 0 29211
0.16750000 0.16749900 8960.97729756 0 -46.86141623 0 1937.13300299 0 312.98914140 0 820.87390469 0 30922
0.16850000 0.16850800 8944.05213102 0 -1.67698898 0 1936.82244948 0 263.96716001 0 1075.83501278 0 30867
0.16950000 0.16949900 9031.08475347 0 125.55234945 0 1996.33781230 0 -68.29526524 0 1165.21896899 0 30852
0.17050000 0.17049200 8731.11224081 0 114.03857790 0 1758.97510641 0 -79.99803079 0 1321.90430827 0 31257
0.17150000 0.17149500 8684.97286150 0 53.95634400 0 2006.60826068 0 172.50471349 0 1331.69783518 0 32608
0.17250000 0.17250900 8755.10249981 0 20.08604676 0 1518.10758229 0 159.60010585 0 1204.32652943 0 32361
0.17350000 0.17350400 8713.36632569 0 70.62718940 0 2077.35900601 0 -15.53876692 0 1166.03971756 0 32508
0.17450000 0.17449800 8469.83691430 0 195.72967990 0 1719.30189493 0 -482.07111152 0 787.80328275 0 32791
0.17550000 0.17549800 8408.03676490 0 132.13608396 0 2086.80870581 0 -107.56342621 0 849.36718965 0 33633
0.17650000 0.17650100 8350.45127035 0 2.80534081 0 2088.43911176 0 236.01401634 0 781.42029891 0 33984
0.17750000 0.17750300 8200.87538830 0 61.31280220 0 1792.43724761 0 140.04965298 0 434.67288136 0 34069
0.17850000 0.17849800 8149.80042636 0 180.27964256 0 2091.22300219 0 39.92342889 0 675.04130162 0 34536
