### header ###
fiducial parameters:
Omega_m = 0.31
Omega_nu = 0
Omega_de = 0.69
Omega_k = 0
H_0 = 100
w_de = -1
zeff = 0
beta = 0
fgrowth = 0
b_1 = 2
gamma = 0.55
Lx = 3500 Ly = 3500 Lz = 3500
nx = 700 ny = 700 nz = 700
xoffset = 1379.75464 yoffset = 22.6059522 zoffset = 368.141391
bins = 400 dk = 0.001
kx_ny = 0.628318531 ky_ny = 0.628318531 kz_ny = 0.628318531
############################
A(data) = 3.30532856 (not used)
A(ran) = 3.30934258 (used)
Ngal = 186184
weighted Ngal = 0
Nran = 9399747
weighted Nran = 0
SN(data) = 6643.87764
SN(ran) = 131.630368
SN(data+ran) = 6775.50801
############################
13 columns: k_central k_mean P_0(k) sigma^{lin}_{P_0(k)} P^img_1(k) sigma^{lin}_{P_1(k)} P_2(k) sigma^{lin}_{P_2(k)} P^img_3(k) sigma^{lin}_{P_3(k)} P_4(k) sigma^{lin}_{P_4(k)} N_modes
### header ###
0.00050000 0 0 0 0 0 0 0 0 0 0 0 0
0.00150000 0.00179520 54106.85154433 0 -97000.50297401 0 -144349.71004173 0 167198.68487476 0 175301.91336513 0 3
0.00250000 0.00253879 79856.17437932 0 -84760.03619801 0 -42273.76443224 0 -188145.51943117 0 -199451.88560019 0 6
0.00350000 0.00331552 157491.66930568 0 -62857.25137663 0 -188602.47674544 0 36110.05355221 0 59321.48870151 0 7
0.00450000 0.00420575 198376.03949621 0 -32428.99619706 0 -116991.05452955 0 -121437.51538609 0 -43301.03109359 0 24
0.00550000 0.00557378 184438.84141108 0 37524.51389901 0 -100366.45942386 0 -151585.60693075 0 37521.74109978 0 45
0.00650000 0.00659388 169403.61482807 0 4026.23758657 0 21056.30467029 0 9546.39285488 0 -43483.25945945 0 40
0.00750000 0.00754703 122171.75262406 0 9589.03850715 0 -61155.19629296 0 -4898.28294662 0 383.61344709 0 57
0.00850000 0.00846663 152896.58641003 0 1784.49595059 0 -17904.85196942 0 1196.45177959 0 -58482.21782844 0 75
0.00950000 0.00948925 117349.30019097 0 9313.18934785 0 -14560.52335363 0 -32949.72789378 0 -3353.29030293 0 112
0.01050000 0.01054430 113181.22837783 0 20040.01829393 0 -12333.07827052 0 -8638.83348220 0 -11618.13971523 0 105
0.01150000 0.01145670 90957.24249283 0 1535.95331818 0 15540.65242794 0 -6.10893146 0 -9872.75132508 0 144
0.01250000 0.01249090 89610.99300726 0 1887.46662306 0 -2154.54264557 0 21401.35180735 0 -6993.59860049 0 169
0.01350000 0.01339930 87222.39283249 0 -767.99440500 0 -2948.18433440 0 7322.14203649 0 21541.65544875 0 180
0.01450000 0.01448870 88974.69103834 0 -1949.02276612 0 -10269.64980787 0 317.67849947 0 7657.39564664 0 267
0.01550000 0.01550050 93672.81115363 0 2776.51478803 0 1460.21153422 0 -1808.80785430 0 -13765.83909229 0 238
0.01650000 0.01653350 83021.04742850 0 3960.06750558 0 261.27865387 0 -22852.30219212 0 -14061.19766702 0 315
0.01750000 0.01747870 82620.76613064 0 6335.54679435 0 11583.53518075 0 -30599.83599636 0 -30454.09766846 0 297
0.01850000 0.01844180 75657.93451048 0 5026.80773686 0 27467.90380212 0 -14360.65998462 0 -26714.81152934 0 388
0.01950000 0.01947590 76262.29383219 0 1846.39592076 0 35645.55422401 0 -4964.91885789 0 -43636.20706536 0 399
0.02050000 0.02045430 77247.85759301 0 944.34443648 0 43930.45652040 0 -768.47465383 0 -45353.01344098 0 462
0.02150000 0.02154770 71106.55093081 0 6940.21666958 0 42176.93828288 0 -5662.54405473 0 -35526.54568076 0 571
0.02250000 0.02255340 68974.04649358 0 5108.27257844 0 57553.77373190 0 -173.12249316 0 -26380.19011741 0 510
0.02350000 0.02348930 63561.09873497 0 150.27130009 0 49791.15589981 0 6160.96026319 0 -17923.37426833 0 555
0.02450000 0.02439640 65025.80220395 0 319.04271669 0 50040.26418327 0 10305.97347788 0 -25308.89140418 0 592
0.02550000 0.02547300 60908.19533692 0 1064.07945314 0 47214.11628889 0 8586.95995407 0 -7496.91711800 0 837
0.02650000 0.02652900 61199.00652090 0 -111.51754884 0 42190.80227907 0 7384.20837461 0 -6337.26592988 0 723
0.02750000 0.02749970 62655.28068020 0 -151.00110085 0 36014.44743451 0 4186.31683212 0 -3439.74618314 0 826
0.02850000 0.02848090 63220.04442881 0 73.03885926 0 34143.14068541 0 1072.02851399 0 -6631.45992893 0 831
0.02950000 0.02946900 63201.30030597 0 1482.67120804 0 36435.69109461 0 3882.11857342 0 -4245.14454074 0 996
0.03050000 0.03053250 62028.62805263 0 166.62970647 0 32474.47010455 0 647.29445421 0 -2353.45217164 0 1041
0.03150000 0.03150510 59244.18305878 0 888.38269316 0 37042.49047964 0 -88.74188681 0 -12197.43293184 0 1036
0.03250000 0.03246190 60106.74544544 0 2583.32831959 0 37070.21847201 0 -1257.33135964 0 -2096.34713518 0 1059
0.03350000 0.03345080 58735.98441461 0 2620.10672867 0 39256.62612642 0 -3079.88120696 0 -12611.13457801 0 1302
0.03450000 0.03451200 52666.10506076 0 3272.83476027 0 46895.68802451 0 -539.84959290 0 847.78225761 0 1339
0.03550000 0.03553350 52253.84527019 0 1087.58391771 0 43345.50679335 0 8186.10191397 0 -2079.74361335 0 1365
0.03650000 0.03647120 51126.75783631 0 -1895.08627536 0 40002.84185709 0 11712.30397732 0 4660.65405201 0 1308
0.03750000 0.03744890 53671.96571199 0 36.36858935 0 32826.83743159 0 9055.00846529 0 1902.80574844 0 1579
0.03850000 0.03847530 49466.84930104 0 2845.25802672 0 33026.25715272 0 759.46527455 0 11523.42089329 0 1662
0.03950000 0.03950240 45110.78169963 0 3989.51463347 0 29534.08288161 0 457.27895898 0 12075.09702950 0 1683
0.04050000 0.04050350 42244.81640821 0 1138.48918434 0 26781.46962300 0 1863.32108730 0 4184.64206138 0 1822
0.04150000 0.04152450 41868.38118378 0 -1009.88010101 0 27275.13879916 0 5618.91128594 0 11024.59431055 0 1887
0.04250000 0.04250150 41525.55228611 0 -478.71380620 0 19180.22870650 0 4427.68346011 0 1607.50262969 0 1920
0.04350000 0.04349210 42628.90455852 0 80.78927678 0 14391.38260017 0 2231.28263726 0 2231.60428197 0 2005
0.04450000 0.04448520 41220.87710595 0 92.42427511 0 14607.43911672 0 1883.61797772 0 -125.09871950 0 2151
0.04550000 0.04548030 39254.74062294 0 2324.49305641 0 10847.71190162 0 -0.00108771 0 -875.33389995 0 2274
0.04650000 0.04648670 38372.54681767 0 876.34208975 0 15478.31990109 0 -1414.27179646 0 138.38819168 0 2311
0.04750000 0.04749250 35711.54684586 0 853.63286400 0 10977.03525803 0 -556.93114532 0 -2397.65059148 0 2568
0.04850000 0.04851840 35746.15138034 0 -468.64299937 0 13098.37085994 0 4047.69905266 0 -582.60172066 0 2493
0.04950000 0.04949480 35356.62854351 0 -194.46084697 0 12100.05222263 0 -340.43098089 0 1093.32028477 0 2644
0.05050000 0.05050630 37108.70492542 0 60.67184193 0 10756.86390742 0 1901.86299670 0 -722.14672418 0 2829
0.05150000 0.05149060 36996.68383625 0 109.57525843 0 13985.00114398 0 -838.41019619 0 1489.53665895 0 2784
0.05250000 0.05249300 34728.09041246 0 2170.73579312 0 14730.10775496 0 -3645.02205626 0 -776.77308739 0 3055
0.05350000 0.05348950 34635.25709400 0 1721.73086706 0 17769.09571878 0 -3026.31072570 0 2578.37055455 0 3009
0.05450000 0.05448610 32528.81696959 0 118.60704192 0 21525.90594908 0 1748.72684043 0 3077.48550842 0 3336
0.05550000 0.05550870 32262.73915481 0 461.28066284 0 20114.55113742 0 2496.72825382 0 1693.85868913 0 3349
0.05650000 0.05647670 32875.86052210 0 417.47154401 0 18849.26738957 0 1417.76552350 0 6182.28863492 0 3324
0.05750000 0.05747970 31641.74303768 0 -31.02385246 0 19731.57210680 0 2339.00034202 0 6096.91969201 0 3639
0.05850000 0.05849280 32504.97089616 0 234.07083863 0 19766.28755324 0 2066.24562667 0 8207.35264732 0 3846
0.05950000 0.05951020 31710.84119466 0 -252.04523241 0 14519.59683689 0 2594.31969576 0 5534.91765145 0 3787
0.06050000 0.06049470 32248.98607059 0 99.29116788 0 16908.41883560 0 1079.98977516 0 7583.70573412 0 3930
0.06150000 0.06148310 31358.58477959 0 586.40378297 0 12350.82418563 0 662.14667605 0 5251.14937753 0 4083
0.06250000 0.06249100 30830.31106894 0 443.23750364 0 15792.97715851 0 787.70013462 0 7316.19715493 0 4303
0.06350000 0.06350600 29589.64977832 0 389.50730915 0 10639.97378278 0 498.64690536 0 1930.51155841 0 4470
0.06450000 0.06451750 29864.93328657 0 -9.05326715 0 12288.15892287 0 1449.63053233 0 3916.30164242 0 4479
0.06550000 0.06550280 28619.94642913 0 573.91398609 0 10002.16341107 0 -46.49762497 0 2352.86433820 0 4636
0.06650000 0.06648880 28889.79525088 0 380.97706957 0 10887.11892438 0 1015.57432152 0 3855.05605287 0 4653
0.06750000 0.06749660 28121.17530237 0 -215.66832466 0 8569.89060197 0 1445.89279896 0 2118.40752591 0 5220
0.06850000 0.06852730 28434.05796828 0 105.70398704 0 8695.74241374 0 506.28984917 0 4624.13074046 0 5029
0.06950000 0.06949320 27480.32594270 0 487.37492190 0 8435.44311256 0 -190.08647890 0 515.64638292 0 5040
0.07050000 0.07048030 27565.83907117 0 856.60863214 0 10775.12001759 0 -1344.81872117 0 4382.88611564 0 5475
0.07150000 0.07148790 26336.26897749 0 348.67506758 0 9537.05406705 0 -965.06390150 0 -190.21513678 0 5509
0.07250000 0.07249820 26950.72128843 0 -110.38136662 0 11353.28193211 0 473.18928100 0 2411.04875739 0 5916
0.07350000 0.07351270 26643.82786887 0 -8.39894198 0 9925.55651375 0 1479.75422324 0 -88.02949923 0 5721
0.07450000 0.07449140 26650.59349901 0 337.75467507 0 11193.23596015 0 -159.97942478 0 2092.46521625 0 6028
0.07550000 0.07549160 26055.10713486 0 495.43267648 0 10413.74663863 0 807.02876354 0 2674.59777928 0 6183
0.07650000 0.07648840 25612.90111253 0 201.86976653 0 11411.95436397 0 1143.00330150 0 2559.44897256 0 6330
0.07750000 0.07749960 25584.50764834 0 415.31985180 0 9932.99870690 0 126.18676592 0 3212.40991930 0 6583
0.07850000 0.07848650 25402.05745854 0 273.28265633 0 11092.52789186 0 -529.97399114 0 2327.17712607 0 6549
0.07950000 0.07947320 24501.56317832 0 421.07840126 0 11278.63817665 0 -450.85826506 0 2119.87156391 0 6828
0.08050000 0.08048110 24285.39574980 0 116.91452527 0 9954.44908180 0 627.20496918 0 457.56733010 0 7147
0.08150000 0.08149960 23673.49441416 0 335.71611307 0 9875.45757714 0 850.12139105 0 718.06072722 0 7386
0.08250000 0.08250610 23687.91297020 0 225.39752262 0 9693.52867360 0 569.14033492 0 -319.31888750 0 7227
0.08350000 0.08350160 23032.86687843 0 188.88197491 0 7274.51643679 0 786.91044140 0 -1468.30810799 0 7798
0.08450000 0.08449610 22250.49384571 0 500.86070827 0 7587.57656185 0 -291.41565422 0 -779.84534894 0 7371
0.08550000 0.08548940 21939.16394737 0 548.93217408 0 7237.23892385 0 -392.88901510 0 -1858.19695431 0 8256
0.08650000 0.08650700 20984.87736195 0 238.13243496 0 6747.15220430 0 831.66896668 0 -1581.64904960 0 8037
0.08750000 0.08749060 21027.91120610 0 -256.63144235 0 4796.83176814 0 1764.03269222 0 -2081.64020803 0 8155
0.08850000 0.08849210 20793.22147868 0 -303.14903147 0 5677.94972729 0 1545.41410917 0 125.52794882 0 8718
0.08950000 0.08949900 21444.05291560 0 214.56807792 0 3393.42934469 0 1147.59505704 0 -821.18113085 0 8571
0.09050000 0.09049190 21266.03920458 0 161.03863409 0 3783.12964066 0 -346.13074700 0 1294.19849830 0 8932
0.09150000 0.09150830 20453.94176403 0 198.44258668 0 3139.75148809 0 404.20869070 0 455.50104011 0 9285
0.09250000 0.09250820 20352.45731196 0 668.92228826 0 4572.83395457 0 -468.50214117 0 2345.64396899 0 9204
0.09350000 0.09350330 19410.81469105 0 676.04505494 0 5315.68905257 0 -872.67755828 0 851.70410485 0 9349
0.09450000 0.09448040 18905.49975809 0 655.20136852 0 5393.91526465 0 -603.14372652 0 622.23611295 0 9564
0.09550000 0.09549270 18106.71175388 0 202.59069434 0 6715.26501307 0 -600.88777706 0 676.07943765 0 10155
0.09650000 0.09649430 17730.38744143 0 166.15389412 0 5825.39609952 0 60.25370381 0 -483.48413001 0 9913
0.09750000 0.09749140 18280.39989809 0 -50.18888622 0 6328.60370506 0 218.18158989 0 -332.17469388 0 10476
0.09850000 0.09850240 17859.93262178 0 -39.03469128 0 5238.41668343 0 350.66039183 0 -2524.28987823 0 10575
0.09950000 0.09950330 17884.11143113 0 170.99741983 0 5795.71605649 0 142.72374057 0 -962.73807750 0 10882
0.10050000 0.10051200 17334.65353432 0 397.86785341 0 5097.40320543 0 -130.60106230 0 -2175.51609900 0 10875
0.10150000 0.10150300 16951.89632763 0 354.87837403 0 5392.04085236 0 -58.02903152 0 -1418.56408968 0 11118
0.10250000 0.10250800 16574.68471942 0 398.22166259 0 5919.91527992 0 33.29422047 0 -359.32927137 0 11575
0.10350000 0.10349800 16292.30284512 0 157.24322649 0 5511.08266921 0 843.38237978 0 -822.11500963 0 11364
0.10450000 0.10450100 16015.24474536 0 61.92914002 0 5999.81626273 0 270.34127089 0 220.35657361 0 12093
0.10550000 0.10551000 16086.00658189 0 95.72324073 0 5402.64403665 0 -73.36682596 0 222.40400856 0 12067
0.10650000 0.10649700 15931.83894430 0 127.99684926 0 6676.57891812 0 214.14883068 0 1140.92924767 0 12054
0.10750000 0.10749900 15951.69218684 0 328.36154037 0 6065.70906380 0 -1006.73574667 0 -43.44832219 0 12807
0.10850000 0.10850100 15583.13171225 0 307.99144806 0 7394.20154306 0 -916.65748154 0 -171.67620108 0 12736
0.10950000 0.10950300 14934.07486684 0 370.34282994 0 7823.74141847 0 -191.48507883 0 -403.78167962 0 12933
0.11050000 0.11050200 15321.93402412 0 -161.91483865 0 7291.51924172 0 53.82602244 0 -1634.37659990 0 13428
0.11150000 0.11150900 15211.68752646 0 -164.46581395 0 7776.49291947 0 930.75993846 0 -1433.95867104 0 13453
0.11250000 0.11250000 15282.89301086 0 219.62899109 0 6828.71686666 0 292.69779658 0 -2067.55438791 0 13668
0.11350000 0.11349100 15043.87771663 0 153.30806982 0 6395.00670119 0 -30.82321270 0 -1289.08545650 0 13791
0.11450000 0.11448600 14871.52051605 0 79.82367717 0 6074.48220059 0 720.48859024 0 -1455.69741706 0 14205
0.11550000 0.11549300 14738.75888858 0 -8.18735522 0 5578.70569700 0 617.62328414 0 -837.65710392 0 14776
0.11650000 0.11649800 14785.56373971 0 -75.96615887 0 5328.08901076 0 904.88417598 0 -637.08389830 0 14553
0.11750000 0.11747300 14671.76805902 0 -28.44758923 0 4348.73632023 0 836.21413919 0 -493.63701169 0 14568
0.11850000 0.11849100 14635.16710909 0 93.84993757 0 4462.84255443 0 -70.98266226 0 218.88366265 0 16015
0.11950000 0.11950300 14438.40927523 0 358.63385332 0 4303.47314549 0 -78.61262938 0 227.90413313 0 15270
0.12050000 0.12050700 14148.59629897 0 198.69435685 0 4979.18213716 0 -211.85184379 0 -66.22354056 0 15999
0.12150000 0.12150000 13936.97626120 0 226.66080995 0 4668.28479551 0 -130.61548086 0 178.40633939 0 15670
0.12250000 0.12250700 13547.45342438 0 137.32121854 0 5328.82102976 0 96.69549506 0 78.20957528 0 16887
0.12350000 0.12352200 13593.81462762 0 49.95974209 0 4935.92646906 0 85.79839406 0 190.96046522 0 16407
0.12450000 0.12449800 13527.15653396 0 -9.79497985 0 4817.51685045 0 582.83352667 0 275.44876709 0 16306
0.12550000 0.12549900 13725.35622343 0 -78.97686429 0 4523.41158097 0 594.48371995 0 754.79588064 0 17523
0.12650000 0.12650100 13529.81842123 0 195.72413431 0 4222.81796128 0 178.58490766 0 936.94328076 0 17154
0.12750000 0.12750600 13451.84730668 0 222.05130850 0 4306.29030951 0 0.75548797 0 1350.92997069 0 18007
0.12850000 0.12850300 12886.08535035 0 31.16071783 0 4188.22451800 0 438.69233113 0 1297.92514047 0 17496
0.12950000 0.12949900 13046.02041035 0 100.70440819 0 4111.87271821 0 489.73512861 0 1967.48960904 0 18405
0.13050000 0.13049000 13167.24719299 0 -74.65817402 0 3461.98403302 0 57.08661252 0 1379.23470530 0 18100
0.13150000 0.13148800 12956.07080310 0 165.20337854 0 3561.18369853 0 103.82303095 0 1820.88616778 0 19059
0.13250000 0.13249300 12970.37844716 0 95.59014637 0 3217.09040441 0 31.97869360 0 1404.24535442 0 18957
0.13350000 0.13349100 12567.54617400 0 30.98481144 0 3300.38529349 0 165.29654460 0 1357.38504731 0 19468
0.13450000 0.13450700 12832.29304515 0 139.94761397 0 3072.83829690 0 -88.20340920 0 650.36338841 0 19953
0.13550000 0.13551000 12198.09840366 0 227.88416898 0 2620.46164697 0 84.98862577 0 401.61556885 0 19956
0.13650000 0.13649900 12254.88533203 0 153.73840826 0 3170.54065082 0 -179.03188290 0 306.35106003 0 19723
0.13750000 0.13749600 12078.42438858 0 226.29147310 0 2609.03771412 0 -136.00247522 0 -706.49593617 0 20946
0.13850000 0.13851100 11550.70523779 0 203.64768541 0 3185.89086739 0 3.82870337 0 -348.28798481 0 20955
0.13950000 0.13949800 11346.84903788 0 332.09816462 0 3025.62307149 0 -394.12901091 0 -580.58534105 0 20506
0.14050000 0.14048300 10850.24069452 0 285.72587018 0 3490.56604756 0 30.82820374 0 -438.79215190 0 21447
0.14150000 0.14148400 10590.09667010 0 185.00338334 0 3126.63060210 0 98.09697870 0 -303.43296611 0 21771
0.14250000 0.14249400 10369.12675330 0 36.89819401 0 3238.50750571 0 378.48376850 0 -210.97785747 0 22470
0.14350000 0.14350900 10390.07802434 0 92.74858171 0 3052.47485930 0 314.97779301 0 91.15777133 0 22519
0.14450000 0.14449900 10195.95989535 0 179.28587131 0 3054.20508603 0 -23.03785792 0 -155.75146050 0 22218
0.14550000 0.14550500 10259.86737217 0 -65.52113506 0 3046.07523866 0 249.13046585 0 450.93146696 0 23559
0.14650000 0.14650700 10139.89389478 0 -173.97096973 0 2430.93527352 0 343.69290191 0 -320.65426761 0 23044
0.14750000 0.14750500 10327.02456969 0 39.07162496 0 2592.20127715 0 62.03983016 0 315.35156635 0 23649
0.14850000 0.14849900 10334.51112763 0 181.70042488 0 2274.40521099 0 -251.37199675 0 -406.84950469 0 23640
0.14950000 0.14949500 9954.22725786 0 253.89413494 0 2749.88482416 0 -94.26308466 0 275.25688938 0 24457
0.15050000 0.15050000 9788.11440117 0 240.51926054 0 2520.94033676 0 -76.36100549 0 -151.83404974 0 24591
0.15150000 0.15149900 9358.72980252 0 197.97342905 0 3024.40303983 0 -204.76124158 0 144.42513018 0 25020
0.15250000 0.15250500 9245.81032639 0 120.02338778 0 3060.13887639 0 316.34422848 0 218.88699001 0 25297
0.15350000 0.15350100 9181.40374571 0 61.01489265 0 2977.53164152 0 149.49713455 0 121.30109366 0 25452
0.15450000 0.15450400 9264.59881402 0 10.13781984 0 2777.21353344 0 317.46665761 0 773.42465503 0 26061
0.15550000 0.15549900 9112.52741266 0 -103.90111298 0 2530.40112775 0 470.99766048 0 832.99214648 0 26128
0.15650000 0.15649500 9337.05760368 0 -45.58071571 0 2325.20289301 0 269.38188236 0 1045.08023276 0 26331
0.15750000 0.15749700 9295.24379118 0 99.91038941 0 2522.16036842 0 -133.43819048 0 985.24433435 0 27345
0.15850000 0.15849900 9179.93970771 0 191.59377256 0 2485.51505370 0 -146.24186824 0 1387.58637660 0 26980
0.15950000 0.15949700 8945.74908415 0 321.27204728 0 3043.35789541 0 -481.38234819 0 944.55516922 0 27777
0.16050000 0.16050000 8606.26972796 0 230.17782851 0 3008.70899614 0 -333.90824796 0 1027.23006039 0 28224
0.16150000 0.16150500 8575.05909975 0 -0.06281422 0 3809.34923025 0 -6.95103059 0 828.64883375 0 28075
0.16250000 0.16249700 8483.30162739 0 14.92176364 0 3345.69283302 0 -35.12082970 0 568.95178457 0 28590
0.16350000 0.16349900 8698.72594572 0 -92.16163557 0 3206.98632399 0 462.87779520 0 577.62510058 0 29163
0.16450000 0.16449100 8680.22582921 0 -61.80347675 0 3014.24350342 0 121.06152381 0 117.96153426 0 28996
0.16550000 0.16550500 8659.35219655 0 93.98003731 0 2736.50884064 0 51.95216471 0 114.55875504 0 30777
0.16650000 0.16650700 8486.60680408 0 269.78782017 0 3024.38085743 0 -282.92423383 0 -99.24580488 0 29211
0.16750000 0.16749900 8192.96736488 0 147.11696368 0 2831.28311856 0 43.80512599 0 351.59537974 0 30922
0.16850000 0.16850800 8107.33223324 0 -22.26635426 0 2741.45551448 0 576.04238678 0 88.53891791 0 30867
0.16950000 0.16949900 8031.56826689 0 -61.52309130 0 2393.43593664 0 539.29946953 0 416.27702210 0 30852
0.17050000 0.17049200 8187.76559351 0 29.19347222 0 1926.77382504 0 305.14544692 0 512.93902174 0 31257
0.17150000 0.17149500 8133.89564993 0 24.48281906 0 2004.06837657 0 18.71805853 0 503.07672942 0 32608
0.17250000 0.17250900 8033.23194643 0 49.47206216 0 1546.20158416 0 -129.11706015 0 550.11449567 0 32361
0.17350000 0.17350400 8013.48961586 0 10.10552228 0 1771.65234452 0 138.47359390 0 554.32027756 0 32508
0.17450000 0.17449800 8071.55203189 0 -67.60539279 0 1361.14496308 0 316.20337028 0 618.50170694 0 32791
0.17550000 0.17549800 8106.14547517 0 28.37915654 0 1236.03626150 0 318.95842360 0 542.88636262 0 33633
0.17650000 0.17650100 8072.76097235 0 104.56980124 0 1065.39819645 0 11.94255723 0 875.97829849 0 33984
0.17750000 0.17750300 7945.84440568 0 89.85045195 0 969.57690954 0 187.40351836 0 613.14798617 0 34069
0.17850000 0.17849800 7894.99126767 0 114.56097328 0 1382.96134747 0 -256.56933164 0 1110.17335853 0 34536
