### header ###
fiducial parameters:
Omega_m = 0.31
Omega_nu = 0
Omega_de = 0.69
Omega_k = 0
H_0 = 100
w_de = -1
zeff = 0
beta = 0
fgrowth = 0
b_1 = 2
gamma = 0.55
Lx = 3500 Ly = 3500 Lz = 3500
nx = 700 ny = 700 nz = 700
xoffset = 1379.75464 yoffset = 22.6059522 zoffset = 368.141391
bins = 400 dk = 0.001
kx_ny = 0.628318531 ky_ny = 0.628318531 kz_ny = 0.628318531
############################
A(data) = 3.35437743 (not used)
A(ran) = 3.35633951 (used)
Ngal = 188319
weighted Ngal = 0
Nran = 9399747
weighted Nran = 0
SN(data) = 6686.75276
SN(ran) = 133.499689
SN(data+ran) = 6820.25245
############################
13 columns: k_central k_mean P_0(k) sigma^{lin}_{P_0(k)} P^img_1(k) sigma^{lin}_{P_1(k)} P_2(k) sigma^{lin}_{P_2(k)} P^img_3(k) sigma^{lin}_{P_3(k)} P_4(k) sigma^{lin}_{P_4(k)} N_modes
### header ###
0.00050000 0 0 0 0 0 0 0 0 0 0 0 0
0.00150000 0.00179520 25843.93074496 0 -25406.93758520 0 -24480.82264003 0 10495.53312492 0 -54155.20916303 0 3
0.00250000 0.00253879 46168.43824061 0 -21812.28065428 0 -9742.95104720 0 -31810.88379114 0 -6966.91318063 0 6
0.00350000 0.00331552 52713.57538370 0 -8077.07544797 0 -45224.68829229 0 14324.50268257 0 80815.67382732 0 7
0.00450000 0.00420575 74740.13796302 0 -21439.50552485 0 -49348.83896551 0 -14243.75876879 0 6684.80858625 0 24
0.00550000 0.00557378 104545.40061001 0 -26340.92728021 0 -50517.74021189 0 -12861.24106919 0 -16945.13069749 0 45
0.00650000 0.00659388 129008.36642295 0 -3943.74126367 0 -120194.19220819 0 -26650.26076310 0 -42186.58762423 0 40
0.00750000 0.00754703 128884.14501713 0 5632.60891417 0 -33265.82700680 0 -67714.30834420 0 25287.26357013 0 57
0.00850000 0.00846663 104524.10551187 0 19197.19823783 0 -33333.15057228 0 -44491.33835007 0 -31472.82410815 0 75
0.00950000 0.00948925 93972.49529518 0 17403.41895540 0 30604.16156317 0 -14967.79210557 0 -4213.98936851 0 112
0.01050000 0.01054430 72354.86514733 0 8318.99663580 0 40581.58051385 0 -17025.98552325 0 -14739.75709631 0 105
0.01150000 0.01145670 65369.51839737 0 11409.18156473 0 55208.09648932 0 9741.25409406 0 -13724.13619176 0 144
0.01250000 0.01249090 61210.54136573 0 174.66306042 0 56736.35251682 0 18879.43544526 0 13612.78057440 0 169
0.01350000 0.01339930 59423.41680146 0 -5525.77850516 0 35838.54105091 0 24000.35198823 0 19089.50271546 0 180
0.01450000 0.01448870 70010.96249627 0 556.62502828 0 35988.49403365 0 18678.90660444 0 16528.65625209 0 267
0.01550000 0.01550050 68608.81337807 0 -692.75727051 0 25718.37839551 0 -3818.83220364 0 2187.26167657 0 238
0.01650000 0.01653350 63920.89716397 0 2108.69163739 0 26084.05515889 0 10712.75421715 0 24247.90750411 0 315
0.01750000 0.01747870 70889.93985441 0 -503.51039522 0 30886.54343747 0 2894.21457005 0 18135.65977792 0 297
0.01850000 0.01844180 66962.32519111 0 -5282.74819764 0 12503.54996761 0 13498.76306977 0 15605.75775403 0 388
0.01950000 0.01947590 74090.63746973 0 -2871.01178603 0 5740.74808442 0 9811.51682673 0 -902.04261132 0 399
0.02050000 0.02045430 76857.55837240 0 -1988.07487058 0 2839.26878037 0 -6113.25702512 0 2228.59856759 0 462
0.02150000 0.02154770 75416.59006489 0 4374.37916758 0 7182.80332923 0 -12230.48469874 0 -7797.12254580 0 571
0.02250000 0.02255340 69957.83566288 0 5181.58539027 0 28018.24899469 0 -14631.83975000 0 -8332.80517600 0 510
0.02350000 0.02348930 66599.19940302 0 1269.39858192 0 20084.27216975 0 -895.96796275 0 -9987.22356878 0 555
0.02450000 0.02439640 70271.71653652 0 -2223.91808248 0 23384.67964563 0 1879.84697075 0 -23405.75291983 0 592
0.02550000 0.02547300 72924.50902259 0 33.48731821 0 25713.16553294 0 417.30739430 0 -16544.84939963 0 837
0.02650000 0.02652900 69079.19104065 0 5327.33480937 0 32512.62382205 0 328.93384613 0 -12301.91200709 0 723
0.02750000 0.02749970 64586.25806889 0 7422.79464879 0 35486.17372387 0 -5278.53354280 0 5170.03945425 0 826
0.02850000 0.02848090 55039.39938374 0 3681.14608472 0 45846.12805729 0 2850.64834844 0 4384.59415997 0 831
0.02950000 0.02946900 53511.25426821 0 1007.75280943 0 39627.51575237 0 7351.43388763 0 4222.95105564 0 996
0.03050000 0.03053250 52468.79266705 0 858.83352625 0 36148.09635774 0 11650.63692229 0 10788.62909548 0 1041
0.03150000 0.03150510 49365.14302503 0 1317.15727598 0 38962.48758335 0 -2148.71976717 0 1608.65611417 0 1036
0.03250000 0.03246190 50592.49487932 0 1910.53631271 0 31863.56697664 0 -583.86944447 0 13577.39965614 0 1059
0.03350000 0.03345080 46105.99480179 0 -982.61128419 0 32663.13136464 0 4609.64563724 0 -4305.38083136 0 1302
0.03450000 0.03451200 50325.64068074 0 -1963.90715242 0 24581.08706044 0 7333.29978062 0 9393.86671445 0 1339
0.03550000 0.03553350 52062.85485874 0 -1428.67926129 0 21696.59947011 0 5348.95155222 0 -5658.07430236 0 1365
0.03650000 0.03647120 52526.68871512 0 435.57681391 0 13747.42770535 0 1509.40099268 0 2486.20270791 0 1308
0.03750000 0.03744890 51529.47919750 0 1540.13469943 0 18591.17523658 0 1120.12216219 0 -2762.99461895 0 1579
0.03850000 0.03847530 47373.27496510 0 1701.94417170 0 14276.25597584 0 -480.58045465 0 4204.34002716 0 1662
0.03950000 0.03950240 46850.21411702 0 267.53852543 0 15688.38717129 0 5836.02146620 0 7089.73709564 0 1683
0.04050000 0.04050350 47003.71628278 0 -461.54685156 0 11223.40401585 0 4068.99415080 0 4809.49791505 0 1822
0.04150000 0.04152450 47390.68814430 0 670.98746914 0 12065.44768815 0 3391.18892290 0 11915.38379345 0 1887
0.04250000 0.04250150 46584.13630223 0 496.01052784 0 8600.89049744 0 286.04307841 0 8948.43315381 0 1920
0.04350000 0.04349210 44375.54625393 0 658.44554363 0 11827.31968968 0 533.65959588 0 11604.60845496 0 2005
0.04450000 0.04448520 45418.56241494 0 336.51800661 0 10174.88662115 0 -708.24612704 0 6721.17662105 0 2151
0.04550000 0.04548030 45217.03536639 0 238.31211235 0 11078.12042702 0 -1495.80318523 0 5740.44862210 0 2274
0.04650000 0.04648670 43228.71648948 0 1359.27055079 0 12535.38170285 0 -2265.24388231 0 2256.00491525 0 2311
0.04750000 0.04749250 42862.70699019 0 82.05533691 0 12955.51624325 0 -2375.25746484 0 -2123.64257087 0 2568
0.04850000 0.04851840 43670.03521605 0 971.80069453 0 15774.01121173 0 -3208.98273944 0 -4437.38825744 0 2493
0.04950000 0.04949480 41382.91949336 0 840.98446300 0 15409.99812789 0 480.24550050 0 -5942.90733119 0 2644
0.05050000 0.05050630 41049.73993704 0 325.54992194 0 14802.20053513 0 1060.38386631 0 -6111.48243361 0 2829
0.05150000 0.05149060 39643.37616400 0 914.17638078 0 15771.23841249 0 662.40510094 0 -5515.16422969 0 2784
0.05250000 0.05249300 39367.75991984 0 969.98728382 0 16315.48344674 0 64.24320735 0 -6452.04872710 0 3055
0.05350000 0.05348950 38035.70716636 0 1246.55071621 0 18233.70595894 0 73.81723946 0 -3186.76707195 0 3009
0.05450000 0.05448610 36305.48044243 0 719.45045420 0 16443.03221165 0 347.70347873 0 -4178.35335271 0 3336
0.05550000 0.05550870 36477.94855498 0 286.69413168 0 18101.16615541 0 1258.12992582 0 -4137.07191767 0 3349
0.05650000 0.05647670 35171.73829039 0 704.50173895 0 14770.92335973 0 349.83520678 0 -5200.95062014 0 3324
0.05750000 0.05747970 34510.59204030 0 848.79821125 0 17627.46113375 0 307.40694198 0 -2763.51590521 0 3639
0.05850000 0.05849280 33098.68266879 0 610.43175204 0 14476.34116879 0 1294.56450780 0 -4124.98251300 0 3846
0.05950000 0.05951020 32495.65429072 0 184.41333166 0 14306.42403154 0 2184.11177663 0 -1658.87705395 0 3787
0.06050000 0.06049470 32301.55834413 0 232.37166726 0 12314.66688358 0 1593.56099513 0 -3513.95738192 0 3930
0.06150000 0.06148310 31313.77634392 0 884.81243686 0 12244.45960690 0 -167.87524789 0 -2583.96051782 0 4083
0.06250000 0.06249100 30645.53172779 0 727.99178497 0 11637.10566201 0 514.46406132 0 -784.95284514 0 4303
0.06350000 0.06350600 29563.91820140 0 140.19827502 0 12560.22598401 0 -80.73870092 0 -2300.05914953 0 4470
0.06450000 0.06451750 29967.97050622 0 -26.59813214 0 10679.65808546 0 2294.48027747 0 -1133.35396015 0 4479
0.06550000 0.06550280 30129.90198166 0 -282.28649001 0 9961.20362074 0 506.14788185 0 -51.63972570 0 4636
0.06650000 0.06648880 30824.21091062 0 -72.79119284 0 9357.45431487 0 237.32277758 0 -2484.83849069 0 4653
0.06750000 0.06749660 30107.16502792 0 450.62091345 0 10835.86650328 0 -203.26836647 0 -1592.59606099 0 5220
0.06850000 0.06852730 30255.34341915 0 376.51729928 0 10825.42968695 0 -1202.38556996 0 -1845.09825072 0 5029
0.06950000 0.06949320 28762.57922189 0 -130.47905914 0 10162.45338937 0 1577.78931307 0 -655.40766478 0 5040
0.07050000 0.07048030 30173.26856173 0 -408.16935713 0 9114.21327460 0 2093.97361904 0 -350.91438024 0 5475
0.07150000 0.07148790 30605.60341877 0 -826.40286637 0 6660.52995613 0 2703.19088501 0 -1404.37844878 0 5509
0.07250000 0.07249820 30482.38022068 0 452.89349970 0 6284.95984507 0 574.71587963 0 501.57276311 0 5916
0.07350000 0.07351270 29791.50956277 0 701.15552483 0 4878.39643049 0 60.63834652 0 -1341.82409799 0 5721
0.07450000 0.07449140 29312.81350249 0 297.01227220 0 4059.11189432 0 -326.23979439 0 -392.12815898 0 6028
0.07550000 0.07549160 27847.55547366 0 707.56290931 0 5026.19772103 0 -907.51168054 0 -1959.14902893 0 6183
0.07650000 0.07648840 27257.39288404 0 976.85938945 0 4216.75107655 0 -1026.47807724 0 -5480.68169837 0 6330
0.07750000 0.07749960 25298.79841496 0 1243.84446415 0 5665.87141382 0 -1397.84573378 0 -3949.56414207 0 6583
0.07850000 0.07848650 24760.76445100 0 383.71326786 0 5740.92554357 0 181.13366472 0 -4693.55054215 0 6549
0.07950000 0.07947320 24302.80892901 0 -206.93067970 0 5083.15101736 0 780.53411227 0 -6008.68922029 0 6828
0.08050000 0.08048110 24378.22906825 0 85.84120608 0 5152.28244793 0 1018.49796104 0 -5797.06918252 0 7147
0.08150000 0.08149960 24071.66838461 0 335.61407405 0 4044.50478794 0 -602.36512450 0 -4389.98448168 0 7386
0.08250000 0.08250610 23410.30031058 0 719.93070303 0 5340.26714501 0 130.62879030 0 -3588.04657754 0 7227
0.08350000 0.08350160 22822.57778430 0 560.34834310 0 5891.07816785 0 -397.16467152 0 -2049.55337526 0 7798
0.08450000 0.08449610 22153.55678438 0 373.89534032 0 6468.37496901 0 685.97278533 0 -1456.21870332 0 7371
0.08550000 0.08548940 21841.56141423 0 511.30417931 0 7432.53271972 0 97.44714548 0 -2089.24876914 0 8256
0.08650000 0.08650700 21186.95897034 0 564.30790041 0 7770.42603474 0 -279.15988159 0 1692.09518881 0 8037
0.08750000 0.08749060 20560.86090262 0 283.53979526 0 8086.34768862 0 622.56884886 0 1398.77739432 0 8155
0.08850000 0.08849210 20547.32964234 0 -81.08818454 0 7745.80357752 0 1660.20799759 0 3416.66540229 0 8718
0.08950000 0.08949900 20687.96601964 0 -267.71265722 0 6369.49694821 0 1388.56240193 0 2300.14787911 0 8571
0.09050000 0.09049190 20576.27766637 0 146.13982923 0 6120.44412074 0 474.97829107 0 3493.81576827 0 8932
0.09150000 0.09150830 19960.93805969 0 670.56600365 0 6316.31465885 0 -645.93800083 0 2180.26313129 0 9285
0.09250000 0.09250820 19551.45106836 0 348.73052357 0 6264.15275960 0 -1268.41146539 0 1735.42849529 0 9204
0.09350000 0.09350330 18901.39601522 0 235.20324984 0 7100.42900949 0 -109.89058116 0 911.85166590 0 9349
0.09450000 0.09448040 18928.01488790 0 -41.26191453 0 6016.23123422 0 -415.66700627 0 -1641.85206664 0 9564
0.09550000 0.09549270 19056.45094856 0 -64.48078079 0 6698.46184970 0 362.72206852 0 -945.55337695 0 10155
0.09650000 0.09649430 19048.13255085 0 84.42807667 0 5040.80482741 0 601.16838435 0 -3198.81211184 0 9913
0.09750000 0.09749140 19029.05569210 0 -119.15494705 0 5252.62450672 0 481.47218688 0 -1188.61030335 0 10476
0.09850000 0.09850240 18860.13676257 0 228.09157436 0 4531.10887165 0 63.54778930 0 -2876.50192852 0 10575
0.09950000 0.09950330 18602.48825747 0 497.77402816 0 5194.47336112 0 -589.71450526 0 -2330.21611403 0 10882
0.10050000 0.10051200 17744.47326155 0 750.33278298 0 5106.96381720 0 -836.91288460 0 -3609.53022603 0 10875
0.10150000 0.10150300 17063.91741681 0 473.68949398 0 6257.57567981 0 -398.10964150 0 -2677.86968238 0 11118
0.10250000 0.10250800 16680.27291437 0 145.03403689 0 5820.70452322 0 1050.46389976 0 -1164.54240597 0 11575
0.10350000 0.10349800 16661.63970350 0 -238.22671013 0 5470.94362745 0 1436.80910866 0 -2297.09779995 0 11364
0.10450000 0.10450100 16242.50337082 0 225.29992009 0 4572.33485071 0 165.12463105 0 -1426.12828600 0 12093
0.10550000 0.10551000 16239.28692371 0 367.75081721 0 5606.83297246 0 -788.67394171 0 -917.85976729 0 12067
0.10650000 0.10649700 15732.19739924 0 462.86670400 0 6118.50316127 0 -496.98211669 0 -741.93785601 0 12054
0.10750000 0.10749900 15002.28572807 0 370.63896490 0 6523.33184988 0 -542.57691823 0 -1106.19827355 0 12807
0.10850000 0.10850100 15162.99717185 0 133.45482728 0 6638.93539568 0 225.55169026 0 -474.32501957 0 12736
0.10950000 0.10950300 14915.55256794 0 -33.15180950 0 6265.96062470 0 878.70562382 0 -1194.23354020 0 12933
0.11050000 0.11050200 14954.48266923 0 29.97085422 0 6228.38364944 0 868.45846696 0 297.53688581 0 13428
0.11150000 0.11150900 14929.41656412 0 -4.19364811 0 5770.60558660 0 647.32661869 0 569.52630857 0 13453
0.11250000 0.11250000 14790.77660227 0 -34.47354744 0 5029.11470582 0 798.81573220 0 915.41859484 0 13668
0.11350000 0.11349100 14955.48087695 0 -101.41801581 0 4607.73795137 0 485.02913374 0 1436.55401113 0 13791
0.11450000 0.11448600 15063.28731129 0 -74.71839922 0 4261.29332349 0 353.80252793 0 1550.15005027 0 14205
0.11550000 0.11549300 14921.65272626 0 218.07289616 0 4595.51545233 0 -66.27456007 0 1686.95996463 0 14776
0.11650000 0.11649800 14673.76447447 0 231.20265510 0 3986.81947261 0 -189.42877092 0 666.98132880 0 14553
0.11750000 0.11747300 14520.81686855 0 214.12443004 0 4008.68022180 0 -197.35010378 0 594.38389917 0 14568
0.11850000 0.11849100 14414.11955391 0 -64.44307072 0 4262.20280164 0 62.13033433 0 623.43728958 0 16015
0.11950000 0.11950300 14453.82603898 0 6.44390779 0 4116.14282903 0 17.94844037 0 -312.20610290 0 15270
0.12050000 0.12050700 14289.45450021 0 147.80905437 0 3909.15891158 0 266.87305361 0 -470.16914807 0 15999
0.12150000 0.12150000 14249.30436726 0 191.98529181 0 3803.63726382 0 -259.41422366 0 -1013.13093083 0 15670
0.12250000 0.12250700 13987.88485519 0 141.01125976 0 4113.64730972 0 95.49032560 0 180.57023192 0 16887
0.12350000 0.12352200 13834.82633730 0 133.70659745 0 4079.93007099 0 272.23675645 0 -356.55425389 0 16407
0.12450000 0.12449800 13741.10572309 0 135.25049207 0 3577.01083657 0 365.37508283 0 -360.63914173 0 16306
0.12550000 0.12549900 13516.73080883 0 157.15006044 0 4060.03246367 0 -117.00214573 0 556.68935723 0 17523
0.12650000 0.12650100 13175.67650267 0 177.88948961 0 3795.84015236 0 157.67800141 0 503.74331035 0 17154
0.12750000 0.12750600 12939.32309570 0 228.46091122 0 4133.04581318 0 296.08282989 0 1231.24486442 0 18007
0.12850000 0.12850300 12839.50232317 0 148.26490256 0 4104.59689301 0 -134.15911829 0 772.21238720 0 17496
0.12950000 0.12949900 12787.04096161 0 158.93685227 0 4328.37288263 0 94.46128434 0 1327.96010181 0 18405
0.13050000 0.13049000 12320.76704190 0 142.29007477 0 4170.16804937 0 44.84625665 0 1004.99110139 0 18100
0.13150000 0.13148800 12460.40521148 0 89.31197434 0 4527.38222948 0 -262.41550156 0 1123.82662198 0 19059
0.13250000 0.13249300 12445.76483151 0 -36.27287232 0 4132.66871248 0 273.12072485 0 788.63623164 0 18957
0.13350000 0.13349100 12396.85265297 0 4.32137434 0 4395.81845128 0 288.64618234 0 1214.33078907 0 19468
0.13450000 0.13450700 12302.35565497 0 176.82584383 0 4152.98778529 0 7.68119736 0 1156.00218432 0 19953
0.13550000 0.13551000 12241.46498372 0 88.18244684 0 4102.30101524 0 -104.73683467 0 831.76324186 0 19956
0.13650000 0.13649900 12061.45485725 0 343.33132889 0 4914.93083324 0 -279.16986367 0 740.69120548 0 19723
0.13750000 0.13749600 11746.68668786 0 228.60731502 0 4807.66786756 0 -542.67562988 0 328.86286247 0 20946
0.13850000 0.13851100 11329.21403473 0 200.09739326 0 5238.68287216 0 -6.80733304 0 422.38716250 0 20955
0.13950000 0.13949800 11298.04777131 0 98.89188479 0 5114.94947901 0 184.03068536 0 416.36131520 0 20506
0.14050000 0.14048300 11316.57007021 0 17.89509172 0 5114.37273676 0 310.04221037 0 271.77647178 0 21447
0.14150000 0.14148400 11142.10554221 0 136.50490644 0 4907.41100171 0 200.73291885 0 346.73188988 0 21771
0.14250000 0.14249400 11136.33811980 0 -12.09073562 0 4483.02853288 0 422.38272602 0 631.52166303 0 22470
0.14350000 0.14350900 10920.69197754 0 16.08434290 0 4285.06175855 0 291.53543914 0 817.98908437 0 22519
0.14450000 0.14449900 10990.87707183 0 2.31616357 0 3940.76882289 0 725.84231100 0 1303.32655339 0 22218
0.14550000 0.14550500 11021.04512753 0 -21.24496593 0 3384.97785261 0 699.83123592 0 1763.76650349 0 23559
0.14650000 0.14650700 10914.75818717 0 108.60411322 0 3267.36680017 0 439.11934221 0 1688.59037058 0 23044
0.14750000 0.14750500 10719.87476559 0 231.90916435 0 3462.16149218 0 -30.11326519 0 2322.48554976 0 23649
0.14850000 0.14849900 10405.27296416 0 206.77651206 0 2993.01495246 0 -302.79854964 0 1792.30415324 0 23640
0.14950000 0.14949500 10145.81659395 0 187.47672026 0 3444.04956756 0 -62.72903714 0 2053.63493574 0 24457
0.15050000 0.15050000 9954.95927686 0 23.47074733 0 3167.87876355 0 4.57002788 0 1527.08036062 0 24591
0.15150000 0.15149900 10060.23691829 0 54.69135762 0 3306.89582610 0 -215.31118812 0 690.43366475 0 25020
0.15250000 0.15250500 9852.96462973 0 251.76684337 0 3528.24284359 0 -345.48302110 0 333.92377564 0 25297
0.15350000 0.15350100 9560.44540141 0 176.50308999 0 3073.65904547 0 -319.59727654 0 -112.27396847 0 25452
0.15450000 0.15450400 9265.26428583 0 172.34610938 0 3584.97431598 0 111.02399057 0 68.44355454 0 26061
0.15550000 0.15549900 9151.84570584 0 110.91862420 0 3213.74086293 0 77.92419878 0 -576.54925448 0 26128
0.15650000 0.15649500 9030.97384150 0 141.00460504 0 3536.32832617 0 192.78053064 0 -328.69649452 0 26331
0.15750000 0.15749700 8840.34943955 0 126.35535211 0 3045.06593974 0 172.49916790 0 -263.84072036 0 27345
0.15850000 0.15849900 8762.98834084 0 40.05663416 0 3058.60829121 0 298.04042615 0 297.18085839 0 26980
0.15950000 0.15949700 8702.09766959 0 -21.61064269 0 2723.41013705 0 403.56207392 0 319.60060390 0 27777
0.16050000 0.16050000 8722.46110719 0 98.57922395 0 2816.53182662 0 148.26601168 0 464.35292439 0 28224
0.16150000 0.16150500 8549.84880908 0 82.83493714 0 2803.15584310 0 -0.39747301 0 914.53129908 0 28075
0.16250000 0.16249700 8574.34926314 0 -50.83261929 0 2700.63990971 0 403.47112610 0 1031.52457185 0 28590
0.16350000 0.16349900 8687.52383680 0 -68.09107630 0 2551.26366921 0 252.53657243 0 1299.42245206 0 29163
0.16450000 0.16449100 8728.57235671 0 13.00121197 0 2421.66303287 0 -9.99076166 0 1009.77140728 0 28996
0.16550000 0.16550500 8744.87641622 0 147.65045025 0 2560.63573063 0 -363.27219188 0 853.72159358 0 30777
0.16650000 0.16650700 8458.55716700 0 192.76611208 0 2895.65642565 0 -306.17914647 0 489.13287661 0 29211
0.16750000 0.16749900 8492.70696241 0 54.47308287 0 2932.09100763 0 -148.36139598 0 705.64191400 0 30922
0.16850000 0.16850800 8255.81008679 0 87.24878988 0 3164.52922207 0 62.04903586 0 -187.89929486 0 30867
0.16950000 0.16949900 8248.20152568 0 134.52623690 0 2964.18893159 0 -105.61825209 0 215.56406741 0 30852
0.17050000 0.17049200 8125.54397863 0 75.91957585 0 3094.56595172 0 52.78955008 0 -368.71353311 0 31257
0.17150000 0.17149500 7984.08685275 0 76.62697239 0 2930.87097596 0 70.92787175 0 34.43439552 0 32608
0.17250000 0.17250900 8038.17862027 0 8.84268968 0 2906.33724831 0 5.98027357 0 -108.74397321 0 32361
0.17350000 0.17350400 7951.32345697 0 10.25191498 0 2684.21384703 0 357.45818644 0 -261.37736552 0 32508
0.17450000 0.17449800 7930.30563875 0 -0.29675163 0 2488.95332476 0 138.23513316 0 118.42736453 0 32791
0.17550000 0.17549800 8089.57522693 0 -38.89616223 0 2383.56477135 0 146.45149186 0 -106.19011421 0 33633
0.17650000 0.17650100 8034.60725485 0 -32.05189550 0 2033.58205165 0 192.93802563 0 -181.46529151 0 33984
0.17750000 0.17750300 7958.33309344 0 134.44083469 0 1884.44981749 0 18.01288023 0 -283.50097607 0 34069
0.17850000 0.17849800 7916.09781546 0 72.73041308 0 1873.03697583 0 -46.70769224 0 -410.53843680 0 34536
