### header ###
fiducial parameters:
Omega_m = 0.31
Omega_nu = 0
Omega_de = 0.69
Omega_k = 0
H_0 = 100
w_de = -1
zeff = 0
beta = 0
fgrowth = 0
b_1 = 2
gamma = 0.55
Lx = 3500 Ly = 3500 Lz = 3500
nx = 700 ny = 700 nz = 700
xoffset = 1379.75464 yoffset = 22.6059522 zoffset = 368.141391
bins = 400 dk = 0.001
kx_ny = 0.628318531 ky_ny = 0.628318531 kz_ny = 0.628318531
############################
A(data) = 3.36854123 (not used)
A(ran) = 3.37738349 (used)
Ngal = 190313
weighted Ngal = 0
Nran = 9399747
weighted Nran = 0
SN(data) = 6565.11955
SN(ran) = 134.336721
SN(data+ran) = 6699.45627
############################
13 columns: k_central k_mean P_0(k) sigma^{lin}_{P_0(k)} P^img_1(k) sigma^{lin}_{P_1(k)} P_2(k) sigma^{lin}_{P_2(k)} P^img_3(k) sigma^{lin}_{P_3(k)} P_4(k) sigma^{lin}_{P_4(k)} N_modes
### header ###
0.00050000 0 0 0 0 0 0 0 0 0 0 0 0
0.00150000 0.00179520 139430.76419519 0 -103233.20109906 0 -130097.52196326 0 216973.75853899 0 210641.79420125 0 3
0.00250000 0.00253879 202218.03011908 0 -91496.60740042 0 -22500.71124886 0 -163452.07854565 0 -97451.47104192 0 6
0.00350000 0.00331552 242392.56370493 0 -25591.71692636 0 -76140.29066576 0 -95994.64232277 0 83603.00253237 0 7
0.00450000 0.00420575 254843.54139901 0 21720.55645552 0 -27017.71211799 0 -132191.53994709 0 2958.36605320 0 24
0.00550000 0.00557378 190245.08301347 0 50825.29910326 0 58926.08753030 0 -75752.09877257 0 55690.45264460 0 45
0.00650000 0.00659388 145933.53296593 0 43529.73157466 0 90183.07694585 0 47842.65441994 0 -51068.97270021 0 40
0.00750000 0.00754703 106522.73920194 0 17842.29761864 0 114619.75662202 0 28272.45922874 0 53516.24530684 0 57
0.00850000 0.00846663 100136.42799915 0 7948.80575526 0 85793.84666556 0 75097.49632869 0 -9796.01133340 0 75
0.00950000 0.00948925 105593.96236949 0 -3213.10866470 0 62644.07857129 0 57441.41990681 0 31960.61494994 0 112
0.01050000 0.01054430 103825.24919216 0 -711.06440019 0 40157.12040664 0 16374.71043845 0 26464.70503815 0 105
0.01150000 0.01145670 93275.85721486 0 6305.44528584 0 39271.82106624 0 2674.89724159 0 26448.62280258 0 144
0.01250000 0.01249090 97446.59091527 0 2965.13168333 0 32672.66979401 0 4609.29071894 0 26048.56332866 0 169
0.01350000 0.01339930 79279.21031408 0 3323.46607434 0 13100.03453948 0 777.28217333 0 -6557.47055409 0 180
0.01450000 0.01448870 93330.42590384 0 1809.38459654 0 34940.04318614 0 3794.89740062 0 -4585.01208882 0 267
0.01550000 0.01550050 75085.62874796 0 1819.76595689 0 25158.38386159 0 -1777.35321976 0 -15629.38200353 0 238
0.01650000 0.01653350 84594.00097970 0 2350.43536607 0 24166.83085442 0 -3285.32344803 0 -5818.03154475 0 315
0.01750000 0.01747870 80964.73951430 0 -869.55538634 0 27559.40617694 0 -4211.59366997 0 -33666.99560042 0 297
0.01850000 0.01844180 80425.37460671 0 7099.20897783 0 34966.32932291 0 -2534.78215055 0 -32911.79600022 0 388
0.01950000 0.01947590 69380.31703779 0 5126.71723897 0 28946.69309123 0 -6141.32884459 0 -8527.27822329 0 399
0.02050000 0.02045430 69064.77248461 0 -3129.74722844 0 27137.16430912 0 16967.75673927 0 -20359.66658997 0 462
0.02150000 0.02154770 75837.39007711 0 -1860.02700181 0 26647.70978780 0 13262.07692690 0 -1040.45853099 0 571
0.02250000 0.02255340 69341.38693650 0 255.07423830 0 18788.93127817 0 1892.63512084 0 -12474.93467948 0 510
0.02350000 0.02348930 74710.85720307 0 3136.65704414 0 16296.51749996 0 2782.08256890 0 14389.82983259 0 555
0.02450000 0.02439640 66076.02764298 0 3303.12481913 0 15178.41393561 0 -871.06933472 0 3685.67129308 0 592
0.02550000 0.02547300 65598.32979042 0 1355.65482059 0 25641.29457672 0 4821.62059332 0 17918.49414167 0 837
0.02650000 0.02652900 69919.57103341 0 901.98937357 0 29244.49172929 0 3941.90012497 0 20078.39383537 0 723
0.02750000 0.02749970 62224.60950270 0 -721.27828346 0 22087.78598648 0 792.77990282 0 19008.53697774 0 826
0.02850000 0.02848090 68480.93187726 0 1393.81962929 0 31294.47766123 0 5259.97797030 0 13992.87589382 0 831
0.02950000 0.02946900 61687.35192253 0 369.30580302 0 23332.77284391 0 -807.87502187 0 15856.41880506 0 996
0.03050000 0.03053250 64297.88694824 0 2880.69440097 0 29083.22572566 0 3542.94977075 0 14620.19399321 0 1041
0.03150000 0.03150510 60456.56179719 0 732.85305659 0 24893.08243059 0 1985.22443296 0 13290.13765518 0 1036
0.03250000 0.03246190 59774.78592078 0 1672.48595261 0 28613.73535884 0 -2191.15468670 0 16122.49661984 0 1059
0.03350000 0.03345080 59387.48132335 0 -1129.47204122 0 23267.22386995 0 8047.91669119 0 6918.91048024 0 1302
0.03450000 0.03451200 58574.38567508 0 -1239.21943502 0 17356.17045640 0 4369.34376416 0 15956.68322547 0 1339
0.03550000 0.03553350 61459.31691328 0 -411.33145738 0 12822.42187987 0 2872.94165430 0 5181.36356633 0 1365
0.03650000 0.03647120 61226.51268933 0 1382.93916508 0 15754.71252904 0 -119.47215529 0 9284.17477663 0 1308
0.03750000 0.03744890 58930.30218514 0 1739.32150542 0 14305.20399988 0 -1880.19079786 0 4124.18394682 0 1579
0.03850000 0.03847530 57065.65015421 0 2245.92301723 0 19122.55448237 0 -1946.47179082 0 8113.04419967 0 1662
0.03950000 0.03950240 54035.31332402 0 2057.26175714 0 21694.27031875 0 -2261.46178415 0 7736.99716714 0 1683
0.04050000 0.04050350 53039.32383806 0 1599.68333584 0 20794.77424625 0 1985.50171288 0 786.94260587 0 1822
0.04150000 0.04152450 49888.31478507 0 711.58568644 0 22687.04335759 0 -1290.97095999 0 5442.45034249 0 1887
0.04250000 0.04250150 50354.03414493 0 1988.54070085 0 26818.95786868 0 1183.41962318 0 2790.73370252 0 1920
0.04350000 0.04349210 47377.48961994 0 2331.81324639 0 22839.43640366 0 1079.63042038 0 4854.43944509 0 2005
0.04450000 0.04448520 45266.50210478 0 1303.98093401 0 26876.52118084 0 831.87304471 0 1474.69663743 0 2151
0.04550000 0.04548030 43226.83098600 0 1067.35468359 0 24328.42959396 0 517.00838190 0 3916.83401987 0 2274
0.04650000 0.04648670 43066.89592601 0 52.06263303 0 23922.71360959 0 5459.80806572 0 6115.13143740 0 2311
0.04750000 0.04749250 41662.86130433 0 353.88793015 0 19152.05706625 0 3950.61780578 0 2426.64298030 0 2568
0.04850000 0.04851840 40207.69626473 0 915.18457058 0 15437.28247238 0 1020.10063900 0 3105.30223037 0 2493
0.04950000 0.04949480 39407.13366900 0 1565.97718832 0 16101.20152170 0 617.46800738 0 -300.60692913 0 2644
0.05050000 0.05050630 36379.23690214 0 1596.40034155 0 16500.04096396 0 -1951.77338296 0 1196.31868523 0 2829
0.05150000 0.05149060 35000.15747360 0 1137.31351746 0 17712.30879040 0 -1827.24142363 0 -3049.08095304 0 2784
0.05250000 0.05249300 33646.14415016 0 698.02669818 0 14396.81728667 0 1122.21839842 0 -3379.63189568 0 3055
0.05350000 0.05348950 34321.04348446 0 -815.77306322 0 15848.32223128 0 2281.99158970 0 -6025.63656923 0 3009
0.05450000 0.05448610 33562.40561320 0 126.88440221 0 13809.87114417 0 690.17302162 0 -5156.53037636 0 3336
0.05550000 0.05550870 34305.95945661 0 882.76167455 0 14150.14906654 0 542.23087288 0 -2092.29884830 0 3349
0.05650000 0.05647670 31966.49328432 0 593.84264876 0 14884.05356861 0 -967.32650568 0 -829.87773838 0 3324
0.05750000 0.05747970 32806.65145315 0 -154.68005088 0 14528.46979445 0 2138.18313007 0 679.55652790 0 3639
0.05850000 0.05849280 34361.97000120 0 -1204.49289738 0 13880.63298070 0 4294.71109990 0 3379.31025097 0 3846
0.05950000 0.05951020 33711.36038821 0 -115.90189899 0 12546.25107586 0 2927.56579927 0 5754.64535419 0 3787
0.06050000 0.06049470 34854.97370555 0 455.28254353 0 12056.35290666 0 -595.71484281 0 5445.52260405 0 3930
0.06150000 0.06148310 34097.33404201 0 -145.11056615 0 13836.71184079 0 139.31541575 0 6487.87329324 0 4083
0.06250000 0.06249100 34173.19782914 0 411.55993604 0 11352.72737226 0 -265.13728129 0 5640.04001613 0 4303
0.06350000 0.06350600 33171.66274471 0 455.92694207 0 12063.11853680 0 -428.15791227 0 5022.62635561 0 4470
0.06450000 0.06451750 33974.33266786 0 -72.26047906 0 10967.41919028 0 1344.18652294 0 2296.34359855 0 4479
0.06550000 0.06550280 33367.75510676 0 468.24704364 0 12538.81997390 0 1325.29821454 0 3453.00016350 0 4636
0.06650000 0.06648880 32510.96014251 0 711.96278714 0 9034.74484846 0 -168.85238234 0 833.33264623 0 4653
0.06750000 0.06749660 31116.57486218 0 1127.77508809 0 11324.00117217 0 -321.17222651 0 1688.87874170 0 5220
0.06850000 0.06852730 29320.68825232 0 1160.74921662 0 9856.86873105 0 -252.25596515 0 1321.48284279 0 5029
0.06950000 0.06949320 28630.37215426 0 453.64215550 0 10630.85681889 0 15.29298600 0 -455.49438539 0 5040
0.07050000 0.07048030 28079.47240185 0 325.14620238 0 11074.14977851 0 469.29848911 0 385.25050776 0 5475
0.07150000 0.07148790 27528.79447337 0 -274.44723200 0 8934.71334319 0 1952.35012520 0 -1402.55949248 0 5509
0.07250000 0.07249820 28142.47040051 0 -732.31069706 0 8363.70525070 0 2389.54292651 0 1583.87838019 0 5916
0.07350000 0.07351270 28747.27337010 0 -124.42881120 0 6354.98966260 0 155.91228286 0 -1463.52780211 0 5721
0.07450000 0.07449140 29056.82867692 0 132.13164748 0 5562.11326637 0 1274.99963638 0 1217.97979287 0 6028
0.07550000 0.07549160 28577.13440891 0 306.24569366 0 5567.08212260 0 -137.51531448 0 1506.16236317 0 6183
0.07650000 0.07648840 27459.03084456 0 462.03375511 0 6505.67466434 0 -323.76645747 0 61.47850468 0 6330
0.07750000 0.07749960 27456.36895729 0 735.50718002 0 6578.71019625 0 -1203.09540656 0 1017.94672855 0 6583
0.07850000 0.07848650 26699.83841346 0 931.55406816 0 8747.52721229 0 -465.01285061 0 142.86903525 0 6549
0.07950000 0.07947320 25583.39852865 0 413.82364934 0 8650.76761011 0 -419.89164319 0 1108.16917924 0 6828
0.08050000 0.08048110 25007.09993522 0 253.62905533 0 8607.74485715 0 36.27941613 0 -1265.29483905 0 7147
0.08150000 0.08149960 25133.53958043 0 388.48248255 0 8729.39310528 0 205.06292214 0 1123.07242058 0 7386
0.08250000 0.08250610 23932.69568684 0 170.48278829 0 8358.49238813 0 1622.50901916 0 -1023.45018047 0 7227
0.08350000 0.08350160 24220.73407159 0 178.81116808 0 7937.15999847 0 201.52593943 0 694.63944663 0 7798
0.08450000 0.08449610 24596.06017632 0 -78.95035632 0 6536.31964151 0 998.26761780 0 455.82490306 0 7371
0.08550000 0.08548940 23145.66435140 0 117.93269715 0 6206.81127138 0 574.24450375 0 -1118.08138196 0 8256
0.08650000 0.08650700 23340.20394587 0 505.40920814 0 6056.41464076 0 -362.52797257 0 346.80509178 0 8037
0.08750000 0.08749060 22854.85316742 0 696.93754264 0 6155.69194464 0 -184.00184825 0 -1542.65240113 0 8155
0.08850000 0.08849210 21854.20537875 0 607.32621689 0 6972.70278544 0 -611.73607680 0 38.40803865 0 8718
0.08950000 0.08949900 21126.40103500 0 696.07908399 0 6998.10162645 0 -191.71799397 0 -954.53059176 0 8571
0.09050000 0.09049190 20407.69147276 0 414.38375478 0 7725.21831598 0 29.45566812 0 -320.05534298 0 8932
0.09150000 0.09150830 20019.49957957 0 249.94345059 0 8187.66577274 0 417.83311703 0 1151.15533126 0 9285
0.09250000 0.09250820 19548.78918109 0 222.12229216 0 6885.65907179 0 985.42401174 0 602.50154622 0 9204
0.09350000 0.09350330 19358.13150555 0 557.59218066 0 8797.23795701 0 242.05206396 0 1796.16388978 0 9349
0.09450000 0.09448040 18579.52947978 0 559.58194139 0 7315.69805106 0 -371.19130651 0 1724.65894305 0 9564
0.09550000 0.09549270 18178.02815026 0 367.69979771 0 9311.07092923 0 -128.95623780 0 3287.97424410 0 10155
0.09650000 0.09649430 17729.94379355 0 144.27096254 0 8801.49697664 0 556.54628078 0 1656.17080190 0 9913
0.09750000 0.09749140 17570.89602931 0 -65.02968412 0 8715.42928832 0 589.10338031 0 3761.45744182 0 10476
0.09850000 0.09850240 17911.61759956 0 -32.86443659 0 7869.24859955 0 381.06579915 0 1918.43324494 0 10575
0.09950000 0.09950330 17843.07400242 0 90.53544427 0 7685.17909500 0 520.43001616 0 1178.42858455 0 10882
0.10050000 0.10051200 17328.99702387 0 315.25063646 0 7418.93491226 0 -602.32408707 0 1077.55193007 0 10875
0.10150000 0.10150300 17294.05975349 0 389.63818527 0 7485.17154043 0 77.94349747 0 1197.76054083 0 11118
0.10250000 0.10250800 16719.53575157 0 -80.41073423 0 6954.15830414 0 440.88284253 0 211.54572675 0 11575
0.10350000 0.10349800 16589.99057121 0 122.26602780 0 5815.90203494 0 991.45429552 0 -903.00089074 0 11364
0.10450000 0.10450100 16341.43684760 0 272.04709699 0 6240.45087172 0 92.65397380 0 -23.78973016 0 12093
0.10550000 0.10551000 16040.75449834 0 305.80870050 0 5412.71484347 0 1.72652226 0 297.17753103 0 12067
0.10650000 0.10649700 15564.38758941 0 101.81308424 0 5513.87765084 0 256.66804330 0 8.05895243 0 12054
0.10750000 0.10749900 15484.75279532 0 75.77683214 0 5512.91271670 0 407.85658538 0 -1.53680734 0 12807
0.10850000 0.10850100 15623.83640505 0 58.50040739 0 5415.97565538 0 173.09809253 0 56.10215788 0 12736
0.10950000 0.10950300 15406.44894487 0 97.75636805 0 5573.98084710 0 -89.31474714 0 478.68940557 0 12933
0.11050000 0.11050200 15375.06085750 0 269.32753549 0 6440.22551115 0 -642.86130279 0 119.12167346 0 13428
0.11150000 0.11150900 15080.81140247 0 200.71850029 0 6082.02421451 0 -1.69717496 0 536.25493597 0 13453
0.11250000 0.11250000 15361.19686132 0 -184.01515769 0 6948.45742891 0 304.08734673 0 284.94394080 0 13668
0.11350000 0.11349100 15721.21711426 0 -308.66468371 0 5886.04276444 0 314.23246458 0 565.95827051 0 13791
0.11450000 0.11448600 15590.23007830 0 163.33118450 0 7073.23339458 0 278.55208400 0 -209.29975937 0 14205
0.11550000 0.11549300 15594.11199723 0 365.11776706 0 5771.23778483 0 -399.45722193 0 955.39237776 0 14776
0.11650000 0.11649800 15046.87233981 0 140.15391024 0 6514.32579796 0 267.11040522 0 324.01490029 0 14553
0.11750000 0.11747300 15006.50038291 0 79.17916772 0 5691.96900024 0 727.96294786 0 257.24367642 0 14568
0.11850000 0.11849100 14901.13401191 0 133.51028326 0 5658.37376468 0 342.75347753 0 912.75005285 0 16015
0.11950000 0.11950300 14522.14781219 0 280.61393751 0 5082.01971527 0 319.85791967 0 21.66121855 0 15270
0.12050000 0.12050700 14030.25322753 0 310.98939859 0 5232.68253461 0 -18.24934455 0 365.37841018 0 15999
0.12150000 0.12150000 13733.45279720 0 152.19673188 0 5254.96474928 0 -127.49663628 0 -62.72282607 0 15670
0.12250000 0.12250700 13419.12827569 0 217.20001896 0 4626.29352386 0 231.79159766 0 -139.22557705 0 16887
0.12350000 0.12352200 13283.15020110 0 -12.70008598 0 4334.42867617 0 507.14165310 0 -688.74336633 0 16407
0.12450000 0.12449800 13253.53670525 0 -82.80232902 0 3902.39328144 0 375.33941416 0 -339.58472256 0 16306
0.12550000 0.12549900 13468.04045423 0 -27.24962905 0 3208.23962924 0 569.06047830 0 -980.86220243 0 17523
0.12650000 0.12650100 13219.37581865 0 -70.53590885 0 2699.63061079 0 569.92226430 0 -108.99873801 0 17154
0.12750000 0.12750600 13173.68008722 0 199.61270796 0 2561.31229365 0 180.21975009 0 -498.35409776 0 18007
0.12850000 0.12850300 12949.30517296 0 262.31789902 0 2149.52942455 0 -78.50460112 0 -736.22367135 0 17496
0.12950000 0.12949900 12704.85519222 0 141.78986179 0 2748.30987419 0 -107.11401091 0 -626.79348578 0 18405
0.13050000 0.13049000 12488.90958764 0 106.90427638 0 3038.33358319 0 -307.66758510 0 -586.11097537 0 18100
0.13150000 0.13148800 12523.29229818 0 191.43849581 0 2751.90342201 0 -156.29271092 0 -195.77515381 0 19059
0.13250000 0.13249300 12103.04684581 0 96.21524623 0 3074.54634123 0 -48.13379834 0 -1199.06930207 0 18957
0.13350000 0.13349100 12160.61015797 0 198.42262252 0 3461.36292600 0 -165.74351984 0 -296.07839341 0 19468
0.13450000 0.13450700 12173.25412249 0 135.91263652 0 3531.99166816 0 -98.64765663 0 -825.11185105 0 19953
0.13550000 0.13551000 11984.37103846 0 -101.73866231 0 3507.57994368 0 103.39779446 0 12.06777684 0 19956
0.13650000 0.13649900 12000.78600995 0 83.49641613 0 3519.85789870 0 331.53805918 0 -474.92394420 0 19723
0.13750000 0.13749600 12005.77704857 0 103.24839604 0 3510.21964855 0 -164.05211230 0 -804.60644613 0 20946
0.13850000 0.13851100 11784.06402158 0 306.48193615 0 3961.63136434 0 -185.20413400 0 -94.39240801 0 20955
0.13950000 0.13949800 11417.94361032 0 150.70607501 0 3925.11914399 0 254.04164786 0 351.88707822 0 20506
0.14050000 0.14048300 11472.17956339 0 -139.59713215 0 3764.96226006 0 623.28755842 0 747.40027051 0 21447
0.14150000 0.14148400 11581.64967727 0 -2.32237464 0 3286.89839800 0 688.63799996 0 388.47804607 0 21771
0.14250000 0.14249400 11478.50154565 0 95.90646731 0 2889.88900324 0 140.82049117 0 768.70756897 0 22470
0.14350000 0.14350900 11448.66622586 0 124.29460772 0 2833.67881710 0 -168.71596062 0 1099.69106830 0 22519
0.14450000 0.14449900 11107.16827183 0 110.84464592 0 3176.46334999 0 -70.69007649 0 800.41397368 0 22218
0.14550000 0.14550500 11063.13621994 0 166.97575182 0 3024.73577573 0 -6.43729744 0 924.70969052 0 23559
0.14650000 0.14650700 10925.25045948 0 199.17238744 0 3145.75182564 0 -104.25702949 0 327.36111441 0 23044
0.14750000 0.14750500 10628.31693479 0 78.27068778 0 3087.68940961 0 174.67415162 0 309.35122880 0 23649
0.14850000 0.14849900 10477.36574432 0 112.25733167 0 3112.30077564 0 29.64188932 0 581.52809279 0 23640
0.14950000 0.14949500 10371.93282613 0 124.03618283 0 3261.26664185 0 71.08614313 0 412.79216802 0 24457
0.15050000 0.15050000 10319.50473816 0 47.21799821 0 2733.88022696 0 233.47967784 0 -108.72844554 0 24591
0.15150000 0.15149900 10135.90106388 0 118.55824066 0 2705.59767475 0 -205.31580143 0 119.60968613 0 25020
0.15250000 0.15250500 9996.75090696 0 188.78548150 0 2683.95874950 0 -73.14821847 0 43.51919494 0 25297
0.15350000 0.15350100 9805.80486030 0 73.04440486 0 2759.29015917 0 273.24827361 0 -328.76304170 0 25452
0.15450000 0.15450400 9806.20414339 0 -39.82749003 0 2329.38427426 0 327.37109648 0 -93.66704373 0 26061
0.15550000 0.15549900 9748.23045694 0 121.93883749 0 2084.72356078 0 123.81435889 0 -156.95263713 0 26128
0.15650000 0.15649500 9549.14347172 0 74.15762830 0 2148.68649358 0 -109.85996945 0 -15.69626192 0 26331
0.15750000 0.15749700 9417.22477522 0 217.08688875 0 2280.87137881 0 48.95210685 0 -91.78398031 0 27345
0.15850000 0.15849900 9396.38441616 0 138.86954963 0 2277.99875880 0 -78.11208366 0 58.95315005 0 26980
0.15950000 0.15949700 9057.35979904 0 119.17047473 0 2435.05010759 0 -61.81246062 0 61.17127853 0 27777
0.16050000 0.16050000 8884.76968333 0 211.48250693 0 2562.15522462 0 -228.54298608 0 140.43562664 0 28224
0.16150000 0.16150500 8867.04595060 0 221.78622889 0 3115.21776044 0 -174.73848056 0 194.41204571 0 28075
0.16250000 0.16249700 8605.04969629 0 82.87464363 0 2925.09246235 0 -128.36951348 0 81.01398443 0 28590
0.16350000 0.16349900 8550.72501364 0 35.88723141 0 3468.16182972 0 -84.07371293 0 316.52057851 0 29163
0.16450000 0.16449100 8644.01307117 0 -11.41594719 0 3329.46641189 0 380.13192037 0 437.17838275 0 28996
0.16550000 0.16550500 8574.72636384 0 -55.22473328 0 3106.34480288 0 338.84161237 0 301.39218587 0 30777
0.16650000 0.16650700 8840.56017229 0 27.94327250 0 3132.46457169 0 210.22032872 0 726.49225514 0 29211
0.16750000 0.16749900 8615.95234289 0 96.30719225 0 2801.35906920 0 -2.85689269 0 403.16057259 0 30922
0.16850000 0.16850800 8544.15902505 0 67.67393639 0 3081.74452805 0 96.18807280 0 1391.49047793 0 30867
0.16950000 0.16949900 8422.65496248 0 -113.94873921 0 2495.43058377 0 498.30529649 0 991.16592440 0 30852
0.17050000 0.17049200 8776.85233702 0 -25.71449648 0 2484.22847486 0 279.35952313 0 795.75788920 0 31257
0.17150000 0.17149500 8665.82945557 0 35.71176867 0 2253.15447764 0 -40.65223144 0 656.16075706 0 32608
0.17250000 0.17250900 8555.42768115 0 193.24303355 0 2495.81877567 0 -265.03967875 0 1224.30177513 0 32361
0.17350000 0.17350400 8330.91967252 0 240.58026212 0 2222.35422371 0 -201.46826521 0 672.04224197 0 32508
0.17450000 0.17449800 8063.15599580 0 157.53159761 0 2786.81851000 0 -59.00771874 0 1006.18895066 0 32791
0.17550000 0.17549800 8062.26870004 0 9.01956100 0 2457.36559585 0 353.67497917 0 766.40947296 0 33633
0.17650000 0.17650100 7933.32244432 0 -89.99009012 0 2546.26153939 0 461.40155688 0 1329.51286938 0 33984
0.17750000 0.17750300 8167.60179746 0 11.87246086 0 2155.92904519 0 123.84319600 0 1117.42700134 0 34069
0.17850000 0.17849800 8034.26342775 0 76.89704303 0 2256.94766699 0 -40.84233455 0 1496.29119789 0 34536
