### header ###
fiducial parameters:
Omega_m = 0.31
Omega_nu = 0
Omega_de = 0.69
Omega_k = 0
H_0 = 100
w_de = -1
zeff = 0
beta = 0
fgrowth = 0
b_1 = 2
gamma = 0.55
Lx = 3500 Ly = 3500 Lz = 3500
nx = 700 ny = 700 nz = 700
xoffset = 1379.75464 yoffset = 22.6059522 zoffset = 368.141391
bins = 400 dk = 0.001
kx_ny = 0.628318531 ky_ny = 0.628318531 kz_ny = 0.628318531
############################
A(data) = 3.32997277 (not used)
A(ran) = 3.32933045 (used)
Ngal = 186299
weighted Ngal = 0
Nran = 9399747
weighted Nran = 0
SN(data) = 6622.46977
SN(ran) = 132.425393
SN(data+ran) = 6754.89516
############################
13 columns: k_central k_mean P_0(k) sigma^{lin}_{P_0(k)} P^img_1(k) sigma^{lin}_{P_1(k)} P_2(k) sigma^{lin}_{P_2(k)} P^img_3(k) sigma^{lin}_{P_3(k)} P_4(k) sigma^{lin}_{P_4(k)} N_modes
### header ###
0.00050000 0 0 0 0 0 0 0 0 0 0 0 0
0.00150000 0.00179520 20267.27691940 0 -18221.61655427 0 -31778.27567211 0 9709.38908523 0 15564.94214926 0 3
0.00250000 0.00253879 36260.56109479 0 -12068.55322330 0 9801.47929349 0 -44133.75816046 0 5239.63671510 0 6
0.00350000 0.00331552 47250.49541488 0 -7457.26608891 0 -20079.72477900 0 11756.33602921 0 23936.57760578 0 7
0.00450000 0.00420575 63556.77316816 0 -12368.90283666 0 18231.26589561 0 -8485.24258686 0 24796.03445729 0 24
0.00550000 0.00557378 89869.86154403 0 -5306.13953200 0 16979.95705591 0 5976.68002590 0 20718.79954716 0 45
0.00650000 0.00659388 91695.58347367 0 -8009.26386983 0 36379.23690214 0 40979.97630823 0 11092.97153973 0 40
0.00750000 0.00754703 96120.08376026 0 82.48478806 0 28578.79808845 0 21807.40052763 0 42817.67673058 0 57
0.00850000 0.00846663 98271.22140837 0 7550.24359293 0 18365.13664278 0 12733.13774444 0 37713.50789501 0 75
0.00950000 0.00948925 86708.53767788 0 12101.93772611 0 49391.31824982 0 10598.02687592 0 65470.00464172 0 112
0.01050000 0.01054430 72579.57279750 0 14104.23151118 0 35683.48611758 0 942.36465783 0 31117.12942202 0 105
0.01150000 0.01145670 57416.90836156 0 8519.13728473 0 57998.64164149 0 25680.00285407 0 69998.87309159 0 144
0.01250000 0.01249090 57848.13409891 0 -2915.07711151 0 31186.67122689 0 33840.79465660 0 41675.83800476 0 169
0.01350000 0.01339930 63112.01617053 0 -6768.81331194 0 37696.31653974 0 28774.89045050 0 71458.14187407 0 180
0.01450000 0.01448870 64983.54474358 0 -2808.66816799 0 3689.96358630 0 22502.37492840 0 41025.78295163 0 267
0.01550000 0.01550050 68455.20030034 0 822.38119836 0 -2810.94186336 0 -4805.22780423 0 38214.71908510 0 238
0.01650000 0.01653350 71585.46881504 0 -2694.58411618 0 -4290.35225950 0 11127.68698618 0 47235.41138703 0 315
0.01750000 0.01747870 70279.36946241 0 -2131.01821684 0 -4271.38631271 0 11567.00929730 0 36426.81813705 0 297
0.01850000 0.01844180 75159.71794357 0 -2376.74368523 0 -6765.74105039 0 1672.02012234 0 28417.19934892 0 388
0.01950000 0.01947590 74977.48957771 0 2580.77734429 0 -5987.99304679 0 -15158.89342898 0 21221.23076891 0 399
0.02050000 0.02045430 71234.98699147 0 5587.82266089 0 8954.22275862 0 -8915.76957880 0 13561.76106844 0 462
0.02150000 0.02154770 70862.32277401 0 1601.55774813 0 25544.69025130 0 -16566.36632171 0 10779.51213158 0 571
0.02250000 0.02255340 66398.55965023 0 -568.90298330 0 29451.78620025 0 -5356.94830522 0 -9598.34402139 0 510
0.02350000 0.02348930 76904.47413549 0 430.71886965 0 43274.63404485 0 1089.60140643 0 -19014.96987197 0 555
0.02450000 0.02439640 69735.90081195 0 2516.57040516 0 36184.47548373 0 -12895.95651564 0 -23594.74691583 0 592
0.02550000 0.02547300 67236.05593179 0 6657.08059388 0 54324.34991649 0 -3381.87231747 0 -1539.43595402 0 837
0.02650000 0.02652900 63785.47364923 0 2118.00824282 0 56254.10727351 0 6107.98870657 0 -6820.13228022 0 723
0.02750000 0.02749970 61409.07379110 0 1969.28638294 0 55341.85632452 0 13192.42421006 0 -5461.10573576 0 826
0.02850000 0.02848090 58123.97216701 0 2866.26475374 0 53848.64847938 0 8397.97704927 0 -1294.08758633 0 831
0.02950000 0.02946900 52134.17125512 0 1332.03057109 0 44414.47635522 0 8391.06723357 0 14198.28486130 0 996
0.03050000 0.03053250 52948.37602309 0 1102.19102409 0 41001.93687819 0 9343.06903243 0 8597.58532075 0 1041
0.03150000 0.03150510 50753.20632310 0 714.31966649 0 30242.14489478 0 5718.58787291 0 2760.31054929 0 1036
0.03250000 0.03246190 48187.36882110 0 232.81642426 0 29049.61939891 0 6383.92659544 0 15044.98683632 0 1059
0.03350000 0.03345080 47117.62287544 0 484.11300087 0 17934.46546528 0 3973.53221867 0 1642.17371135 0 1302
0.03450000 0.03451200 44977.90916019 0 1500.09547844 0 19363.12254418 0 4146.65471184 0 9087.33930439 0 1339
0.03550000 0.03553350 43587.62762273 0 826.31080944 0 13598.36201837 0 1240.77220260 0 4440.14996548 0 1365
0.03650000 0.03647120 41558.82587696 0 789.26177515 0 14737.53885692 0 2363.23460735 0 5465.30929940 0 1308
0.03750000 0.03744890 43753.77375301 0 -752.83384790 0 11581.64967727 0 2658.53772610 0 3372.61116802 0 1579
0.03850000 0.03847530 43834.85040270 0 -2569.64178256 0 8275.78533249 0 1679.79505140 0 518.41918216 0 1662
0.03950000 0.03950240 44809.87752642 0 877.06856315 0 7826.78040644 0 -486.65177586 0 -5018.82207506 0 1683
0.04050000 0.04050350 45621.30949515 0 1235.85880235 0 7997.68466021 0 -4395.81845128 0 -6189.07644746 0 1822
0.04150000 0.04152450 42091.64697835 0 1613.78024716 0 11562.35099458 0 -4287.72364582 0 -1785.67161747 0 1887
0.04250000 0.04250150 42368.70507812 0 733.76364386 0 11450.32990541 0 4789.15665985 0 -3213.70758934 0 1920
0.04350000 0.04349210 41441.14827734 0 -1378.94633418 0 9148.68471471 0 4849.19330893 0 -4124.28376759 0 2005
0.04450000 0.04448520 42976.61358285 0 512.80260002 0 10588.35535218 0 956.54586224 0 -3374.13066200 0 2151
0.04550000 0.04548030 42534.74029643 0 -135.80394279 0 7440.88439102 0 812.57436202 0 3178.48194783 0 2274
0.04650000 0.04648670 41017.35364195 0 424.67305819 0 6934.78198307 0 -875.02334643 0 493.01257731 0 2311
0.04750000 0.04749250 42690.68252553 0 419.79847713 0 8599.14917952 0 -729.59113557 0 310.40821987 0 2568
0.04850000 0.04851840 40410.88699282 0 768.00660532 0 8855.44455860 0 -651.80191665 0 2631.81903265 0 2493
0.04950000 0.04949480 40925.07488334 0 963.45013234 0 10881.19622520 0 533.06067125 0 -1567.88487419 0 2644
0.05050000 0.05050630 38469.04023112 0 1608.88902931 0 11894.42143121 0 -1383.98173759 0 -900.47098871 0 2829
0.05150000 0.05149060 36921.15278503 0 1915.25007141 0 12127.11474319 0 -2022.12484521 0 -3819.43112827 0 2784
0.05250000 0.05249300 34339.12213548 0 980.96756880 0 15886.69777273 0 -1144.50061309 0 -230.72573364 0 3055
0.05350000 0.05348950 33684.74151554 0 -349.85184358 0 12726.48302627 0 4195.30070165 0 52.46446710 0 3009
0.05450000 0.05448610 35179.61304022 0 -1076.11340182 0 11016.26482164 0 4696.73371568 0 -907.44291511 0 3336
0.05550000 0.05550870 35435.48695382 0 -109.11031545 0 7436.74737456 0 666.14727079 0 1808.71912473 0 3349
0.05650000 0.05647670 35454.67472454 0 1001.99093262 0 8614.03356582 0 -61.53251881 0 -679.49108984 0 3324
0.05750000 0.05747970 33658.34446680 0 694.45976924 0 6802.35309151 0 -2842.92887536 0 -291.72509861 0 3639
0.05850000 0.05849280 33271.26169331 0 594.14765668 0 9393.36761059 0 2.06144314 0 -480.78453267 0 3846
0.05950000 0.05951020 32658.47306192 0 410.74806042 0 11240.37354718 0 18.91437272 0 639.60603649 0 3787
0.06050000 0.06049470 33515.48985011 0 -290.30653452 0 10638.63174795 0 1214.12005633 0 -390.10179730 0 3930
0.06150000 0.06148310 33066.85093355 0 28.88036773 0 10132.42951923 0 1166.30590629 0 2063.06245314 0 4083
0.06250000 0.06249100 33408.57071153 0 42.55947367 0 10823.21144756 0 1379.99999789 0 2626.68380846 0 4303
0.06350000 0.06350600 33086.48235215 0 497.42465545 0 10527.56450171 0 258.58238389 0 5074.47770134 0 4470
0.06450000 0.06451750 32794.22931257 0 499.26468503 0 11798.92622549 0 1.49096742 0 4939.23164576 0 4479
0.06550000 0.06550280 31752.10044731 0 819.41541230 0 13236.56717392 0 -461.88069659 0 4095.66847946 0 4636
0.06650000 0.06648880 30880.55419112 0 1260.24834444 0 13526.26923820 0 -1418.00952983 0 5734.33737258 0 4653
0.06750000 0.06749660 30201.77293789 0 435.53244912 0 14038.12797737 0 195.97701360 0 4842.73823231 0 5220
0.06850000 0.06852730 29749.14119043 0 -220.06487513 0 13967.47705281 0 3106.61099161 0 7188.59293404 0 5029
0.06950000 0.06949320 29279.53991164 0 -49.06479341 0 12655.27754186 0 1055.63572490 0 4206.20334825 0 5040
0.07050000 0.07048030 29879.35184260 0 432.53338947 0 12082.52813145 0 774.26980424 0 5973.97377384 0 5475
0.07150000 0.07148790 28227.98352898 0 1000.07326467 0 13542.68420969 0 -1286.10192453 0 5958.84538121 0 5509
0.07250000 0.07249820 27797.20143951 0 913.48429009 0 12920.57897286 0 -966.73756312 0 3569.19154273 0 5916
0.07350000 0.07351270 26214.48763500 0 412.72007524 0 13323.52215799 0 -242.14966649 0 1516.43281155 0 5721
0.07450000 0.07449140 26166.24092828 0 397.21347279 0 13971.69170765 0 125.18190348 0 1145.67627996 0 6028
0.07550000 0.07549160 25698.63606494 0 76.18620822 0 12567.43526203 0 1358.43871102 0 1296.11727537 0 6183
0.07650000 0.07648840 25623.21592569 0 5.06796717 0 11971.39433803 0 510.95702485 0 -682.03208306 0 6330
0.07750000 0.07749960 25518.29320256 0 -63.12865297 0 9450.59818684 0 739.50444740 0 -1775.03515959 0 6583
0.07850000 0.07848650 25736.78978244 0 65.95424630 0 10741.00349578 0 985.93864328 0 -1295.18561483 0 6549
0.07950000 0.07947320 24537.72048037 0 399.21099736 0 8653.05239669 0 541.68962247 0 -1520.11508894 0 6828
0.08050000 0.08048110 24334.41884031 0 336.58011731 0 7405.69202310 0 734.21061910 0 -1861.79050212 0 7147
0.08150000 0.08149960 23704.43885365 0 318.28186058 0 8302.47075235 0 258.71880561 0 -2397.49531472 0 7386
0.08250000 0.08250610 22923.17494062 0 588.53107454 0 6958.59478292 0 -303.45403938 0 -2568.32193012 0 7227
0.08350000 0.08350160 22572.24946918 0 521.73988652 0 7576.45209132 0 129.30782874 0 -2546.81609924 0 7798
0.08450000 0.08449610 21824.92461880 0 420.57929740 0 8469.64836395 0 -599.97718979 0 -2100.80579636 0 7371
0.08550000 0.08548940 21565.05787431 0 89.68818774 0 7081.80688982 0 888.89732470 0 -3450.52682658 0 8256
0.08650000 0.08650700 21304.52565799 0 41.59653595 0 7962.05973561 0 108.21414674 0 -1143.04766629 0 8037
0.08750000 0.08749060 21563.83784264 0 14.79920591 0 5613.69842337 0 1323.64562619 0 -2561.76703272 0 8155
0.08850000 0.08849210 21476.66103463 0 162.96850236 0 7176.15970226 0 842.05143615 0 -710.54755041 0 8718
0.08950000 0.08949900 20740.09464530 0 516.16323270 0 5561.61416250 0 -6.12868488 0 -1412.76339367 0 8571
0.09050000 0.09049190 20176.44001639 0 272.20570110 0 6788.03435625 0 123.35296510 0 -148.42128844 0 8932
0.09150000 0.09150830 20161.68872445 0 366.35332640 0 6081.22564833 0 112.38931692 0 -273.31482080 0 9285
0.09250000 0.09250820 19394.06698366 0 165.08803010 0 6372.49157139 0 93.82464964 0 -225.53838082 0 9204
0.09350000 0.09350330 19488.00942181 0 122.04198562 0 6544.63803922 0 -165.69250033 0 -359.59324186 0 9349
0.09450000 0.09448040 19159.70999215 0 298.33323375 0 6097.42988707 0 -143.09529567 0 -681.96775411 0 9564
0.09550000 0.09549270 18928.56944775 0 290.16678544 0 7037.03172774 0 -201.71781714 0 -553.16901131 0 10155
0.09650000 0.09649430 18713.17840301 0 408.62631445 0 7035.00203870 0 -675.51378661 0 -596.45129828 0 9913
0.09750000 0.09749140 18407.50501512 0 0.17005134 0 6925.46537764 0 416.59644857 0 -1209.87212790 0 10476
0.09850000 0.09850240 18103.38439480 0 57.04790424 0 7063.73932999 0 123.32301887 0 -1607.58026807 0 10575
0.09950000 0.09950330 18119.46663037 0 387.47540186 0 7032.29578664 0 101.10890415 0 -1498.98635875 0 10882
0.10050000 0.10051200 17655.07821415 0 326.73335266 0 7091.67805510 0 -317.65631708 0 -1678.22010143 0 10875
0.10150000 0.10150300 17285.40861987 0 26.36810071 0 6965.21622750 0 868.79009375 0 -843.58091221 0 11118
0.10250000 0.10250800 17112.38594747 0 194.53959447 0 6934.02778168 0 274.91195316 0 -1114.19946302 0 11575
0.10350000 0.10349800 17177.26944962 0 90.07294136 0 5988.17050594 0 438.36292258 0 -1880.51244257 0 11364
0.10450000 0.10450100 16639.56822157 0 206.29737236 0 6085.05211128 0 228.97887012 0 -805.98508191 0 12093
0.10550000 0.10551000 16468.98561251 0 375.94943000 0 6471.51377774 0 -316.52168763 0 -783.01299479 0 12067
0.10650000 0.10649700 16053.62028680 0 42.28019733 0 5962.20601388 0 642.41100020 0 -499.75713417 0 12054
0.10750000 0.10749900 16071.69893782 0 27.31883812 0 5564.76406244 0 635.89159463 0 -1476.54886732 0 12807
0.10850000 0.10850100 15880.26487850 0 188.30745091 0 5648.95733847 0 55.17437925 0 -303.38638308 0 12736
0.10950000 0.10950300 15476.98895746 0 296.58969759 0 5216.43393108 0 320.46793550 0 -365.31740860 0 12933
0.11050000 0.11050200 15124.06707057 0 271.82527305 0 5346.95513677 0 101.83149563 0 -323.29286336 0 13428
0.11150000 0.11150900 14918.76901505 0 91.98340003 0 5217.56523317 0 28.01015242 0 -202.70160631 0 13453
0.11250000 0.11250000 14979.65968630 0 151.77193904 0 5699.74392930 0 217.19780072 0 -127.30143121 0 13668
0.11350000 0.11349100 14787.00559531 0 7.30572707 0 5367.47385112 0 279.40056056 0 -37.82408713 0 13791
0.11450000 0.11448600 14831.48129507 0 -62.84505106 0 4772.39786126 0 93.77063551 0 -230.92426606 0 14205
0.11550000 0.11549300 15073.38030051 0 -155.51410889 0 4988.96457287 0 589.98069398 0 941.19453655 0 14776
0.11650000 0.11649800 15080.81140247 0 73.45633192 0 4344.01147033 0 195.60324026 0 -175.29304041 0 14553
0.11750000 0.11747300 15220.78230795 0 -69.37155499 0 4598.63207867 0 164.10202269 0 135.71077674 0 14568
0.11850000 0.11849100 15149.79864749 0 6.39257773 0 4199.38226213 0 -190.62440195 0 -67.91672269 0 16015
0.11950000 0.11950300 15294.98241554 0 211.28175627 0 4589.57057077 0 -359.58991450 0 -1068.57027878 0 15270
0.12050000 0.12050700 14649.69657709 0 470.56843116 0 4382.32046459 0 -547.69772386 0 -1149.18109820 0 15999
0.12150000 0.12150000 14175.10425968 0 421.42666484 0 5117.00135044 0 -427.33161810 0 -1323.74544697 0 15670
0.12250000 0.12250700 13793.01252481 0 262.36337293 0 5394.99111075 0 -208.16180256 0 -1567.24158477 0 16887
0.12350000 0.12352200 13418.01915599 0 136.88977097 0 5371.68850596 0 358.55288758 0 -1794.63330460 0 16407
0.12450000 0.12449800 13224.25594530 0 124.20920550 0 5506.39109290 0 336.00670243 0 -917.36620902 0 16306
0.12550000 0.12549900 13405.15336753 0 -59.33025075 0 4453.64795216 0 276.06321940 0 -1715.44215839 0 17523
0.12650000 0.12650100 13328.95684450 0 -60.76290066 0 4764.83366494 0 692.88703751 0 -754.98554010 0 17154
0.12750000 0.12750600 13633.41020072 0 -247.19172462 0 3715.36242731 0 767.25573129 0 -597.65358403 0 18007
0.12850000 0.12850300 13506.08325976 0 17.30858922 0 3498.82898929 0 272.20459198 0 -924.67530781 0 17496
0.12950000 0.12949900 13487.33913692 0 318.92625913 0 3515.13304880 0 -498.85431074 0 -684.91579426 0 18405
0.13050000 0.13049000 12931.00469799 0 386.69125424 0 4058.73479363 0 -342.87548070 0 -1185.74877454 0 18100
0.13150000 0.13148800 12740.34702245 0 231.02963243 0 4529.28991535 0 -346.28047816 0 -325.22162251 0 19059
0.13250000 0.13249300 12496.22977762 0 190.41477833 0 4198.61696954 0 380.44136476 0 -1065.63665719 0 18957
0.13350000 0.13349100 12199.20752335 0 83.57849099 0 4114.16859597 0 200.49445811 0 -642.30785207 0 19468
0.13450000 0.13450700 12009.43714357 0 142.37658610 0 3836.17883566 0 557.32931929 0 -114.60422895 0 19953
0.13550000 0.13551000 12055.57652287 0 108.07728137 0 3941.10155879 0 432.96816439 0 270.63962409 0 19956
0.13650000 0.13649900 11767.75996206 0 116.53298810 0 3817.21288888 0 112.74978082 0 285.02268830 0 19723
0.13750000 0.13749600 11354.05831590 0 358.51517751 0 3869.77407122 0 -188.14995591 0 245.99831183 0 20946
0.13850000 0.13851100 11199.00338256 0 139.04811790 0 3964.58162273 0 -140.39569833 0 879.98222059 0 20955
0.13950000 0.13949800 11129.90522557 0 -129.01945762 0 3969.36192862 0 696.51274979 0 867.36265670 0 20506
0.14050000 0.14048300 11227.28593478 0 -4.55125049 0 3612.24756928 0 274.22429895 0 826.84873249 0 21447
0.14150000 0.14148400 11292.72399677 0 111.95343288 0 3240.68138032 0 63.03715059 0 276.66768963 0 21771
0.14250000 0.14249400 11087.96940991 0 165.13461312 0 3351.03878995 0 -136.85871562 0 790.88219903 0 22470
0.14350000 0.14350900 10762.80878898 0 193.86635882 0 3472.16575182 0 -155.44423435 0 83.17610236 0 22519
0.14450000 0.14449900 10608.19750352 0 85.74005436 0 3247.34718968 0 95.23101341 0 497.34590795 0 22218
0.14550000 0.14550500 10584.07415016 0 50.20053198 0 3010.19521654 0 391.98840990 0 -151.55344246 0 23559
0.14650000 0.14650700 10477.75393621 0 34.63869537 0 3005.52582262 0 76.80443154 0 -262.19367762 0 23044
0.14750000 0.14750500 10449.17192168 0 140.71845216 0 2920.28997407 0 121.35322229 0 -1.95919339 0 23649
0.14850000 0.14849900 10243.84059258 0 146.30397894 0 2982.10121467 0 -8.11366531 0 83.38783331 0 23640
0.14950000 0.14949500 10094.59744644 0 102.10433907 0 2736.89703253 0 75.06577551 0 494.29915615 0 24457
0.15050000 0.15050000 10052.87236352 0 41.89599826 0 2805.96191593 0 265.94915690 0 331.47594847 0 24591
0.15150000 0.15149900 9963.63259288 0 73.33477240 0 2928.14254151 0 273.51889882 0 1068.77879328 0 25020
0.15250000 0.15250500 9860.69519400 0 89.26117666 0 2415.50741857 0 186.98427111 0 818.11108753 0 25297
0.15350000 0.15350100 9692.55264826 0 142.86792613 0 3074.36888208 0 30.84240047 0 1730.37090948 0 25452
0.15450000 0.15450400 9595.97050524 0 96.79309759 0 2729.74321050 0 -19.66114301 0 1388.31839560 0 26061
0.15550000 0.15549900 9519.94035016 0 91.85030567 0 2749.34135551 0 354.17186479 0 1544.04989195 0 26128
0.15650000 0.15649500 9279.56083870 0 33.17565558 0 2455.75737229 0 110.46832160 0 1303.95875161 0 26331
0.15750000 0.15749700 9347.25041367 0 76.95016987 0 2399.11462948 0 215.67719762 0 1379.62289719 0 27345
0.15850000 0.15849900 9278.34080704 0 -103.60741808 0 2045.78236830 0 338.83052117 0 1707.76705010 0 26980
0.15950000 0.15949700 9315.34104005 0 -33.72356070 0 1535.67603825 0 243.37302552 0 755.56671882 0 27777
0.16050000 0.16050000 9319.07877343 0 113.95317569 0 1491.03397054 0 -178.98529987 0 913.98117572 0 28224
0.16150000 0.16150500 9039.65824871 0 286.49449013 0 1771.18651425 0 -631.94423764 0 444.64386741 0 28075
0.16250000 0.16249700 8782.85267457 0 213.30257235 0 2104.41043536 0 -288.61069051 0 250.64995983 0 28590
0.16350000 0.16349900 8754.51466637 0 158.36011003 0 2490.42845395 0 -204.16564430 0 446.27427337 0 29163
0.16450000 0.16449100 8584.00969568 0 35.40598437 0 2540.66048493 0 3.57357257 0 -94.61212462 0 28996
0.16550000 0.16550500 8544.78013208 0 71.16677613 0 2811.59624398 0 -65.41809784 0 268.93934360 0 30777
0.16650000 0.16650700 8490.98782688 0 41.83111476 0 2509.06166482 0 258.16535488 0 104.85218312 0 29211
0.16750000 0.16749900 8554.46274701 0 25.03460610 0 2915.94222487 0 -62.26531420 0 563.51266159 0 30922
0.16850000 0.16850800 8554.74002694 0 -35.43570878 0 2697.33473302 0 166.65188887 0 142.20689079 0 30867
0.16950000 0.16949900 8474.35103146 0 39.60488971 0 2740.42403316 0 25.45629341 0 592.40412052 0 30852
0.17050000 0.17049200 8460.33175851 0 173.29995232 0 2471.56232794 0 -10.41211623 0 177.16301621 0 31257
0.17150000 0.17149500 8398.09905244 0 15.65577905 0 2496.04059961 0 225.45519685 0 454.04809331 0 32608
0.17250000 0.17250900 8256.28700826 0 56.91015157 0 2312.54783730 0 80.85604578 0 538.96451538 0 32361
0.17350000 0.17350400 8274.67621280 0 88.38253203 0 2118.79571781 0 162.07677012 0 91.18827213 0 32508
0.17450000 0.17449800 8071.23038718 0 111.49314820 0 2279.91753587 0 -187.72294483 0 -13.93531258 0 32791
0.17550000 0.17549800 7905.74972871 0 157.99077317 0 2468.01314492 0 -174.12735561 0 133.24742190 0 33633
0.17650000 0.17650100 7741.46691951 0 178.01925662 0 2379.54975806 0 -211.41263239 0 -442.70290795 0 33984
0.17750000 0.17750300 7608.89384239 0 141.01236888 0 2733.39221430 0 -80.84828195 0 -304.70401728 0 34069
0.17850000 0.17849800 7517.67983869 0 17.28840324 0 2627.79292815 0 188.02462538 0 -324.54727774 0 34536
