### header ###
fiducial parameters:
Omega_m = 0.31
Omega_nu = 0
Omega_de = 0.69
Omega_k = 0
H_0 = 100
w_de = -1
zeff = 0
beta = 0
fgrowth = 0
b_1 = 2
gamma = 0.55
Lx = 3500 Ly = 3500 Lz = 3500
nx = 700 ny = 700 nz = 700
xoffset = 1379.75464 yoffset = 22.6059522 zoffset = 368.141391
bins = 400 dk = 0.001
kx_ny = 0.628318531 ky_ny = 0.628318531 kz_ny = 0.628318531
############################
A(data) = 3.34697124 (not used)
A(ran) = 3.34495698 (used)
Ngal = 187613
weighted Ngal = 0
Nran = 9399747
weighted Nran = 0
SN(data) = 6671.14509
SN(ran) = 133.046945
SN(data+ran) = 6804.19204
############################
13 columns: k_central k_mean P_0(k) sigma^{lin}_{P_0(k)} P^img_1(k) sigma^{lin}_{P_1(k)} P_2(k) sigma^{lin}_{P_2(k)} P^img_3(k) sigma^{lin}_{P_3(k)} P_4(k) sigma^{lin}_{P_4(k)} N_modes
### header ###
0.00050000 0 0 0 0 0 0 0 0 0 0 0 0
0.00150000 0.00179520 65218.23447100 0 -50016.86175770 0 -90123.18448232 0 102498.85294912 0 -74931.23928644 0 3
0.00250000 0.00253879 122546.63508091 0 -59055.52179869 0 -38340.38234652 0 -77276.36196917 0 14786.34012349 0 6
0.00350000 0.00331552 134383.16046405 0 -26590.25738761 0 -77624.07099349 0 -54128.14664247 0 41184.05433208 0 7
0.00450000 0.00420575 157151.16955937 0 -8116.73756825 0 -64575.61051982 0 -82606.34757461 0 8129.89172783 0 24
0.00550000 0.00557378 135488.95279979 0 3132.66421324 0 -37475.26898456 0 -63886.18171752 0 -7103.41254147 0 45
0.00650000 0.00659388 165234.43389523 0 16197.69493515 0 -52659.00669471 0 -13809.98205614 0 -41264.57642192 0 40
0.00750000 0.00754703 102995.51674846 0 19942.63758472 0 -10733.68330579 0 -59736.07764343 0 -19013.08436849 0 57
0.00850000 0.00846663 104216.65753246 0 23586.53943009 0 30997.12267105 0 -18289.71650353 0 -30411.28564824 0 75
0.00950000 0.00948925 82605.57119082 0 10274.62975530 0 62114.36300504 0 -22579.68057113 0 -17625.24289436 0 112
0.01050000 0.01054430 66467.10324737 0 5830.46477653 0 50604.14063611 0 22688.15247728 0 -18275.29794749 0 105
0.01150000 0.01145670 77142.93486988 0 2581.87537279 0 71972.10794065 0 20345.91350576 0 -10378.46554113 0 144
0.01250000 0.01249090 67669.83264443 0 2290.35435220 0 65227.44016447 0 19457.73045414 0 24717.73060684 0 169
0.01350000 0.01339930 74019.98654517 0 2194.88132887 0 55850.72044050 0 42633.23012533 0 26737.10483520 0 180
0.01450000 0.01448870 73479.51251788 0 -3606.63542362 0 56417.81334046 0 31347.60449461 0 64207.93734099 0 267
0.01550000 0.01550050 76491.99252099 0 -26.72068986 0 10574.62445036 0 19161.37367169 0 17205.10835396 0 238
0.01650000 0.01653350 77083.70787818 0 -401.36379868 0 49962.73671660 0 7205.85083649 0 70723.12825231 0 315
0.01750000 0.01747870 72578.24185387 0 3947.27935549 0 12628.76958115 0 -8521.92117517 0 26603.67773592 0 297
0.01850000 0.01844180 74430.58265619 0 4661.35279741 0 50768.29035095 0 1005.36598385 0 41218.65886656 0 388
0.01950000 0.01947590 68615.46809624 0 652.07032362 0 38223.70295463 0 -4295.80912839 0 2961.79323305 0 399
0.02050000 0.02045430 67690.01862288 0 3244.78512319 0 47402.55572504 0 -7457.63209841 0 5707.15284886 0 462
0.02150000 0.02154770 67749.13470261 0 -870.69556139 0 38450.73975616 0 5573.44846965 0 -1036.85832847 0 571
0.02250000 0.02255340 70755.73637134 0 -2490.80555465 0 45112.77811508 0 5573.14900733 0 -17316.24214738 0 510
0.02350000 0.02348930 76374.53674531 0 -1984.69205551 0 32839.03774824 0 5093.44364812 0 -14578.93474056 0 555
0.02450000 0.02439640 79224.75253706 0 -3580.18291890 0 29124.26315437 0 617.93383765 0 -35177.72753674 0 592
0.02550000 0.02547300 75872.21643552 0 2645.50556968 0 33598.00835540 0 -7078.55716911 0 -15573.92601879 0 837
0.02650000 0.02652900 73748.14130797 0 5159.66918510 0 30376.23746588 0 -7753.77814812 0 -37042.49047964 0 723
0.02750000 0.02749970 68138.65753944 0 3999.66307868 0 40402.23585920 0 -4046.84503050 0 -18497.12188646 0 826
0.02850000 0.02848090 65320.16257095 0 1529.34296480 0 32718.03278953 0 10455.83773104 0 -34660.65593501 0 831
0.02950000 0.02946900 64938.73630790 0 -3576.04590244 0 32347.25407555 0 13511.62885823 0 -14332.93199225 0 996
0.03050000 0.03053250 67548.82768573 0 -2580.84389147 0 17625.13198239 0 11694.77988614 0 -19655.59740770 0 1041
0.03150000 0.03150510 71074.71919557 0 355.87769088 0 10376.80186159 0 2494.22164331 0 -17311.25110876 0 1036
0.03250000 0.03246190 68331.42254240 0 1930.57810560 0 7013.66257577 0 -6347.66947262 0 -11890.65042425 0 1059
0.03350000 0.03345080 60837.10076448 0 6013.34752301 0 14637.60717242 0 -8184.66005837 0 -17630.01210905 0 1302
0.03450000 0.03451200 55460.08848398 0 4704.44209756 0 19185.88521694 0 -4445.69556395 0 -16021.45581565 0 1339
0.03550000 0.03553350 51176.44639864 0 1518.88396607 0 21625.06124980 0 5882.01665994 0 -16441.81217998 0 1365
0.03650000 0.03647120 49222.95388015 0 670.82110118 0 20142.27912979 0 3926.77173234 0 -8984.80118860 0 1308
0.03750000 0.03744890 49025.53057447 0 1052.87512598 0 17933.79999346 0 7106.40716465 0 -5500.40184655 0 1579
0.03850000 0.03847530 48370.48448271 0 -284.68884327 0 13256.86406433 0 4373.73587815 0 946.60593154 0 1662
0.03950000 0.03950240 46404.68073561 0 1283.27366930 0 10540.13082785 0 3909.23654996 0 8808.07405643 0 1683
0.04050000 0.04050350 46627.50288230 0 992.99264453 0 13532.81304440 0 2205.73961068 0 9711.68496300 0 1822
0.04150000 0.04152450 44244.44830600 0 246.75584058 0 10558.73076513 0 1953.59233926 0 15465.23228869 0 1887
0.04250000 0.04250150 42577.77414059 0 1197.22816338 0 10075.93096198 0 1646.05563028 0 9383.59626607 0 1920
0.04350000 0.04349210 42134.56991054 0 1280.87797076 0 13527.37835790 0 -4455.11199016 0 11719.40234337 0 2005
0.04450000 0.04448520 41241.50673227 0 1946.15014611 0 14987.42352416 0 -2474.00239127 0 6177.37523468 0 2151
0.04550000 0.04548030 39116.98795684 0 819.75480292 0 17504.57067156 0 -468.54317860 0 4148.14093223 0 2274
0.04650000 0.04648670 36826.10122718 0 401.08540964 0 13551.88990316 0 30.85925909 0 633.10437684 0 2311
0.04750000 0.04749250 38450.85066813 0 -993.17232193 0 16521.66879801 0 3177.30628095 0 1048.25896981 0 2568
0.04850000 0.04851840 39750.29530258 0 -1888.38719240 0 8672.21798501 0 4830.65991883 0 -1394.27436836 0 2493
0.04950000 0.04949480 41011.58621953 0 -1216.09428939 0 7928.19831133 0 3176.79608589 0 -6311.96690964 0 2644
0.05050000 0.05050630 42107.95103787 0 630.04875208 0 2949.68164599 0 -2537.75459133 0 -4275.82279149 0 2829
0.05150000 0.05149060 39054.54451802 0 2017.63291044 0 8719.95449668 0 -3858.89360701 0 -6163.66651525 0 2784
0.05250000 0.05249300 37524.18116310 0 2620.14000226 0 9567.42176429 0 -5414.28979344 0 -9518.76468328 0 3055
0.05350000 0.05348950 35149.33407255 0 2029.76667990 0 14087.37289182 0 -2147.71046825 0 -9101.03693262 0 3009
0.05450000 0.05448610 32831.93938219 0 438.50710814 0 13085.72689542 0 2455.22499484 0 -7823.68596249 0 3336
0.05550000 0.05550870 32761.73210551 0 -109.60265368 0 12656.60848549 0 4599.89647512 0 -4689.93481195 0 3349
0.05650000 0.05647670 32335.49740679 0 -115.21535390 0 10188.95025888 0 3319.96125610 0 -3304.40030678 0 3324
0.05750000 0.05747970 33613.64694310 0 -643.16963807 0 7831.30561479 0 2753.23436564 0 1998.74460204 0 3639
0.05850000 0.05849280 32636.73431590 0 -328.78855145 0 6448.58827365 0 1170.44292275 0 715.43100443 0 3846
0.05950000 0.05951020 33975.44178755 0 13.73001453 0 6184.21850319 0 4.69206432 0 1257.55318358 0 3787
0.06050000 0.06049470 33374.07708902 0 206.14098648 0 6020.60116581 0 -627.58872460 0 -598.14381494 0 3930
0.06150000 0.06148310 33348.01277619 0 513.71318729 0 6407.12937946 0 -1505.94053924 0 -2166.14403758 0 4083
0.06250000 0.06249100 33021.04429016 0 547.49031848 0 7227.77813285 0 -1146.78539966 0 -1134.41871506 0 4303
0.06350000 0.06350600 31771.62095394 0 729.59668117 0 8415.71187319 0 -407.18556796 0 -3185.22539558 0 4470
0.06450000 0.06451750 31202.86437443 0 1003.71006815 0 8954.34476178 0 -400.63399792 0 -3978.25706857 0 4479
0.06550000 0.06550280 30120.80720017 0 834.16670424 0 8558.95468178 0 -372.55996021 0 -5402.08947680 0 4636
0.06650000 0.06648880 28543.63899413 0 939.37225289 0 11627.78905658 0 -1551.28135236 0 -3007.06749900 0 4653
0.06750000 0.06749660 27844.56085048 0 1103.01731826 0 10708.28446478 0 -666.76172310 0 -3009.89575422 0 5220
0.06850000 0.06852730 27057.64042701 0 286.35917753 0 13110.01661674 0 142.00503101 0 -2492.43596060 0 5029
0.06950000 0.06949320 26793.33720373 0 -268.85948698 0 11835.63808739 0 1554.08742519 0 -2386.28211461 0 5040
0.07050000 0.07048030 27953.80914042 0 -164.55676176 0 12456.07964467 0 2131.70587105 0 319.75477154 0 5475
0.07150000 0.07148790 27173.32161118 0 -186.19568701 0 11769.64546555 0 1537.32862660 0 1404.45608716 0 5509
0.07250000 0.07249820 27913.54809550 0 73.45267182 0 10900.61691106 0 1550.20550626 0 5015.15088887 0 5916
0.07350000 0.07351270 27750.61841233 0 178.09800412 0 10407.53556833 0 1482.56029607 0 5348.38590117 0 5721
0.07450000 0.07449140 27435.85024294 0 270.65071529 0 10380.41759180 0 1795.83115387 0 7257.21416955 0 6028
0.07550000 0.07549160 26994.97516425 0 548.88891841 0 11140.77459858 0 -1062.36364497 0 7185.95322916 0 6183
0.07650000 0.07648840 26249.20308145 0 845.54183583 0 11096.52072276 0 211.08766032 0 6773.33852029 0 6330
0.07750000 0.07749960 25074.86714857 0 400.83142123 0 10644.69863268 0 -415.91101260 0 6293.97698819 0 6583
0.07850000 0.07848650 24651.07251318 0 448.10542998 0 11092.19515595 0 682.12303087 0 5554.24960773 0 6549
0.07950000 0.07947320 24295.37782705 0 57.90702835 0 9594.24027851 0 1183.37525839 0 4882.79963568 0 6828
0.08050000 0.08048110 24153.07777021 0 45.02892867 0 9154.00848925 0 848.91134146 0 3910.05729854 0 7147
0.08150000 0.08149960 23709.42989228 0 349.91284516 0 9216.06373617 0 308.31309277 0 3585.72851738 0 7386
0.08250000 0.08250610 23200.78760023 0 552.63219738 0 8447.18869013 0 -549.31814773 0 3279.10128655 0 7227
0.08350000 0.08350160 22196.36880460 0 733.89784735 0 8896.91454399 0 -376.81565248 0 3186.99998709 0 7798
0.08450000 0.08449610 21757.26831742 0 627.98024385 0 9454.34701141 0 -325.21718604 0 3115.78341148 0 7371
0.08550000 0.08548940 21790.54190826 0 259.35100384 0 10277.10309222 0 -102.08936596 0 2417.82547873 0 8256
0.08650000 0.08650700 21048.20809652 0 -143.76742220 0 10543.32509257 0 851.73183284 0 2362.24749082 0 8037
0.08750000 0.08749060 21155.68179495 0 267.57290814 0 10186.85402266 0 -49.84505912 0 2447.80498408 0 8155
0.08850000 0.08849210 20712.58847687 0 84.42031284 0 9628.29025315 0 129.10707808 0 2165.86675766 0 8718
0.08950000 0.08949900 20839.91541783 0 68.37922560 0 9796.62134923 0 717.92097814 0 1710.56203173 0 8571
0.09050000 0.09049190 20898.03328984 0 -88.26918000 0 8140.82764803 0 837.38536959 0 1637.94796531 0 8932
0.09150000 0.09150830 20753.29316967 0 -186.60495218 0 7361.34941770 0 1172.61679735 0 1384.80248617 0 9285
0.09250000 0.09250820 20819.39670348 0 51.13640718 0 6220.86381791 0 1400.20815873 0 1019.14235958 0 9204
0.09350000 0.09350330 20633.39733066 0 375.39265191 0 5718.14422503 0 70.12320541 0 1116.06278411 0 9349
0.09450000 0.09448040 19353.80593874 0 505.20291187 0 4734.05559341 0 43.74678630 0 -195.75851702 0 9564
0.09550000 0.09549270 19148.61879520 0 621.42978293 0 5532.91014480 0 -684.77049958 0 844.70555958 0 10155
0.09650000 0.09649430 18419.92715570 0 355.15898132 0 4736.35147118 0 104.41097530 0 -1287.46614175 0 9913
0.09750000 0.09749140 17983.26673185 0 206.31290003 0 5347.26569028 0 -92.07944980 0 -100.97292607 0 10476
0.09850000 0.09850240 17514.44183685 0 359.81839315 0 4688.18240283 0 -130.41362108 0 -1291.81389095 0 10575
0.09950000 0.09950330 17281.19396503 0 179.47885814 0 5274.50743830 0 179.25925244 0 -1260.49235077 0 10882
0.10050000 0.10051200 16934.59406039 0 23.21032603 0 5423.08511262 0 692.32915030 0 -1397.18026196 0 10875
0.10150000 0.10150300 17153.86702406 0 9.13495381 0 4555.27658980 0 206.54359693 0 -1150.76713936 0 11118
0.10250000 0.10250800 17039.07313565 0 129.48085141 0 5043.44453228 0 -90.09113092 0 -1057.67539602 0 11575
0.10350000 0.10349800 16760.01862043 0 403.21602857 0 4487.85320355 0 -282.89539672 0 -973.88694867 0 11364
0.10450000 0.10450100 16030.10694927 0 468.20267885 0 5344.82562695 0 -255.97595261 0 -1102.55703359 0 12093
0.10550000 0.10551000 16132.03504922 0 -69.14374181 0 5215.51336174 0 176.42323338 0 -1483.72487175 0 12067
0.10650000 0.10649700 15673.63587935 0 138.54901404 0 5371.93251230 0 724.56238687 0 181.50854718 0 12054
0.10750000 0.10749900 15350.21657634 0 353.61952318 0 4946.40765018 0 336.25958172 0 -658.56754679 0 12807
0.10850000 0.10850100 15183.07223833 0 237.16084610 0 4513.16331499 0 291.23043123 0 -189.59402975 0 12736
0.10950000 0.10950300 14489.98334104 0 398.16066100 0 5269.03947821 0 -40.80739728 0 84.66054816 0 12933
0.11050000 0.11050200 14368.53473445 0 271.52359249 0 4566.50088111 0 -47.00759820 0 312.65751461 0 13428
0.11150000 0.11150900 14180.42803421 0 97.25127494 0 5153.29174686 0 40.45192442 0 558.11568515 0 13453
0.11250000 0.11250000 13879.41294904 0 122.08745953 0 5140.52577917 0 -84.48109259 0 -769.54939082 0 13668
0.11350000 0.11349100 13732.01094159 0 179.55095092 0 5285.05516660 0 -391.68783847 0 -140.55319333 0 13791
0.11450000 0.11448600 13568.97034646 0 127.24486611 0 5412.84793784 0 29.08810585 0 -608.71927123 0 14205
0.11550000 0.11549300 13758.74072624 0 -60.81148010 0 5496.75284275 0 -139.55054912 0 -525.37558088 0 14776
0.11650000 0.11649800 13843.25564699 0 -122.64201937 0 5826.72704316 0 328.04100478 0 -955.95913792 0 14553
0.11750000 0.11747300 14116.54273979 0 -50.63963247 0 5191.00181648 0 132.65737022 0 -1017.00952241 0 14568
0.11850000 0.11849100 14089.81295514 0 -62.74622850 0 5212.67401532 0 186.11028479 0 -776.10872469 0 16015
0.11950000 0.11950300 14123.41928190 0 112.34938861 0 4483.39454238 0 595.39208898 0 -577.43655024 0 15270
0.12050000 0.12050700 14180.31712224 0 23.91162241 0 4831.31429945 0 511.92750458 0 -33.85576777 0 15999
0.12150000 0.12150000 13951.28390526 0 38.00210084 0 3949.03176461 0 377.46337838 0 -488.27219973 0 15670
0.12250000 0.12250700 13860.00335438 0 299.52553742 0 4495.77231817 0 -262.24802448 0 210.75381529 0 16887
0.12350000 0.12352200 13266.73522962 0 358.70816434 0 4411.70104531 0 -40.65655701 0 -231.90029139 0 16407
0.12450000 0.12449800 12961.28366566 0 357.03450272 0 4526.65021048 0 -454.00372852 0 -303.71246427 0 16306
0.12550000 0.12549900 12730.80859308 0 184.50317035 0 5079.16927765 0 -100.71915949 0 -706.31293142 0 17523
0.12650000 0.12650100 12255.77262779 0 163.69164840 0 4676.93592913 0 197.44659719 0 -949.54177137 0 17154
0.12750000 0.12750600 12139.64779574 0 182.75963419 0 4434.87055573 0 15.53954331 0 -796.06289712 0 18007
0.12850000 0.12850300 12036.27784018 0 20.40325499 0 4565.01466072 0 230.51832825 0 -261.84985051 0 17496
0.12950000 0.12949900 12134.54584514 0 -178.58712590 0 4176.02420135 0 1087.82237844 0 -432.51675267 0 18405
0.13050000 0.13049000 12429.68259593 0 -274.32633796 0 3674.43591057 0 505.16631092 0 45.78423918 0 18100
0.13150000 0.13148800 12511.20289350 0 -38.18377465 0 2954.20685434 0 457.14253726 0 104.45434188 0 19059
0.13250000 0.13249300 12532.38707967 0 162.48825353 0 3627.23177636 0 -341.76747012 0 531.52010399 0 18957
0.13350000 0.13349100 12328.64179174 0 156.99256544 0 3493.53848834 0 -295.14229639 0 638.38378659 0 19468
0.13450000 0.13450700 12314.11232373 0 167.08666379 0 3889.54967538 0 140.89258395 0 474.87957942 0 19953
0.13550000 0.13551000 11832.31072830 0 301.94785484 0 3880.93181535 0 -311.50957573 0 640.90925213 0 19956
0.13650000 0.13649900 11887.54488910 0 215.27680541 0 4406.51036513 0 -172.62006194 0 839.88754362 0 19723
0.13750000 0.13749600 11678.47582663 0 -91.20224703 0 4483.28363041 0 462.66928070 0 355.63479367 0 20946
0.13850000 0.13851100 11710.52938581 0 -23.61659657 0 3688.55500428 0 432.22172683 0 893.78743343 0 20955
0.13950000 0.13949800 11632.66918323 0 -4.00143767 0 3646.13117596 0 133.64892323 0 795.09907211 0 20506
0.14050000 0.14048300 11678.25400269 0 92.81546163 0 3347.75579565 0 197.17597199 0 1171.05293858 0 21447
0.14150000 0.14148400 11693.33803054 0 68.03783856 0 3311.46539924 0 298.16908404 0 1066.21229031 0 21771
0.14250000 0.14249400 11205.76901270 0 204.71798591 0 3529.79561117 0 -21.12085544 0 1043.08159907 0 22470
0.14350000 0.14350900 11288.62025390 0 169.89162749 0 3055.62475924 0 252.28369314 0 1100.02713156 0 22519
0.14450000 0.14449900 11014.45695654 0 69.56398726 0 3336.25422442 0 -3.14096043 0 803.26330218 0 22218
0.14550000 0.14550500 10707.86299930 0 250.07321759 0 3107.37628420 0 -246.20682634 0 877.98580514 0 23559
0.14650000 0.14650700 10519.75629906 0 272.22233790 0 3249.65415865 0 29.54628320 0 524.48384865 0 23044
0.14750000 0.14750500 10251.28278573 0 50.83772124 0 3304.75522509 0 147.57059364 0 982.42495208 0 23649
0.14850000 0.14849900 10280.04225941 0 -13.96026777 0 2783.32478296 0 531.11083882 0 519.63921382 0 23640
0.14950000 0.14949500 10214.78165657 0 42.18436938 0 2921.43236736 0 175.21983851 0 879.05388741 0 24457
0.15050000 0.15050000 10084.08299173 0 88.65570821 0 2513.68669395 0 40.68084673 0 694.81801490 0 24591
0.15150000 0.15149900 10045.40798797 0 72.73218767 0 2389.06600504 0 128.72332266 0 728.85468009 0 25020
0.15250000 0.15250500 10007.08790252 0 162.10671636 0 2775.92695460 0 -292.89743813 0 654.59024357 0 25297
0.15350000 0.15350100 9660.80964260 0 129.26235483 0 2477.26320317 0 -3.27062761 0 303.55275104 0 25452
0.15450000 0.15450400 9681.76091363 0 127.50218188 0 3062.74530768 0 -219.67446500 0 188.78880885 0 26061
0.15550000 0.15549900 9554.98853252 0 21.57870005 0 2667.80996674 0 -74.88565447 0 175.77328924 0 26128
0.15650000 0.15649500 9467.98918365 0 65.33912852 0 2944.34678025 0 218.69733054 0 -131.80889365 0 26331
0.15750000 0.15749700 9566.55665093 0 55.98869493 0 2603.73612197 0 -281.02098444 0 -311.27555147 0 27345
0.15850000 0.15849900 9527.68200563 0 30.69278023 0 2872.69764797 0 139.24332297 0 -176.89904573 0 26980
0.15950000 0.15949700 9388.45421034 0 -23.57622462 0 2550.86438612 0 139.28325128 0 -638.58010077 0 27777
0.16050000 0.16050000 9378.64959224 0 42.65519070 0 2641.36855322 0 21.43163078 0 -423.73807029 0 28224
0.16150000 0.16150500 9415.12853900 0 106.02108436 0 2657.98316625 0 -82.19741514 0 -618.44403271 0 28075
0.16250000 0.16249700 9323.07160433 0 92.87746142 0 2389.19909940 0 190.32715787 0 -714.07455104 0 28590
0.16350000 0.16349900 9106.32743357 0 123.67460981 0 2584.67035442 0 198.00337528 0 -322.48986071 0 29163
0.16450000 0.16449100 8943.93012785 0 222.61030483 0 2207.35892544 0 -110.34898033 0 -468.04296562 0 28996
0.16550000 0.16550500 8724.90117052 0 141.51258186 0 2553.17135509 0 -166.82158418 0 -648.73852806 0 30777
0.16650000 0.16650700 8656.46848535 0 109.68994140 0 2792.13119334 0 -37.21950598 0 -578.72312908 0 29211
0.16750000 0.16749900 8422.72150966 0 32.48334306 0 2660.25686162 0 98.03209520 0 -294.81399696 0 30922
0.16850000 0.16850800 8514.87826510 0 39.86054180 0 2552.22860335 0 124.63067099 0 -252.49886236 0 30867
0.16950000 0.16949900 8319.38482770 0 145.71836375 0 2516.61476995 0 95.08904609 0 -285.30995030 0 30852
0.17050000 0.17049200 8298.32264469 0 186.93103337 0 3073.68122787 0 38.05312035 0 347.03578867 0 31257
0.17150000 0.17149500 8060.82684444 0 104.89144595 0 2867.19641428 0 -50.29048159 0 489.13731309 0 32608
0.17250000 0.17250900 8035.66091856 0 -12.38809061 0 2952.52099240 0 297.24518733 0 1049.54887601 0 32361
0.17350000 0.17350400 8157.06516036 0 -25.42557080 0 3105.13586241 0 123.25092609 0 872.28271167 0 32508
0.17450000 0.17449800 8154.21472274 0 -44.38586107 0 2740.51276274 0 131.42624736 0 1198.41492145 0 32791
0.17550000 0.17549800 8205.43387025 0 40.84821289 0 2952.28807727 0 -68.29171606 0 936.86342414 0 33633
0.17650000 0.17650100 8284.29228055 0 44.72746993 0 2997.54016082 0 -128.18872697 0 849.26958712 0 33984
0.17750000 0.17750300 8292.36667193 0 -31.79546703 0 2865.37745798 0 65.43795108 0 549.18838073 0 34069
