### header ###
fiducial parameters:
Omega_m = 0.31
Omega_nu = 0
Omega_de = 0.69
Omega_k = 0
H_0 = 100
w_de = -1
zeff = 0
beta = 0
fgrowth = 0
b_1 = 2
gamma = 0.55
Lx = 3500 Ly = 3500 Lz = 3500
nx = 700 ny = 700 nz = 700
xoffset = 1379.75464 yoffset = 22.6059522 zoffset = 368.141391
bins = 400 dk = 0.001
kx_ny = 0.628318531 ky_ny = 0.628318531 kz_ny = 0.628318531
############################
A(data) = 3.32089739 (not used)
A(ran) = 3.31520986 (used)
Ngal = 185573
weighted Ngal = 0
Nran = 9399747
weighted Nran = 0
SN(data) = 6649.37125
SN(ran) = 131.863741
SN(data+ran) = 6781.23499
############################
13 columns: k_central k_mean P_0(k) sigma^{lin}_{P_0(k)} P^img_1(k) sigma^{lin}_{P_1(k)} P_2(k) sigma^{lin}_{P_2(k)} P^img_3(k) sigma^{lin}_{P_3(k)} P_4(k) sigma^{lin}_{P_4(k)} N_modes
### header ###
0.00050000 0 0 0 0 0 0 0 0 0 0 0 0
0.00150000 0.00179520 30482.49113265 0 -43974.37766031 0 -76914.34530078 0 86487.49012270 0 70903.47111469 0 3
0.00250000 0.00253879 47214.55993677 0 -33826.70883648 0 -18225.83120911 0 -72341.11206312 0 -52541.55091903 0 6
0.00350000 0.00331552 84761.69987755 0 -25371.22393103 0 -84341.34351322 0 1366.22473128 0 12005.33340070 0 7
0.00450000 0.00420575 100553.23518046 0 -14387.38976926 0 -53282.77561108 0 -51230.01687990 0 -6439.40476258 0 24
0.00550000 0.00557378 88374.65728344 0 18382.21708608 0 -25669.90986484 0 -61209.09951013 0 822.36788892 0 45
0.00650000 0.00659388 67559.14249889 0 6415.15940605 0 -10463.94539601 0 1839.80774977 0 -19980.79130222 0 40
0.00750000 0.00754703 63962.26732858 0 -2675.83999333 0 9891.47326553 0 -3998.64268856 0 -7838.38179844 0 57
0.00850000 0.00846663 66818.25054275 0 -330.34575550 0 -23721.18656104 0 -12521.07405879 0 -29002.92545975 0 75
0.00950000 0.00948925 65246.29519928 0 3326.71579504 0 4669.58246555 0 -10161.34426967 0 -18281.39810582 0 112
0.01050000 0.01054430 62660.27171883 0 7510.37073990 0 9743.63870141 0 -19802.66667923 0 -15291.43323251 0 105
0.01150000 0.01145670 53643.01768796 0 2570.12979522 0 13250.98572995 0 -329.77123150 0 -33288.23122464 0 144
0.01250000 0.01249090 53965.66060718 0 -84.31827382 0 21860.41644904 0 4146.19997276 0 -13126.98614807 0 169
0.01350000 0.01339930 53294.19954393 0 -6042.31772944 0 10586.94677017 0 3481.09416537 0 -32842.91966717 0 180
0.01450000 0.01448870 61361.71438013 0 -2419.77752939 0 4890.60783833 0 -3018.42488467 0 -29638.11830898 0 267
0.01550000 0.01550050 63935.98119182 0 3923.21145812 0 3048.22693087 0 -15024.13538606 0 -43972.93580471 0 238
0.01650000 0.01653350 59763.36198792 0 -1514.51403448 0 5853.29045985 0 -5682.51930044 0 -21007.28157978 0 315
0.01750000 0.01747870 71805.29633855 0 -7573.23564420 0 2638.27410927 0 7096.82437049 0 -47634.80538913 0 297
0.01850000 0.01844180 73385.23734382 0 -3591.80649330 0 -5628.00606744 0 3027.30893343 0 -34322.04169218 0 388
0.01950000 0.01947590 71153.91034178 0 939.18259342 0 -2809.89929085 0 -6108.62090479 0 -44954.17399872 0 399
0.02050000 0.02045430 72994.49447534 0 5169.82872151 0 -1445.44915108 0 -11931.90967690 0 -23888.55272299 0 462
0.02150000 0.02154770 65214.57437601 0 899.81438985 0 5191.85583864 0 -6956.40981712 0 -33053.31967328 0 571
0.02250000 0.02255340 70727.34290715 0 -233.55509798 0 6108.89818472 0 -142.95000099 0 -34300.08112223 0 510
0.02350000 0.02348930 66025.89543277 0 -887.30573794 0 5968.02889228 0 962.96877440 0 -32354.35244160 0 555
0.02450000 0.02439640 67540.28746408 0 3434.91042127 0 7529.80251695 0 -9234.16456959 0 -36705.65082833 0 592
0.02550000 0.02547300 62046.70670366 0 2771.21319589 0 11805.91367957 0 -5713.71883745 0 -23709.20806834 0 837
0.02650000 0.02652900 60527.10180978 0 1374.94241208 0 10954.52012823 0 4590.84605841 0 -24686.89707932 0 723
0.02750000 0.02749970 59950.69230438 0 -2145.25931373 0 10855.55337786 0 3851.58450822 0 -22440.81878534 0 826
0.02850000 0.02848090 58090.25492829 0 1239.60762692 0 5762.44246565 0 1605.29548150 0 -22540.41773393 0 831
0.02950000 0.02946900 59125.39633946 0 1117.03880944 0 5294.57141358 0 -567.17719306 0 -21796.08750674 0 996
0.03050000 0.03053250 58007.73642299 0 -552.29946147 0 2831.78222243 0 605.85552418 0 -13577.84330401 0 1041
0.03150000 0.03150510 59016.36987346 0 -1680.62689117 0 -2453.70550086 0 2064.83704465 0 -23576.44644087 0 1036
0.03250000 0.03246190 57929.87622041 0 659.24965541 0 1213.77622923 0 -81.07664969 0 -11422.04735319 0 1059
0.03350000 0.03345080 56778.05541734 0 3361.60870064 0 -864.93923017 0 -4899.80244060 0 -22426.95478915 0 1302
0.03450000 0.03451200 54229.29835864 0 2131.07367283 0 5094.84113894 0 -3557.96725141 0 -9290.61876206 0 1339
0.03550000 0.03553350 50647.72904012 0 1821.09690052 0 7986.79310481 0 -2798.63063475 0 -17630.56666889 0 1365
0.03650000 0.03647120 50064.11025670 0 -537.74004724 0 8663.12320351 0 3308.16022255 0 -6728.71863497 0 1308
0.03750000 0.03744890 51659.24620180 0 -1579.20898628 0 10305.54092120 0 3246.73717385 0 -3521.87649654 0 1579
0.03850000 0.03847530 53976.86271610 0 -704.39304522 0 8611.11658102 0 1128.89529898 0 -6639.32358757 0 1662
0.03950000 0.03950240 54082.45091105 0 2425.28985427 0 12077.53709283 0 -1951.10791115 0 -3063.71024181 0 1683
0.04050000 0.04050350 51027.49162363 0 2134.52303508 0 14954.81540514 0 -4522.46882923 0 -1819.76595689 0 1822
0.04150000 0.04152450 47061.94506676 0 1931.03284467 0 16077.68818417 0 1734.15300764 0 3225.00951903 0 1887
0.04250000 0.04250150 48178.27403960 0 -270.83593828 0 18570.32378632 0 3526.37952251 0 1682.50130345 0 1920
0.04350000 0.04349210 46671.53493418 0 915.30213727 0 16972.19321805 0 3964.62598752 0 8505.24001496 0 2005
0.04450000 0.04448520 46406.23350318 0 2687.78521245 0 17914.27948683 0 -2134.47867029 0 3853.24818777 0 2151
0.04550000 0.04548030 41216.55153914 0 1976.10746907 0 17376.02369893 0 -1183.19779924 0 9632.99292065 0 2274
0.04650000 0.04648670 39297.66355513 0 1464.98074891 0 22238.95900088 0 1745.87640282 0 7725.15176880 0 2311
0.04750000 0.04749250 38052.34396178 0 424.88490005 0 16510.13395319 0 737.26957122 0 6022.50885169 0 2568
0.04850000 0.04851840 38786.58119975 0 -334.69905031 0 18828.52685127 0 4668.11842755 0 8174.31197161 0 2493
0.04950000 0.04949480 38412.14239078 0 -159.79309267 0 13261.96601493 0 2025.70730182 0 3935.35631877 0 2644
0.05050000 0.05050630 38772.38446766 0 -527.34205010 0 12134.54584514 0 2940.28740217 0 6521.73471752 0 2829
0.05150000 0.05149060 37200.98368403 0 333.94595803 0 9383.55190129 0 -253.07227725 0 2321.06587655 0 2784
0.05250000 0.05249300 38056.00405677 0 952.06169132 0 11552.59074127 0 -129.37770328 0 4829.31788400 0 3055
0.05350000 0.05348950 36462.64270319 0 662.97629758 0 9228.89625104 0 372.04421955 0 1345.18473067 0 3009
0.05450000 0.05448610 36114.37911902 0 898.05421690 0 11029.14170130 0 -1013.60896142 0 4501.82811171 0 3336
0.05550000 0.05550870 35139.68473121 0 230.38412477 0 9230.70411614 0 1953.30396814 0 1365.99181614 0 3349
0.05650000 0.05647670 33620.63439718 0 868.98308058 0 12702.52604086 0 563.85759781 0 2733.82477098 0 3324
0.05750000 0.05747970 33859.09513156 0 52.01205718 0 9659.72270530 0 1750.52361434 0 4738.95790246 0 3639
0.05850000 0.05849280 32907.24860947 0 -297.25849677 0 11029.00860693 0 2176.80267785 0 3593.71417918 0 3846
0.05950000 0.05951020 34087.35196476 0 388.02219787 0 8336.54290937 0 937.85941363 0 5624.31269885 0 3787
0.06050000 0.06049470 32348.69593116 0 622.67532435 0 8916.83433371 0 -1910.17030321 0 3528.66430908 0 3930
0.06150000 0.06148310 33052.32146555 0 997.87831679 0 10287.45117898 0 -2585.38019102 0 4168.62637299 0 4083
0.06250000 0.06249100 31606.58394335 0 469.28296144 0 12015.98094977 0 366.28456098 0 2480.01382002 0 4303
0.06350000 0.06350600 31428.01567248 0 53.20147714 0 11827.98516149 0 719.54583849 0 4459.07154747 0 4470
0.06450000 0.06451750 31769.95727440 0 -130.06424837 0 11151.75488356 0 1699.93666506 0 1594.13773737 0 4479
0.06550000 0.06550280 31526.50550138 0 42.36315948 0 10237.57406630 0 1747.76190630 0 4446.60504210 0 4636
0.06650000 0.06648880 31034.50000476 0 401.46694682 0 10752.66034377 0 -1350.73032914 0 2367.91509246 0 4653
0.06750000 0.06749660 30479.71833341 0 900.50426230 0 11697.10903750 0 -1125.68994306 0 4857.93317212 0 5220
0.06850000 0.06852730 30443.45011939 0 401.32608861 0 13145.50844697 0 -638.29616613 0 1289.27400685 0 5029
0.06950000 0.06949320 29517.88973406 0 525.11161039 0 13891.94600159 0 -356.41894129 0 1732.74442563 0 5040
0.07050000 0.07048030 29060.04512404 0 564.84804170 0 14864.97670986 0 -216.26170369 0 3451.66921986 0 5475
0.07150000 0.07148790 28944.58576381 0 -26.46625781 0 13999.30878805 0 1725.47969163 0 2842.79578100 0 5509
0.07250000 0.07249820 29307.04608007 0 -546.35347079 0 12404.06193098 0 3301.25040685 0 2668.95236003 0 5916
0.07350000 0.07351270 28489.84668893 0 339.22980426 0 11431.91851847 0 1166.99356050 0 2415.55178335 0 5721
0.07450000 0.07449140 28469.10615064 0 1047.41492972 0 11615.81056387 0 -396.05887918 0 5314.26937936 0 6028
0.07550000 0.07549160 26977.78380898 0 659.89072659 0 11412.39801184 0 -189.99996756 0 4149.92661493 0 6183
0.07650000 0.07648840 26893.82344808 0 -223.27577664 0 9859.05369685 0 1952.26139563 0 4299.01448431 0 6330
0.07750000 0.07749960 26705.71674784 0 -207.33218103 0 9977.10839717 0 812.37139311 0 2709.15794897 0 6583
0.07850000 0.07848650 26226.35521574 0 663.67947947 0 7043.59771633 0 425.14221582 0 2955.12742369 0 6549
0.07950000 0.07947320 25936.43132751 0 200.20830523 0 9206.09275011 0 204.89433594 0 3060.40506512 0 6828
0.08050000 0.08048110 25198.64490651 0 341.87394561 0 7387.51355130 0 88.25709060 0 887.26248227 0 7147
0.08150000 0.08149960 25038.04437470 0 232.21084491 0 7357.67823151 0 256.78006439 0 1950.06533863 0 7386
0.08250000 0.08250610 24664.38194952 0 351.86045934 0 7689.59339138 0 336.85185163 0 1939.27360400 0 7227
0.08350000 0.08350160 24458.08568628 0 182.73745180 0 6058.64397135 0 502.70406520 0 1012.63737257 0 7798
0.08450000 0.08449610 24021.09252652 0 69.57541119 0 7049.56478029 0 8.90089628 0 1755.21519065 0 7371
0.08550000 0.08548940 23957.31814407 0 457.83906442 0 7007.91733575 0 388.43589952 0 -329.66697425 0 8256
0.08650000 0.08650700 22675.50851276 0 1319.32005938 0 7529.20359232 0 -1485.31091291 0 1902.88338682 0 8037
0.08750000 0.08749060 21720.33463158 0 757.32245530 0 8687.15782730 0 -593.25148797 0 2133.68010411 0 8155
0.08850000 0.08849210 21263.26640535 0 -65.53233717 0 8748.96906789 0 1400.29688830 0 1143.59113494 0 8718
0.08950000 0.08949900 21048.76265637 0 53.05950982 0 8752.45170374 0 740.20762929 0 1655.42769170 0 8571
0.09050000 0.09049190 20814.62748879 0 336.64888273 0 8484.46620307 0 325.13954766 0 2112.21863802 0 8932
0.09150000 0.09150830 20501.07935106 0 211.45810630 0 7276.85667935 0 -142.73815913 0 2250.74768790 0 9285
0.09250000 0.09250820 20396.15662793 0 131.70574552 0 8028.45164055 0 171.64514573 0 1269.65367945 0 9204
0.09350000 0.09350330 20101.57443699 0 61.83175931 0 7595.07421099 0 218.60527361 0 957.73262032 0 9349
0.09450000 0.09448040 19826.40184070 0 101.33693916 0 7290.70958434 0 806.00504607 0 352.70671767 0 9564
0.09550000 0.09549270 19932.87733141 0 435.66776172 0 6988.95138897 0 44.88141575 0 1219.18873334 0 10155
0.09650000 0.09649430 18911.71082838 0 642.84577512 0 7046.74761627 0 -735.91755431 0 -212.46518698 0 9913
0.09750000 0.09749140 18115.25197553 0 631.24660135 0 7914.37867993 0 -135.72630441 0 591.80519588 0 10476
0.09850000 0.09850240 17663.17478792 0 280.64942934 0 8390.95632160 0 -480.33423007 0 780.88570322 0 10575
0.09950000 0.09950330 17688.12998106 0 -190.82404349 0 7214.83470602 0 1306.68718606 0 254.60397154 0 10882
0.10050000 0.10051200 17824.44079155 0 -267.41208578 0 7283.61121829 0 1262.28912468 0 340.23466670 0 10875
0.10150000 0.10150300 17894.64806823 0 -3.96119881 0 6058.63288015 0 -65.05330837 0 469.48593034 0 11118
0.10250000 0.10250800 17934.24364134 0 293.03718721 0 6669.42509609 0 415.58825877 0 1629.76266197 0 11575
0.10350000 0.10349800 17057.15178667 0 513.40596113 0 7172.24450973 0 -543.82356877 0 433.46394089 0 11364
0.10450000 0.10450100 16863.05584008 0 440.06542131 0 6395.78308498 0 -132.41114565 0 1012.33236465 0 12093
0.10550000 0.10551000 16429.83368728 0 245.13874407 0 7210.60895998 0 521.15759868 0 1355.47736144 0 12067
0.10650000 0.10649700 15870.61553715 0 -43.12701021 0 6145.62113781 0 1004.71493059 0 1142.83693354 0 12054
0.10750000 0.10749900 16275.77696167 0 -24.47350245 0 6691.31911886 0 907.47397047 0 1871.18474594 0 12807
0.10850000 0.10850100 15817.15596786 0 102.84988933 0 4585.04536241 0 367.39146243 0 1532.82560064 0 12736
0.10950000 0.10950300 15900.56176891 0 67.86403950 0 4790.79815700 0 637.18039172 0 2700.83955126 0 12933
0.11050000 0.11050200 15653.89354878 0 122.59543635 0 4694.28256115 0 128.24972855 0 1654.18547765 0 13428
0.11150000 0.11150900 15480.87087639 0 206.48259535 0 3764.24133226 0 301.58628182 0 2440.35169973 0 13453
0.11250000 0.11250000 14954.14993332 0 279.74549679 0 4355.71268311 0 -220.15915030 0 1349.46593269 0 13668
0.11350000 0.11349100 14841.46337233 0 160.02600781 0 4375.98739113 0 -102.09457882 0 1974.68779586 0 13791
0.11450000 0.11448600 14606.55182096 0 65.76003944 0 4243.44758760 0 467.71577531 0 938.96076948 0 14205
0.11550000 0.11549300 14462.36626063 0 196.68130460 0 4503.75797998 0 -390.82383422 0 1994.71849755 0 14776
0.11650000 0.11649800 14499.85450632 0 149.74557736 0 4230.13815126 0 303.46956706 0 989.87379995 0 14553
0.11750000 0.11747300 14098.68591270 0 134.83013570 0 4441.61400348 0 -108.36875802 0 1231.87706265 0 14568
0.11850000 0.11849100 13971.35897174 0 311.69812608 0 4845.96577062 0 -304.32691658 0 1678.28664861 0 16015
0.11950000 0.11950300 13721.14156859 0 189.69274141 0 4588.60563663 0 291.50992939 0 1124.23699626 0 15270
0.12050000 0.12050700 13673.67124565 0 -104.40232417 0 5311.82931603 0 47.40122478 0 1820.33160793 0 15999
0.12150000 0.12150000 13875.30920617 0 -87.43434561 0 4915.42993710 0 120.35168720 0 1106.75172427 0 15670
0.12250000 0.12250700 13699.40282257 0 268.58442530 0 5080.87732198 0 -436.59054931 0 1153.21829389 0 16887
0.12350000 0.12352200 13729.90361417 0 145.44552030 0 5299.82864094 0 -592.37084693 0 450.76398989 0 16407
0.12450000 0.12449800 13636.18299996 0 -22.96454511 0 5608.90702629 0 112.44366378 0 449.43748274 0 16306
0.12550000 0.12549900 13678.77319624 0 120.52360076 0 5439.47790171 0 196.71235995 0 -102.87939192 0 17523
0.12650000 0.12650100 13619.21346863 0 -23.68059278 0 5126.09613194 0 185.13093210 0 -148.31259471 0 17154
0.12750000 0.12750600 13507.52511536 0 -20.91500282 0 4772.53095562 0 665.64594869 0 26.68431074 0 18007
0.12850000 0.12850300 13471.58963725 0 137.67613684 0 4719.58158139 0 429.77833615 0 74.51897950 0 17496
0.12950000 0.12949900 13181.77666099 0 163.69386664 0 3577.82049395 0 480.94091855 0 216.04764359 0 18405
0.13050000 0.13049000 12910.70780758 0 123.49271418 0 4057.24857324 0 583.42468747 0 542.00461247 0 18100
0.13150000 0.13148800 12842.60785832 0 229.55783060 0 2907.61273596 0 177.86508898 0 537.39954749 0 19059
0.13250000 0.13249300 12173.58685840 0 254.20579757 0 3279.16783373 0 36.42016342 0 744.35573695 0 18957
0.13350000 0.13349100 12122.23461653 0 122.24162716 0 3159.32745070 0 356.03629500 0 1114.80947886 0 19468
0.13450000 0.13450700 11828.53972134 0 -15.88891601 0 2186.21910405 0 671.22371163 0 1054.83494048 0 19953
0.13550000 0.13551000 11983.26191877 0 -70.47967648 0 2184.57760691 0 668.90232411 0 1355.77682375 0 19956
0.13650000 0.13649900 11884.77208987 0 162.52263624 0 1373.27873254 0 -166.93471439 0 1086.80753392 0 19723
0.13750000 0.13749600 11679.25221042 0 271.40602580 0 2284.49820021 0 -221.28379767 0 829.70249746 0 20946
0.13850000 0.13851100 11215.08561813 0 324.11028458 0 2417.20437170 0 -342.75236841 0 1169.40035024 0 20955
0.13950000 0.13949800 10989.59049298 0 199.04151131 0 2506.97651980 0 -651.31168575 0 812.60098089 0 20506
0.14050000 0.14048300 10767.97728676 0 168.36215143 0 3083.85185547 0 182.64650398 0 784.22637174 0 21447
0.14150000 0.14148400 10619.47725082 0 108.19506988 0 3164.79541080 0 -9.09444876 0 812.36695663 0 21771
0.14250000 0.14249400 10741.25859331 0 40.63382005 0 3033.23163260 0 112.82409184 0 760.89936632 0 22470
0.14350000 0.14350900 10535.23961000 0 55.19900171 0 2985.72803607 0 74.50411729 0 1213.66531726 0 22519
0.14450000 0.14449900 10503.52987792 0 147.98762264 0 3210.20277110 0 -76.55987065 0 712.41974446 0 22218
0.14550000 0.14550500 10408.87760316 0 38.30100860 0 2930.47169287 0 198.09099573 0 1118.49175624 0 23559
0.14650000 0.14650700 10450.56941249 0 -2.06312900 0 3100.18918857 0 119.72947106 0 879.32894909 0 23044
0.14750000 0.14750500 10213.02924745 0 45.67842916 0 2676.39455318 0 219.22970800 0 1190.12979733 0 23649
0.14850000 0.14849900 10338.51504973 0 37.28461131 0 2825.88170565 0 287.56811799 0 680.81870611 0 23640
0.14950000 0.14949500 10076.87371372 0 108.12597172 0 2385.40591005 0 21.82858471 0 1151.57679674 0 24457
0.15050000 0.15050000 10157.97254580 0 116.45202236 0 2673.31120043 0 -89.30221408 0 1258.29629378 0 24591
0.15150000 0.15149900 10002.77342691 0 62.26365052 0 2560.65791303 0 40.81704663 0 1298.94553059 0 25020
0.15250000 0.15250500 9756.60431064 0 115.33070235 0 2784.83318574 0 139.36421701 0 1053.76685821 0 25297
0.15350000 0.15350100 9781.40422702 0 88.40981638 0 2587.80916316 0 15.10554477 0 1377.58211695 0 25452
0.15450000 0.15450400 9689.42493072 0 79.43115971 0 2588.88500926 0 -79.34808665 0 925.02135316 0 26061
0.15550000 0.15549900 9565.39207525 0 188.21428485 0 3209.83676160 0 -119.09394547 0 1250.01116966 0 26128
0.15650000 0.15649500 9239.72125926 0 304.89367675 0 2859.75422113 0 -208.75850896 0 857.86859211 0 26331
0.15750000 0.15749700 9142.91729230 0 82.39073471 0 3458.88958908 0 -153.06849996 0 996.96772952 0 27345
0.15850000 0.15849900 9091.95324232 0 -83.15159082 0 3181.41002383 0 309.90246129 0 770.47661488 0 26980
0.15950000 0.15949700 9162.51543731 0 50.72181824 0 3120.25316385 0 156.52008045 0 1016.14219081 0 27777
0.16050000 0.16050000 8950.48502525 0 170.00808506 0 2914.89965236 0 5.50608054 0 976.56769097 0 28224
0.16150000 0.16150500 8877.66022608 0 174.53440254 0 3156.57683386 0 -15.46778326 0 1203.82742556 0 28075
0.16250000 0.16249700 8762.72215211 0 -37.95274501 0 2956.01471944 0 261.02244722 0 1114.34364858 0 28590
0.16350000 0.16349900 8686.96927695 0 -10.83192913 0 3036.13752620 0 541.82604419 0 1350.88560590 0 29163
0.16450000 0.16449100 8760.72573666 0 135.67639403 0 2488.50967688 0 -87.90328141 0 997.48568842 0 28996
0.16550000 0.16550500 8471.27876990 0 168.16250989 0 2928.41982144 0 -351.51108664 0 1030.35334146 0 30777
0.16650000 0.16650700 8350.57327351 0 159.67552598 0 2766.90981148 0 -127.50883660 0 789.74313310 0 29211
0.16750000 0.16749900 8155.03547132 0 -23.71175904 0 3006.41311838 0 -89.10357075 0 899.87095496 0 30922
0.16850000 0.16850800 8332.52789608 0 4.56942896 0 2710.25597746 0 378.40502100 0 -58.93673508 0 30867
0.16950000 0.16949900 8360.81044830 0 25.32941012 0 2624.42120428 0 -138.58561499 0 222.92196746 0 30852
0.17050000 0.17049200 8120.88567591 0 153.54985791 0 2775.84931622 0 -260.45679617 0 -383.49698952 0 31257
0.17150000 0.17149500 8133.99547071 0 53.67850952 0 2518.31172308 0 -0.49474946 0 -296.42998436 0 32608
0.17250000 0.17250900 8073.65935931 0 -10.25573036 0 2673.82139549 0 53.85851964 0 -702.73047480 0 32361
0.17350000 0.17350400 8120.03165375 0 17.86692008 0 2317.93815901 0 199.44079440 0 -598.45658669 0 32508
0.17450000 0.17449800 8019.74505094 0 30.22861363 0 2455.50227476 0 339.17656651 0 -463.48892015 0 32791
0.17550000 0.17549800 8035.12854111 0 -46.68695170 0 1810.69335778 0 383.48811656 0 -260.87604342 0 33633
0.17650000 0.17650100 8166.84759607 0 -78.39002905 0 1867.75756608 0 509.14915975 0 86.67981148 0 33984
0.17750000 0.17750300 8073.14916425 0 107.60623823 0 1756.91214378 0 -229.56781267 0 135.14512569 0 34069
0.17850000 0.17849800 7969.30228722 0 207.25343353 0 1563.79222252 0 -152.81118419 0 368.43070759 0 34536
