### header ###
fiducial parameters:
Omega_m = 0.31
Omega_nu = 0
Omega_de = 0.69
Omega_k = 0
H_0 = 100
w_de = -1
zeff = 0
beta = 0
fgrowth = 0
b_1 = 2
gamma = 0.55
Lx = 3500 Ly = 3500 Lz = 3500
nx = 700 ny = 700 nz = 700
xoffset = 1379.75464 yoffset = 22.6059522 zoffset = 368.141391
bins = 400 dk = 0.001
kx_ny = 0.628318531 ky_ny = 0.628318531 kz_ny = 0.628318531
############################
A(data) = 3.35054404 (not used)
A(ran) = 3.34904452 (used)
Ngal = 188168
weighted Ngal = 0
Nran = 9399747
weighted Nran = 0
SN(data) = 6683.06398
SN(ran) = 133.209528
SN(data+ran) = 6816.27351
############################
13 columns: k_central k_mean P_0(k) sigma^{lin}_{P_0(k)} P^img_1(k) sigma^{lin}_{P_1(k)} P_2(k) sigma^{lin}_{P_2(k)} P^img_3(k) sigma^{lin}_{P_3(k)} P_4(k) sigma^{lin}_{P_4(k)} N_modes
### header ###
0.00050000 0 0 0 0 0 0 0 0 0 0 0 0
0.00150000 0.00179520 16219.10094526 0 -4751.64623177 0 -10713.46405376 0 15475.99074973 0 -45562.19341542 0 3
0.00250000 0.00253879 31735.46365189 0 -4048.64180440 0 -1422.19091108 0 -17337.09359764 0 52363.09356013 0 6
0.00350000 0.00331552 27453.04159821 0 -659.56242716 0 -14824.05019312 0 -987.87405714 0 -8345.52677890 0 7
0.00450000 0.00420575 27922.86470094 0 -4420.80691800 0 -16378.14870950 0 -1828.01780742 0 13635.51752814 0 24
0.00550000 0.00557378 40093.01328828 0 -12251.22523704 0 -35936.91996784 0 1422.37946143 0 -475.94100696 0 45
0.00650000 0.00659388 56609.35831176 0 -16723.19584656 0 -40667.42637823 0 -9848.66124531 0 -29491.04903745 0 40
0.00750000 0.00754703 60289.97201903 0 -939.14931983 0 -42080.99942928 0 -24023.64350182 0 -20870.74894535 0 57
0.00850000 0.00846663 69843.48542235 0 3075.50018417 0 -32947.62056636 0 -40786.87856936 0 -29822.34309029 0 75
0.00950000 0.00948925 52079.26983023 0 6489.29296645 0 1000.27845181 0 -34683.50380073 0 -24490.36106940 0 112
0.01050000 0.01054430 56498.44634228 0 8609.61926944 0 7552.69474745 0 -16232.52129357 0 -42237.05257034 0 105
0.01150000 0.01145670 45257.29641131 0 -1546.40122570 0 18798.69153148 0 -6157.05616187 0 -35197.02621943 0 144
0.01250000 0.01249090 46957.90963938 0 506.37525139 0 19209.84220235 0 7038.27394180 0 -34920.07903163 0 169
0.01350000 0.01339930 52864.19383825 0 -2306.32567581 0 16195.25487183 0 7428.76171275 0 -5080.03439101 0 180
0.01450000 0.01448870 60612.39311431 0 -7626.96140222 0 6145.02221318 0 9199.43803195 0 -13474.58426043 0 267
0.01550000 0.01550050 63583.39204083 0 -6130.85875468 0 4535.67844479 0 10816.77855333 0 -13981.11922505 0 238
0.01650000 0.01653350 71860.75232329 0 2028.75738098 0 2634.41437273 0 -3202.07292374 0 7115.87904684 0 315
0.01750000 0.01747870 68475.71901469 0 -1007.97685161 0 10943.36238410 0 1792.02687332 0 14752.84470871 0 297
0.01850000 0.01844180 73898.53793859 0 -2728.61190841 0 8297.61280809 0 3079.47083267 0 11902.62891695 0 388
0.01950000 0.01947590 75059.34261119 0 -926.99891357 0 11947.21552869 0 -2581.55372808 0 6068.32658628 0 399
0.02050000 0.02045430 79473.86082052 0 5335.43138314 0 33988.52939995 0 -7815.24556161 0 16222.76104026 0 462
0.02150000 0.02154770 69378.32062234 0 7382.99943414 0 38951.72912231 0 -14829.37396765 0 10192.84326901 0 571
0.02250000 0.02255340 67173.05793312 0 3213.80741011 0 54125.81749111 0 1489.21501424 0 18442.10954960 0 510
0.02350000 0.02348930 66726.96999187 0 -1449.23124924 0 53065.94271074 0 10704.79073774 0 12857.24823829 0 555
0.02450000 0.02439640 69108.80453650 0 -2024.23217263 0 60517.67429237 0 13553.55358270 0 371.94772614 0 592
0.02550000 0.02547300 70292.90072269 0 -392.90232453 0 41169.30304014 0 7827.96716451 0 8844.07608172 0 837
0.02650000 0.02652900 68022.08905951 0 1290.23894099 0 36823.32842795 0 1119.00195130 0 -5472.88458692 0 723
0.02750000 0.02749970 66494.60941580 0 1740.15334519 0 33219.79853947 0 -4667.88551242 0 5552.27537467 0 826
0.02850000 0.02848090 63942.19226211 0 1703.72985441 0 35748.92417957 0 9062.76121195 0 -8520.30186041 0 831
0.02950000 0.02946900 61941.78398053 0 2440.66225324 0 18745.78652204 0 5867.99738700 0 -1793.91237680 0 996
0.03050000 0.03053250 56425.13353045 0 1664.87739150 0 18264.53948646 0 8544.21448103 0 940.00777847 0 1041
0.03150000 0.03150510 53737.07103808 0 1608.71157016 0 14487.09962983 0 4533.23838147 0 1232.14325137 0 1036
0.03250000 0.03246190 50384.64584851 0 1316.15906825 0 9288.82198815 0 8103.57231748 0 12032.83956913 0 1059
0.03350000 0.03345080 49174.15261358 0 898.55221164 0 7950.15888129 0 2905.42777016 0 5281.98290505 0 1302
0.03450000 0.03451200 48360.05875758 0 976.89599040 0 6940.13903120 0 -3071.58499164 0 7873.09724489 0 1339
0.03550000 0.03553350 45574.39373206 0 2297.13107354 0 9844.65732321 0 -4552.79216169 0 3114.90720692 0 1365
0.03650000 0.03647120 45004.63894483 0 1628.99736938 0 16616.27670798 0 -5527.43109351 0 1691.14134588 0 1308
0.03750000 0.03744890 44393.62490496 0 368.73238814 0 16222.76104026 0 -1775.81154338 0 -3096.91728547 0 1579
0.03850000 0.03847530 44005.65483571 0 1011.11011475 0 18779.61467273 0 -2177.27959931 0 -7847.38785037 0 1662
0.03950000 0.03950240 42133.90443872 0 1172.97171565 0 19958.71982030 0 -3911.70988688 0 -10038.97509374 0 1683
0.04050000 0.04050350 42087.32141154 0 564.93233480 0 22624.48900680 0 122.89157131 0 -10327.45712637 0 1822
0.04150000 0.04152450 42465.64213945 0 577.90127139 0 24695.88094885 0 1516.90973302 0 -8022.24057026 0 1887
0.04250000 0.04250150 40866.73518739 0 256.02586299 0 19028.83386816 0 3261.26664185 0 -13088.16695875 0 1920
0.04350000 0.04349210 40778.56017165 0 216.08424454 0 20780.35569022 0 733.06489845 0 -5321.67829892 0 2005
0.04450000 0.04448520 40668.09185005 0 270.87586659 0 18196.77227310 0 311.89111290 0 -8721.35198749 0 2151
0.04550000 0.04548030 40288.21835457 0 -479.54120949 0 21666.43141441 0 3746.87251784 0 -2085.20048225 0 2274
0.04650000 0.04648670 41767.89493943 0 -492.08535324 0 17654.85639021 0 87.48980159 0 -1552.03555375 0 2311
0.04750000 0.04749250 41204.79487037 0 321.13673468 0 16323.24728461 0 4052.15771384 0 -1469.36177170 0 2568
0.04850000 0.04851840 42934.57794642 0 554.39680682 0 19936.42651443 0 81.44277010 0 2158.20274056 0 2493
0.04950000 0.04949480 40281.23090049 0 241.86795009 0 16506.69568213 0 1583.20181718 0 -2848.15282912 0 2644
0.05050000 0.05050630 41099.98305921 0 784.19975286 0 19803.33215105 0 412.27310000 0 4570.71553595 0 2829
0.05150000 0.05149060 39848.45239557 0 403.81606233 0 17273.20830322 0 -2339.72126982 0 269.07132884 0 2784
0.05250000 0.05249300 39392.49328903 0 442.98795171 0 17610.71342636 0 3023.90393596 0 2307.64552824 0 3055
0.05350000 0.05348950 40297.64587198 0 -410.21790121 0 17091.31267327 0 840.74045667 0 -1129.39440284 0 3009
0.05450000 0.05448610 40021.69689191 0 -96.75350202 0 16338.88587230 0 1512.56198381 0 2838.69203813 0 3336
0.05550000 0.05550870 39190.63350458 0 897.56842247 0 14590.13684948 0 1698.04007038 0 -1231.74396828 0 3349
0.05650000 0.05647670 37470.49976988 0 1545.34756199 0 13654.48347493 0 -1581.37176968 0 21.75948656 0 3324
0.05750000 0.05747970 35863.16350814 0 1087.46302366 0 16534.09093859 0 1520.32582168 0 2722.61157086 0 3639
0.05850000 0.05849280 35594.97836593 0 -37.90072730 0 13653.37435523 0 3141.07134052 0 1315.02776617 0 3846
0.05950000 0.05951020 34524.23421255 0 617.91830998 0 13140.73923228 0 2654.17888569 0 5266.67705326 0 3787
0.06050000 0.06049470 33852.66223733 0 934.18268184 0 11032.08086849 0 -1355.97646530 0 2135.55451640 0 3930
0.06150000 0.06148310 32071.97056730 0 1338.47455651 0 11656.62616864 0 -305.02566199 0 3779.10353617 0 4083
0.06250000 0.06249100 31179.57286084 0 597.89204477 0 13684.09697078 0 405.71931173 0 3574.55968205 0 4303
0.06350000 0.06350600 30100.39939778 0 45.26262019 0 11859.81689673 0 616.44761726 0 2446.10803095 0 4470
0.06450000 0.06451750 31270.07702794 0 -355.01923224 0 11390.88108976 0 1735.38413050 0 3607.14561868 0 4479
0.06550000 0.06550280 30315.12497070 0 62.72704072 0 11141.21824646 0 -418.53075332 0 364.26041753 0 4636
0.06650000 0.06648880 31145.52288621 0 480.21999075 0 10332.84744808 0 -475.21453356 0 -646.39384902 0 4653
0.06750000 0.06749660 29760.34329935 0 265.13949953 0 12328.08723189 0 -664.68101455 0 -684.14495608 0 5220
0.06850000 0.06852730 30148.31336860 0 561.61495779 0 12904.82947320 0 -2225.64830921 0 -1154.87088223 0 5029
0.06950000 0.06949320 29538.51936038 0 615.52704792 0 13322.63486224 0 -33.90856187 0 -4030.86261570 0 5040
0.07050000 0.07048030 28729.97110286 0 531.92936916 0 14710.58724834 0 -885.89493768 0 -3563.54612348 0 5475
0.07150000 0.07148790 29086.33126081 0 -183.56152773 0 13256.75315236 0 819.13036853 0 -4833.57690363 0 5509
0.07250000 0.07249820 29096.09151412 0 -381.52053822 0 14135.06503869 0 1917.37958123 0 -2337.53630402 0 5916
0.07350000 0.07351270 29317.58271718 0 -87.30047486 0 11280.74550407 0 604.83846142 0 -3937.45255500 0 5721
0.07450000 0.07449140 28852.63974111 0 616.88571954 0 11636.88383808 0 1515.73406614 0 -2711.73110666 0 6028
0.07550000 0.07549160 27805.40892526 0 397.89225404 0 9986.18099627 0 1061.39316523 0 -1762.92357253 0 6183
0.07650000 0.07648840 27752.39300384 0 281.33042883 0 10005.00275749 0 2075.35149936 0 813.87646854 0 6330
0.07750000 0.07749960 26968.46720354 0 -233.85234205 0 6912.22248848 0 2943.81440280 0 739.04527185 0 6583
0.07850000 0.07848650 27059.85866640 0 179.04075586 0 6001.01411200 0 2426.24369721 0 2401.46596323 0 6549
0.07950000 0.07947320 26316.74847086 0 307.78293355 0 3859.23743412 0 439.08163215 0 3284.24760193 0 6828
0.08050000 0.08048110 25125.22118272 0 687.02090344 0 3018.59125263 0 350.47184149 0 2216.13206222 0 7147
0.08150000 0.08149960 24254.78404622 0 921.36458552 0 4089.74578029 0 -79.86538007 0 3886.02267475 0 7386
0.08250000 0.08250610 23681.92372384 0 399.28419926 0 3554.39588600 0 -282.60480736 0 2603.46993325 0 7227
0.08350000 0.08350160 22607.85221138 0 467.17452490 0 3542.35084611 0 323.69880117 0 2164.70218198 0 7798
0.08450000 0.08449610 22083.90406754 0 530.54740602 0 3734.63892760 0 -462.30327120 0 2222.09912618 0 7371
0.08550000 0.08548940 21441.28011636 0 325.06190928 0 3373.74247010 0 -140.71845216 0 619.42782188 0 8256
0.08650000 0.08650700 21360.64711455 0 138.55788700 0 4688.07149086 0 -353.60288639 0 2933.14467134 0 8037
0.08750000 0.08749060 21399.68812781 0 23.07578981 0 3858.63850948 0 677.67102442 0 1176.60962825 0 8155
0.08850000 0.08849210 21345.78491064 0 50.65870933 0 5020.58557537 0 -5.94025654 0 2017.33344812 0 8718
0.08950000 0.08949900 21233.87473343 0 202.70826102 0 3265.64766465 0 382.73835165 0 2282.93434144 0 8571
0.09050000 0.09049190 20854.22306190 0 405.43537708 0 5382.76861171 0 121.29554807 0 4107.15895950 0 8932
0.09150000 0.09150830 20663.78721029 0 293.02942337 0 4475.47542776 0 -162.57032839 0 2642.81040882 0 9285
0.09250000 0.09250820 19989.22061190 0 637.84586353 0 6124.19294531 0 -305.54473001 0 3621.91909302 0 9204
0.09350000 0.09350330 19438.43177145 0 594.85527504 0 5564.58660329 0 -714.35294008 0 4676.59210202 0 9349
0.09450000 0.09448040 18555.01793453 0 285.95767620 0 6953.08245804 0 -67.11050358 0 2384.28569916 0 9564
0.09550000 0.09549270 18684.89585079 0 232.40161349 0 6311.60090014 0 108.36543066 0 1800.68909813 0 10155
0.09650000 0.09649430 18004.00727014 0 272.88226412 0 7584.73721544 0 -943.72665681 0 844.60906616 0 9913
0.09750000 0.09749140 17714.41611782 0 426.64507301 0 6638.34756224 0 -508.26962783 0 318.65119744 0 10476
0.09850000 0.09850240 17202.00281882 0 225.48847044 0 7578.38195958 0 246.39981316 0 -521.12876157 0 10575
0.09950000 0.09950330 17334.54262235 0 -90.69227380 0 6672.31989849 0 582.31113130 0 -142.85683493 0 10882
0.10050000 0.10051200 17065.47018438 0 62.74645032 0 5948.14237615 0 1085.19487389 0 -1174.51339203 0 10875
0.10150000 0.10150300 16962.65478867 0 372.91044203 0 6127.35393644 0 -97.26646988 0 -131.31977187 0 11118
0.10250000 0.10250800 16297.95935557 0 689.31012649 0 6175.26790726 0 -597.68353027 0 -383.52139015 0 11575
0.10350000 0.10349800 15763.25275069 0 299.47340880 0 6713.34623600 0 -379.22576957 0 -453.97710965 0 11364
0.10450000 0.10450100 15438.28068011 0 296.75051995 0 7316.69625879 0 -255.39921037 0 -232.51585282 0 12093
0.10550000 0.10551000 15401.34699427 0 7.49590782 0 7212.06190678 0 473.66287511 0 -270.30688818 0 12067
0.10650000 0.10649700 15237.86275125 0 -120.77426181 0 6790.09731888 0 817.90811863 0 690.67545284 0 12054
0.10750000 0.10749900 15243.74108564 0 195.61765882 0 7363.62311308 0 59.28599687 0 397.41533257 0 12807
0.10850000 0.10850100 15356.42764663 0 18.03461897 0 6439.16075624 0 849.84965672 0 1572.69845367 0 12736
0.10950000 0.10950300 15383.26834325 0 -210.11274411 0 6714.28898774 0 912.06018040 0 1977.44950390 0 12933
0.11050000 0.11050200 15542.31610748 0 -53.16021788 0 5974.40633052 0 499.55527439 0 2233.17923193 0 13428
0.11150000 0.11150900 15213.46211797 0 249.59851436 0 5692.93393437 0 267.17251593 0 2323.55030467 0 13453
0.11250000 0.11250000 14999.95657672 0 455.94690622 0 5556.80058303 0 -134.55507402 0 2405.12605822 0 13668
0.11350000 0.11349100 14365.65102325 0 208.08749154 0 5641.14913582 0 153.40345411 0 2252.11190512 0 13791
0.11450000 0.11448600 14226.34558958 0 90.00816877 0 5894.43880053 0 408.64406036 0 2080.66418270 0 14205
0.11550000 0.11549300 13986.33208762 0 -48.49049123 0 4697.86501777 0 309.15380550 0 1369.96246465 0 14776
0.11650000 0.11649800 14013.39460817 0 278.67297804 0 4853.05304547 0 -83.90202120 0 1091.13420985 0 14553
0.11750000 0.11747300 13418.13006796 0 355.37193230 0 4325.20080031 0 -436.25337692 0 -65.11408813 0 14568
0.11850000 0.11849100 13310.98910544 0 186.05261057 0 4779.26331217 0 81.07997705 0 878.12666334 0 16015
0.11950000 0.11950300 12762.52941635 0 127.40901582 0 4396.27319035 0 463.98136929 0 32.48689225 0 15270
0.12050000 0.12050700 12968.38203171 0 -83.95736627 0 4221.75320637 0 646.86744313 0 1120.65453965 0 15999
0.12150000 0.12150000 12981.46964411 0 -95.27637641 0 3621.09834444 0 949.53844401 0 223.70500597 0 15670
0.12250000 0.12250700 13133.41904230 0 55.53573045 0 3488.36999056 0 109.50970945 0 1898.58000240 0 16887
0.12350000 0.12352200 12828.85477410 0 -30.25068512 0 2494.44346725 0 158.42443897 0 1114.73184048 0 16407
0.12450000 0.12449800 13094.93258889 0 33.42165832 0 3558.10034578 0 -72.38691871 0 1374.82040891 0 16306
0.12550000 0.12549900 12997.10823181 0 76.16535677 0 2955.77071311 0 -382.23813867 0 357.89739784 0 17523
0.12650000 0.12650100 12761.53120862 0 173.54174041 0 3390.27944475 0 -90.27169561 0 528.28591096 0 17154
0.12750000 0.12750600 12741.12340624 0 167.27077765 0 3368.15250684 0 -246.13695179 0 594.82643793 0 18007
0.12850000 0.12850300 12508.09735836 0 140.87151068 0 3568.33752056 0 255.76189251 0 183.82217086 0 17496
0.12950000 0.12949900 12518.41217152 0 -13.97180262 0 3532.47968083 0 358.90115117 0 485.10122652 0 18405
0.13050000 0.13049000 12360.02987910 0 27.86696507 0 3213.96268687 0 151.50131383 0 224.11538025 0 18100
0.13150000 0.13148800 12369.67922044 0 208.71636241 0 3313.50617948 0 -37.25056133 0 1156.33492023 0 19059
0.13250000 0.13249300 12287.04980318 0 -40.85453487 0 3003.21885365 0 -6.72449289 0 410.99539411 0 18957
0.13350000 0.13349100 12397.96177266 0 8.16730234 0 3113.59844568 0 263.95939617 0 626.67702821 0 19468
0.13450000 0.13450700 12221.16809331 0 175.81987226 0 3312.17523584 0 -250.56899410 0 289.29279912 0 19953
0.13550000 0.13551000 12090.62470523 0 116.91674351 0 3320.81527827 0 82.30078510 0 586.66553522 0 19956
0.13650000 0.13649900 11978.04905620 0 138.04436458 0 3321.14801418 0 22.89810884 0 411.19392654 0 19723
0.13750000 0.13749600 11864.47519945 0 105.58597671 0 3269.01938852 0 1.23409530 0 478.58403920 0 20946
0.13850000 0.13851100 11494.25104532 0 187.34140765 0 3718.45687126 0 245.80199765 0 806.11484891 0 20955
0.13950000 0.13949800 11388.99558628 0 293.40985143 0 3585.37359907 0 -135.53997231 0 1059.13277930 0 20506
0.14050000 0.14048300 10992.59620735 0 188.59027643 0 3538.52438316 0 -109.33147392 0 517.74151002 0 21447
0.14150000 0.14148400 10931.77208329 0 115.94848202 0 3763.94186994 0 35.62237362 0 319.84682847 0 21771
0.14250000 0.14249400 10683.67309875 0 72.78121076 0 3187.04435187 0 150.91791687 0 1.93885214 0 22470
0.14350000 0.14350900 10513.90014707 0 257.90027528 0 3420.36986207 0 -71.51825616 0 -333.93043036 0 22519
0.14450000 0.14449900 10200.75129243 0 196.40069732 0 3155.82263247 0 -190.90279099 0 -42.93091785 0 22218
0.14550000 0.14550500 10029.69176190 0 41.66008851 0 3092.88008978 0 336.73095759 0 -763.40486771 0 23559
0.14650000 0.14650700 10100.35377766 0 2.82527169 0 2694.62848096 0 93.20121346 0 -819.83133218 0 23044
0.14750000 0.14750500 9988.01104377 0 -48.78307701 0 2298.08491647 0 548.43417934 0 -50.66070574 0 23649
0.14850000 0.14849900 9957.68771131 0 28.23164362 0 2276.46817362 0 459.11787943 0 -241.89789632 0 23640
0.14950000 0.14949500 10009.40596268 0 -21.05441917 0 1821.76237234 0 266.77766932 0 652.07143274 0 24457
0.15050000 0.15050000 9981.24541363 0 80.69777440 0 1945.12975599 0 205.39676716 0 224.82854422 0 24591
0.15150000 0.15149900 9763.03720487 0 277.73799014 0 1994.70740635 0 -236.73383502 0 1066.50731615 0 25020
0.15250000 0.15250500 9485.79055476 0 140.99795032 0 2438.44401385 0 -307.22060987 0 983.50301643 0 25297
0.15350000 0.15350100 9451.62966815 0 171.21369817 0 2703.95617760 0 -132.99010613 0 932.15632015 0 25452
0.15450000 0.15450400 9333.05368158 0 33.99285497 0 2796.02420347 0 -70.53601976 0 467.49506049 0 26061
0.15550000 0.15549900 9249.08222949 0 76.94229512 0 2821.25667652 0 -108.22601432 0 1021.99390632 0 26128
0.15650000 0.15649500 9357.68723000 0 13.96170963 0 3172.63688704 0 65.28467074 0 513.80080775 0 26331
0.15750000 0.15749700 9327.80754542 0 20.05632235 0 2984.03108293 0 133.80419998 0 313.31411347 0 27345
0.15850000 0.15849900 9191.25272860 0 157.99520965 0 3021.44169024 0 -394.57820439 0 474.53686143 0 26980
0.15950000 0.15949700 9082.49245132 0 136.86758858 0 3123.99089722 0 0.64963470 0 355.69024965 0 27777
0.16050000 0.16050000 8898.30094360 0 173.72141780 0 3423.77485954 0 -82.07086459 0 509.54733372 0 28224
0.16150000 0.16150500 8775.80976451 0 40.96433772 0 3204.39098390 0 264.20783898 0 115.11331489 0 28075
0.16250000 0.16249700 8741.44923636 0 58.58170587 0 3106.99918350 0 356.22928182 0 347.16999216 0 28590
0.16350000 0.16349900 8616.44035556 0 33.44761172 0 2785.14373926 0 150.33784727 0 983.64387463 0 29163
0.16450000 0.16449100 8624.49256454 0 43.47871207 0 2714.93646258 0 297.25295117 0 592.12573147 0 28996
0.16550000 0.16550500 8462.63872748 0 31.37366881 0 2788.44891595 0 52.55508218 0 880.00440298 0 30777
0.16650000 0.16650700 8421.16874209 0 183.75895104 0 2377.48679543 0 -293.64720304 0 73.28852211 0 29211
0.16750000 0.16749900 8338.57259842 0 86.34474642 0 2644.26335562 0 -140.83158237 0 315.73088529 0 30922
0.16850000 0.16850800 8125.81016736 0 -4.16312514 0 2295.40084681 0 102.79465517 0 -453.33825670 0 30867
0.16950000 0.16949900 8198.59060173 0 66.39001943 0 2629.94462036 0 91.27633623 0 -11.85327309 0 30852
0.17050000 0.17049200 8120.15365691 0 86.18015306 0 1883.85089285 0 151.63662644 0 -623.23653891 0 31257
0.17150000 0.17149500 8059.96173108 0 -21.48830679 0 2103.93351390 0 185.76867593 0 -756.00703934 0 32608
0.17250000 0.17250900 7878.21028669 0 169.35259532 0 2032.70584709 0 -248.12782165 0 -885.52116435 0 32361
0.17350000 0.17350400 7891.02061916 0 167.72329849 0 1914.26295488 0 -93.56711205 0 -902.49180480 0 32508
0.17450000 0.17449800 7574.72186459 0 32.94939516 0 2093.20832645 0 118.91094072 0 -727.19876439 0 32791
0.17550000 0.17549800 7686.49894744 0 -28.18417330 0 1631.41525031 0 202.93008496 0 -803.23446507 0 33633
0.17650000 0.17650100 7663.88399686 0 -37.56200214 0 1907.00931208 0 330.65298166 0 -668.62504419 0 33984
0.17750000 0.17750300 7790.96693149 0 116.17696067 0 1674.62655362 0 -5.79963125 0 -573.86629394 0 34069
0.17850000 0.17849800 7573.01382026 0 -2.10480972 0 1627.68860814 0 87.05380664 0 -61.46497342 0 34536
