### header ###
fiducial parameters:
Omega_m = 0.31
Omega_nu = 0
Omega_de = 0.69
Omega_k = 0
H_0 = 100
w_de = -1
zeff = 0
beta = 0
fgrowth = 0
b_1 = 2
gamma = 0.55
Lx = 3500 Ly = 3500 Lz = 3500
nx = 700 ny = 700 nz = 700
xoffset = 1379.75464 yoffset = 22.6059522 zoffset = 368.141391
bins = 400 dk = 0.001
kx_ny = 0.628318531 ky_ny = 0.628318531 kz_ny = 0.628318531
############################
A(data) = 3.30900777 (not used)
A(ran) = 3.31043781 (used)
Ngal = 186031
weighted Ngal = 0
Nran = 9399747
weighted Nran = 0
SN(data) = 6643.03826
SN(ran) = 131.673931
SN(data+ran) = 6774.71219
############################
13 columns: k_central k_mean P_0(k) sigma^{lin}_{P_0(k)} P^img_1(k) sigma^{lin}_{P_1(k)} P_2(k) sigma^{lin}_{P_2(k)} P^img_3(k) sigma^{lin}_{P_3(k)} P_4(k) sigma^{lin}_{P_4(k)} N_modes
### header ###
0.00050000 0 0 0 0 0 0 0 0 0 0 0 0
0.00150000 0.00179520 12696.86953042 0 -14932.18936336 0 -16960.65837322 0 8175.13272019 0 13068.09189227 0 3
0.00250000 0.00253879 27888.92563828 0 -19325.74521046 0 -21545.20463177 0 -15935.27721536 0 6945.72899446 0 6
0.00350000 0.00331552 33768.92370038 0 -10935.99782933 0 -29242.38440187 0 -11838.29997465 0 -5606.94388443 0 7
0.00450000 0.00420575 48497.58959974 0 -11289.61846163 0 -40813.16470613 0 -13615.66428561 0 1060.75431229 0 24
0.00550000 0.00557378 55344.51821178 0 -11812.90113364 0 -44906.92549972 0 -6617.50720317 0 146.21968585 0 45
0.00650000 0.00659388 72875.81866799 0 -4819.29144196 0 -63872.76136921 0 -16883.35273049 0 -11211.86917102 0 40
0.00750000 0.00754703 74874.34144609 0 -8622.14123079 0 -57248.43307992 0 -13334.72426691 0 -13599.69296200 0 57
0.00850000 0.00846663 66236.73908675 0 -882.32135403 0 -49999.78131440 0 -24745.45859921 0 -13020.06700949 0 75
0.00950000 0.00948925 67924.26470243 0 6721.19880344 0 -37459.40857293 0 -41734.17770071 0 -24002.68113959 0 112
0.01050000 0.01054430 58056.09404168 0 5730.10053534 0 -18202.65060748 0 -31336.73512160 0 -26594.80477836 0 105
0.01150000 0.01145670 56867.33955277 0 6331.72033141 0 -1550.98189004 0 -33956.80857668 0 -44286.81667834 0 144
0.01250000 0.01249090 57148.94504329 0 712.47852780 0 10762.15440836 0 -11262.22320516 0 -38792.79227004 0 169
0.01350000 0.01339930 51109.45556907 0 -1200.40024571 0 25842.04524148 0 -5821.75818693 0 -42803.92364637 0 180
0.01450000 0.01448870 59751.49440719 0 -823.33504130 0 22665.30461157 0 1283.71731718 0 -37283.50218933 0 267
0.01550000 0.01550050 68644.08338437 0 -1153.65085057 0 35232.73987360 0 7358.60989206 0 -31861.12691331 0 238
0.01650000 0.01653350 62869.11895737 0 -2332.56744779 0 18561.33991679 0 8956.03062372 0 -17323.22960146 0 315
0.01750000 0.01747870 69162.37501776 0 -2900.47000513 0 27270.48049644 0 1734.09755166 0 -6756.96791360 0 297
0.01850000 0.01844180 72774.55603985 0 -1154.85979104 0 5660.23708577 0 10118.51006706 0 1544.75972855 0 388
0.01950000 0.01947590 71822.37678185 0 -1506.28436634 0 7704.48886889 0 8515.77665206 0 -17313.91299602 0 399
0.02050000 0.02045430 75569.09402293 0 1039.17638863 0 8340.56901387 0 -11325.99758762 0 -5015.37271280 0 462
0.02150000 0.02154770 69735.23534013 0 1904.46942798 0 10029.55866754 0 -6428.91249026 0 -11974.49987318 0 571
0.02250000 0.02255340 67652.19764129 0 2243.32767714 0 8723.76986843 0 -2467.02602839 0 -21464.79345390 0 510
0.02350000 0.02348930 70499.97336971 0 -1266.22649959 0 9049.08576612 0 2586.65567867 0 -15908.76925465 0 555
0.02450000 0.02439640 69213.61634766 0 1000.33945339 0 10829.46688264 0 3422.67683104 0 -25446.97680619 0 592
0.02550000 0.02547300 67021.21944690 0 3449.40661569 0 9761.60644046 0 -2862.92630346 0 -11681.69227375 0 837
0.02650000 0.02652900 61472.84817355 0 3424.45142255 0 17159.74535844 0 -473.91131792 0 -8023.66024346 0 723
0.02750000 0.02749970 56687.10760237 0 2358.18811274 0 14123.64110584 0 -2027.64826129 0 -7000.65260175 0 826
0.02850000 0.02848090 56248.45076306 0 1265.40575102 0 18901.72875113 0 5068.81009970 0 -1402.24893897 0 831
0.02950000 0.02946900 53624.60630102 0 1818.67901958 0 19952.39783804 0 1370.82757801 0 -604.10422418 0 996
0.03050000 0.03053250 50528.05502505 0 2407.42193599 0 15339.79085121 0 844.32734976 0 -1813.86544011 0 1041
0.03150000 0.03150510 47322.25545913 0 890.76175490 0 20319.18372111 0 -2923.55078598 0 -7597.65845988 0 1036
0.03250000 0.03246190 46664.21474420 0 1840.92796066 0 20220.02842040 0 -2439.36458320 0 -7039.81561817 0 1059
0.03350000 0.03345080 45658.90865281 0 608.13587427 0 20724.56696957 0 -1580.36247076 0 -12057.12929044 0 1302
0.03450000 0.03451200 46286.89222402 0 -398.70523878 0 20640.27387276 0 -1143.77968529 0 -10017.87963715 0 1339
0.03550000 0.03553350 46481.43181849 0 689.43102054 0 18470.17027788 0 -2029.33412322 0 -17549.04637133 0 1365
0.03650000 0.03647120 47309.38967067 0 612.25958129 0 24193.33881513 0 1200.14514818 0 -11982.81827089 0 1308
0.03750000 0.03744890 46067.39743641 0 330.68403701 0 25403.83205006 0 295.81220469 0 -9595.72649891 0 1579
0.03850000 0.03847530 46230.65985549 0 -17.70842687 0 22270.01435234 0 2052.48145125 0 -5963.03785365 0 1662
0.03950000 0.03950240 46986.08127963 0 617.98707540 0 26756.07078198 0 2709.81232959 0 -4233.31023359 0 1683
0.04050000 0.04050350 46191.84066617 0 1376.69482120 0 25034.27336774 0 -267.71154810 0 -4139.96672008 0 1822
0.04150000 0.04152450 44075.64028845 0 2319.63511215 0 31547.35695165 0 -1030.76371574 0 4645.25947064 0 1887
0.04250000 0.04250150 41774.43874563 0 1554.76398820 0 27066.40247260 0 1963.49677814 0 -224.04772395 0 1920
0.04350000 0.04349210 40567.82742964 0 200.39907382 0 29942.12801733 0 5555.68037214 0 5364.85632864 0 2005
0.04450000 0.04448520 39683.52629695 0 164.71536588 0 24024.53079758 0 3655.84706448 0 2403.51783466 0 2151
0.04550000 0.04548030 38915.79364420 0 917.92964183 0 23687.58023429 0 2852.34530157 0 6199.90145568 0 2274
0.04650000 0.04648670 37599.15765447 0 975.87227293 0 20741.53650090 0 1416.37912388 0 1861.51322220 0 2311
0.04750000 0.04749250 36006.12903680 0 1307.60775541 0 20720.90687458 0 35.11639322 0 1539.24740367 0 2568
0.04850000 0.04851840 34722.21207808 0 248.92749695 0 16943.24519401 0 2345.48869223 0 2968.74741354 0 2493
0.04950000 0.04949480 33251.85209865 0 -410.69038620 0 13339.82621751 0 2619.31925369 0 -4163.66860795 0 2644
0.05050000 0.05050630 36081.77099999 0 -1025.11829650 0 12256.88174748 0 2482.40951856 0 -2195.83517181 0 2829
0.05150000 0.05149060 34350.76789228 0 -246.61054590 0 9666.00032277 0 -1025.40223114 0 -7572.37053084 0 2784
0.05250000 0.05249300 35633.02117146 0 610.78999770 0 10979.46423017 0 -2748.07695906 0 -5290.60076507 0 3055
0.05350000 0.05348950 35197.80260321 0 1158.03187336 0 11894.42143121 0 -3529.50724005 0 -11823.43777074 0 3009
0.05450000 0.05448610 34000.28606872 0 1065.78860658 0 14751.73558901 0 -2298.47310837 0 -8788.54245861 0 3336
0.05550000 0.05550870 34350.10242046 0 -76.33105925 0 15192.61066771 0 481.47884160 0 -11444.89521890 0 3349
0.05650000 0.05647670 33553.86539155 0 166.00970856 0 17146.10318620 0 945.25391463 0 -9236.34953539 0 3324
0.05750000 0.05747970 34090.67932384 0 20.18653301 0 16315.48344674 0 1674.48236806 0 -7246.38916133 0 3639
0.05850000 0.05849280 34354.09525136 0 101.33893557 0 16280.76800030 0 3044.21191758 0 -3234.24848609 0 3846
0.05950000 0.05951020 33651.13518879 0 -105.90928510 0 14046.11363917 0 3126.05385986 0 -354.21179310 0 3787
0.06050000 0.06049470 34093.00847520 0 341.18407316 0 14232.11301199 0 2170.04813890 0 1810.02788597 0 3930
0.06150000 0.06148310 32758.40474642 0 231.76830615 0 13253.64761722 0 2140.72301417 0 5807.04016857 0 4083
0.06250000 0.06249100 32858.44734290 0 647.98099931 0 11149.31482023 0 2682.38379953 0 7887.61562170 0 4303
0.06350000 0.06350600 31236.58161316 0 -167.43492737 0 9679.25430312 0 2291.17510078 0 6486.02106335 0 4470
0.06450000 0.06451750 31327.97307601 0 39.83148286 0 9097.38792883 0 1471.81292623 0 7872.15449315 0 4479
0.06550000 0.06550280 31763.96802805 0 376.23336464 0 7396.03159056 0 -270.16381174 0 6897.55992611 0 4636
0.06650000 0.06648880 30247.57958128 0 727.10005274 0 8932.50619499 0 -1060.99610038 0 5017.79059374 0 4653
0.06750000 0.06749660 30049.60171576 0 752.02086316 0 8234.13788795 0 -1502.51335938 0 3258.32747466 0 5220
0.06850000 0.06852730 28755.92450372 0 525.75379070 0 9812.85886156 0 -1415.49182812 0 2608.90461975 0 5029
0.06950000 0.06949320 28953.90236924 0 422.45925528 0 10555.58086520 0 88.47769450 0 41.14224052 0 5040
0.07050000 0.07048030 28620.61190095 0 223.45434492 0 11191.01772076 0 -991.90681635 0 361.06837105 0 5475
0.07150000 0.07148790 28289.98331992 0 421.22813242 0 11458.20465524 0 105.31446421 0 -2542.71235636 0 5509
0.07250000 0.07249820 27362.64834308 0 677.97048673 0 11664.05727060 0 -465.87907309 0 -676.61514247 0 5916
0.07350000 0.07351270 27072.72445486 0 705.27590450 0 12465.28533814 0 308.62031892 0 -780.24019555 0 5721
0.07450000 0.07449140 25995.65831921 0 713.72074186 0 12852.25719966 0 -113.13686359 0 -2933.99869350 0 6028
0.07550000 0.07549160 25104.03699655 0 531.57888733 0 13331.17508389 0 -109.25849384 0 -1036.58992150 0 6183
0.07650000 0.07648840 24178.80934713 0 816.80676277 0 11794.26792277 0 299.50890063 0 -2342.71589299 0 6330
0.07750000 0.07749960 23749.13637735 0 173.34653534 0 12234.36661768 0 1806.86689483 0 696.77672028 0 6583
0.07850000 0.07848650 23078.78443380 0 -262.43102923 0 11082.85636812 0 2180.50713763 0 -210.37005988 0 6549
0.07950000 0.07947320 23193.35649828 0 254.30229099 0 9393.19015143 0 1841.09432862 0 1259.64941980 0 6828
0.08050000 0.08048110 22921.84399698 0 179.97019816 0 8255.82117799 0 643.71976144 0 1373.03472621 0 7147
0.08150000 0.08149960 22635.13655587 0 89.00452636 0 7801.94721647 0 407.82996650 0 2275.83597540 0 7386
0.08250000 0.08250610 22627.81636589 0 296.44440291 0 8736.66893048 0 -130.48682298 0 1447.31247217 0 7227
0.08350000 0.08350160 21833.79757636 0 587.36649886 0 7847.80931585 0 -581.60129469 0 1482.13883058 0 7798
0.08450000 0.08449610 21248.18237750 0 355.47951691 0 8929.13447112 0 286.29928506 0 2216.33170377 0 7371
0.08550000 0.08548940 21206.81221288 0 301.36889436 0 9262.74658413 0 439.65837439 0 1137.85698612 0 8256
0.08650000 0.08650700 20763.27524692 0 157.92977159 0 9037.04072623 0 -134.25450258 0 1444.60622011 0 8037
0.08750000 0.08749060 20355.45193513 0 365.47712184 0 9675.96021763 0 530.74372020 0 1758.98619761 0 8155
0.08850000 0.08849210 19870.32298062 0 435.05885501 0 8703.63934597 0 -347.11120881 0 1617.50688934 0 8718
0.08950000 0.08949900 19598.14500751 0 203.46357154 0 9667.36453999 0 261.62359009 0 2599.57692312 0 8571
0.09050000 0.09049190 19493.44410832 0 -4.32526735 0 8978.06883206 0 790.08030549 0 1394.30764195 0 8932
0.09150000 0.09150830 19526.27405128 0 -304.96355129 0 7734.83438374 0 1221.72861744 0 1189.32013995 0 9285
0.09250000 0.09250820 19560.65676182 0 -86.55215180 0 6897.07191345 0 376.75465089 0 1081.49041410 0 9204
0.09350000 0.09350330 19367.11537508 0 184.60520937 0 6117.33858560 0 446.28425544 0 776.05548695 0 9349
0.09450000 0.09448040 19373.32644537 0 285.62272205 0 5709.71491535 0 82.37642706 0 -812.83500515 0 9564
0.09550000 0.09549270 18593.17165203 0 240.05453939 0 5216.40065749 0 -87.65661319 0 -731.38347300 0 10155
0.09650000 0.09649430 18556.57070210 0 4.06998127 0 4705.40703169 0 814.35006265 0 -1161.51450921 0 9913
0.09750000 0.09749140 18277.84892279 0 218.22595467 0 3983.00410086 0 704.97200570 0 -248.77222019 0 10476
0.09850000 0.09850240 17588.75285640 0 365.67787250 0 3814.31808648 0 190.46468871 0 -2362.34731159 0 10575
0.09950000 0.09950330 17293.39428167 0 380.81181074 0 3501.30232621 0 32.98300148 0 -84.56250198 0 10882
0.10050000 0.10051200 16817.36010865 0 372.32482683 0 3266.39077484 0 -38.23867607 0 -532.53162115 0 10875
0.10150000 0.10150300 16458.00532753 0 365.35511867 0 4188.63489228 0 317.46776673 0 378.68230092 0 11118
0.10250000 0.10250800 16330.34565065 0 -268.18070573 0 3107.64247292 0 579.03257348 0 528.35023990 0 11575
0.10350000 0.10349800 16370.16304770 0 2.86792843 0 3754.59199091 0 401.64107861 0 -25.74821372 0 11364
0.10450000 0.10450100 16241.39425113 0 360.69903419 0 2991.53982327 0 -213.49888654 0 933.52053738 0 12093
0.10550000 0.10551000 15751.71790587 0 421.48433907 0 3748.13691429 0 -294.48347929 0 1016.31521348 0 12067
0.10650000 0.10649700 15509.37525255 0 145.40781023 0 4338.03331518 0 201.41391834 0 1441.32322582 0 12054
0.10750000 0.10749900 14925.53464519 0 428.99418852 0 4318.69026770 0 6.64905057 0 1243.72246099 0 12807
0.10850000 0.10850100 14830.15035144 0 315.00441189 0 4122.24298735 0 -76.59669342 0 1152.78573721 0 12736
0.10950000 0.10950300 14218.47083974 0 71.57293576 0 4726.75758582 0 -98.35362900 0 1356.65302831 0 12933
0.11050000 0.11050200 14295.11101066 0 227.21315156 0 4528.74644670 0 39.93452008 0 810.98499349 0 13428
0.11150000 0.11150900 13943.63097937 0 140.28367724 0 4461.66688756 0 -240.79432222 0 819.13702325 0 13453
0.11250000 0.11250000 13991.76677412 0 -141.01680536 0 4256.14700811 0 449.88113061 0 274.43503169 0 13668
0.11350000 0.11349100 14399.47917394 0 -174.32256067 0 3251.52857093 0 566.13905703 0 101.26362634 0 13791
0.11450000 0.11448600 14154.36372138 0 140.02968883 0 3601.26728430 0 -176.94008315 0 -632.62523713 0 14205
0.11550000 0.11549300 13877.08379768 0 374.29573253 0 3652.13151350 0 -918.44316425 0 -730.39413823 0 14776
0.11650000 0.11649800 13879.30203707 0 246.31884742 0 4201.74468708 0 -41.53364886 0 -627.04747419 0 14553
0.11750000 0.11747300 13358.12669247 0 -49.35028082 0 3836.52266277 0 679.39681466 0 -1039.74314879 0 14568
0.11850000 0.11849100 13555.43908618 0 -104.90464448 0 3808.79467040 0 698.91510305 0 -430.06781639 0 16015
0.11950000 0.11950300 13544.34788923 0 -159.92951439 0 2275.34796273 0 1007.88590380 0 -51.28791293 0 15270
0.12050000 0.12050700 13799.22359510 0 -139.49509314 0 2282.05813688 0 448.45258445 0 861.52868711 0 15999
0.12150000 0.12150000 13696.96275924 0 127.17388245 0 2021.68119733 0 -82.70605744 0 431.27675685 0 15670
0.12250000 0.12250700 13666.35105566 0 255.19513234 0 2288.93467899 0 -409.01228810 0 633.30512750 0 16887
0.12350000 0.12352200 13363.22864307 0 209.10122695 0 2704.97656772 0 -524.29308006 0 597.64914755 0 16407
0.12450000 0.12449800 13030.49273462 0 219.59793574 0 3224.83205988 0 -464.41725333 0 -32.08971648 0 16306
0.12550000 0.12549900 13202.40628732 0 164.10091357 0 3801.38575084 0 -212.65595557 0 -664.62999504 0 17523
0.12650000 0.12650100 12706.18613585 0 235.58811438 0 3727.18564325 0 -541.91810113 0 -267.00725709 0 17154
0.12750000 0.12750600 12767.74227892 0 140.64303202 0 4517.76616172 0 -200.35470903 0 -653.24488138 0 18007
0.12850000 0.12850300 12314.88870752 0 176.65503939 0 4309.75076296 0 -33.23421710 0 -678.96869446 0 17496
0.12950000 0.12949900 12331.96915082 0 370.88297123 0 4969.67698138 0 -306.85681861 0 -1302.69435516 0 18405
0.13050000 0.13049000 12091.29017704 0 196.66577693 0 5068.62154935 0 -353.09269133 0 -843.73175248 0 18100
0.13150000 0.13148800 11636.88383808 0 62.66315543 0 5244.45029457 0 304.91364090 0 -299.84274566 0 19059
0.13250000 0.13249300 11868.02438248 0 -127.94028416 0 4842.13930767 0 608.59061334 0 -1016.41725249 0 18957
0.13350000 0.13349100 12067.00045573 0 -169.35481356 0 4488.41885460 0 403.46779874 0 -788.53419263 0 19468
0.13450000 0.13450700 12155.95185525 0 12.34106393 0 4341.56031581 0 165.81561262 0 -939.11604624 0 19953
0.13550000 0.13551000 12043.70894214 0 158.12275841 0 4107.34750985 0 -83.21713979 0 -834.71460937 0 19956
0.13650000 0.13649900 12073.87699784 0 -6.81693802 0 3413.40459039 0 295.57928955 0 -858.89120047 0 19723
0.13750000 0.13749600 11793.71336292 0 160.17906633 0 4126.72383092 0 -72.06693767 0 -1267.25798091 0 20946
0.13850000 0.13851100 11664.05727060 0 323.86738737 0 3671.75184091 0 -81.70851518 0 -794.37370783 0 20955
0.13950000 0.13949800 11066.64103818 0 198.02333943 0 3935.86651383 0 431.74591448 0 -895.72617466 0 20506
0.14050000 0.14048300 11137.44723950 0 25.74455362 0 3484.17751812 0 408.97568715 0 -114.49553522 0 21447
0.14150000 0.14148400 10961.69613266 0 -138.72869143 0 2911.72757003 0 828.20296764 0 -285.76136201 0 21771
0.14250000 0.14249400 11122.25229968 0 -17.41151553 0 3043.79045209 0 455.04962839 0 420.25654357 0 22470
0.14350000 0.14350900 11126.57786649 0 86.50645607 0 2228.98675949 0 101.18632070 0 531.83620310 0 22519
0.14450000 0.14449900 10986.44059305 0 151.37487419 0 2444.08943310 0 41.94524318 0 463.68523434 0 22218
0.14550000 0.14550500 10829.62215940 0 225.32764808 0 3048.75930832 0 -498.58923113 0 854.97489883 0 23559
0.14650000 0.14650700 10444.86853726 0 206.83973189 0 2959.02043382 0 -231.87921812 0 366.23021411 0 23044
0.14750000 0.14750500 10401.00285333 0 199.48515919 0 3554.57334515 0 -104.62869550 0 735.01805824 0 23649
0.14850000 0.14849900 10127.33865983 0 189.16923691 0 3637.18058002 0 -223.39777981 0 369.68068548 0 23640
0.14950000 0.14949500 10035.09317481 0 128.60242861 0 4218.75858320 0 73.09963902 0 1191.57165294 0 24457
0.15050000 0.15050000 9983.74093294 0 49.57598668 0 3736.95698776 0 431.31224868 0 1016.56809277 0 24591
0.15150000 0.15149900 10096.68259147 0 -19.64162250 0 3887.49780394 0 88.06709839 0 1223.98013042 0 25020
0.15250000 0.15250500 9674.15235253 0 203.24396584 0 3838.28616308 0 -226.84825118 0 859.08862378 0 25297
0.15350000 0.15350100 9827.09995844 0 135.44680625 0 3862.34296926 0 -83.13683952 0 805.38504816 0 25452
0.15450000 0.15450400 9529.45659714 0 20.16390696 0 3927.35956577 0 56.55002041 0 583.33484877 0 26061
0.15550000 0.15549900 9392.54686201 0 136.38733975 0 3927.17101543 0 161.84163675 0 460.95901813 0 26128
0.15650000 0.15649500 9368.05749915 0 72.87781508 0 3470.85699058 0 431.71707737 0 509.89337906 0 26331
0.15750000 0.15749700 9288.23415471 0 -64.56219017 0 3336.29858921 0 386.71010928 0 305.07446326 0 27345
0.15850000 0.15849900 9282.78837701 0 56.09184306 0 3029.13898092 0 311.80238333 0 891.44940911 0 26980
0.15950000 0.15949700 9089.90137089 0 153.21601288 0 2506.04485925 0 126.69030626 0 337.08476677 0 27777
0.16050000 0.16050000 8953.79020194 0 29.57412210 0 2558.20675850 0 -90.32770615 0 773.14072039 0 28224
0.16150000 0.16150500 8882.67344710 0 6.26506224 0 2343.28154404 0 178.26104471 0 122.56216276 0 28075
0.16250000 0.16249700 9083.18010553 0 -83.87196406 0 2103.64514278 0 155.51078153 0 -157.94529926 0 28590
0.16350000 0.16349900 9068.42881359 0 -81.01087889 0 1700.99032877 0 249.65397035 0 -4.75105840 0 29163
0.16450000 0.16449100 9072.19982056 0 93.38843286 0 1533.54652844 0 -173.85229392 0 -573.40046367 0 28996
0.16550000 0.16550500 9058.22491240 0 204.44070599 0 1727.38737750 0 -235.80106536 0 -511.41730952 0 30777
0.16650000 0.16650700 8594.63506236 0 326.63464101 0 2194.44877219 0 -500.98160231 0 -988.93326645 0 29211
0.16750000 0.16749900 8290.49225965 0 345.78581078 0 2452.99566425 0 -305.93403102 0 -531.22951463 0 30922
0.16850000 0.16850800 7942.87196489 0 106.76929651 0 2723.55432261 0 1.16247944 0 -997.83284288 0 30867
0.16950000 0.16949900 7860.32018601 0 139.23999561 0 2857.76889688 0 100.49811193 0 -802.45586304 0 30852
0.17050000 0.17049200 7733.03760983 0 48.19258168 0 2776.08223135 0 16.55849157 0 -846.00322962 0 31257
0.17150000 0.17149500 7638.36315268 0 94.83350491 0 2751.18249420 0 -41.71243895 0 -738.34098084 0 32608
0.17250000 0.17250900 7643.95311594 0 79.59342392 0 3072.80502331 0 78.26492035 0 -514.99311142 0 32361
0.17350000 0.17350400 7499.78973801 0 11.74923766 0 2707.36117506 0 -27.20470970 0 -1131.85664857 0 32508
0.17450000 0.17449800 7684.99054465 0 20.25751667 0 2844.51491652 0 -111.22585036 0 -820.88166853 0 32791
0.17550000 0.17549800 7596.15005710 0 73.77708933 0 2955.09415010 0 -86.25013851 0 -1207.70934450 0 33633
0.17650000 0.17650100 7462.91150816 0 81.36180437 0 2773.03215219 0 82.12266048 0 -805.16100598 0 33984
0.17750000 0.17750300 7575.40951880 0 -95.33504884 0 2957.64512539 0 226.63086372 0 -842.54610353 0 34069
