### header ###
fiducial parameters:
Omega_m = 0.31
Omega_nu = 0
Omega_de = 0.69
Omega_k = 0
H_0 = 100
w_de = -1
zeff = 0
beta = 0
fgrowth = 0
b_1 = 2
gamma = 0.55
Lx = 3500 Ly = 3500 Lz = 3500
nx = 700 ny = 700 nz = 700
xoffset = 1379.75464 yoffset = 22.6059522 zoffset = 368.141391
bins = 400 dk = 0.001
kx_ny = 0.628318531 ky_ny = 0.628318531 kz_ny = 0.628318531
############################
A(data) = 3.34557471 (not used)
A(ran) = 3.34376397 (used)
Ngal = 188033
weighted Ngal = 0
Nran = 9399747
weighted Nran = 0
SN(data) = 6661.9719
SN(ran) = 132.999492
SN(data+ran) = 6794.97139
############################
13 columns: k_central k_mean P_0(k) sigma^{lin}_{P_0(k)} P^img_1(k) sigma^{lin}_{P_1(k)} P_2(k) sigma^{lin}_{P_2(k)} P^img_3(k) sigma^{lin}_{P_3(k)} P_4(k) sigma^{lin}_{P_4(k)} N_modes
### header ###
0.00050000 0 0 0 0 0 0 0 0 0 0 0 0
0.00150000 0.00179520 22370.83333260 0 -17518.87831563 0 -29851.06929039 0 -233.30887340 0 -20970.79154182 0 3
0.00250000 0.00253879 42290.17940373 0 -13212.94292442 0 -15322.04493609 0 -3606.95706833 0 16256.92192686 0 6
0.00350000 0.00331552 51119.32673436 0 -10039.55183599 0 1243.77791697 0 -51263.73411862 0 8449.93930697 0 7
0.00450000 0.00420575 52209.48048240 0 1764.95326157 0 8932.43964781 0 -19498.65697088 0 21150.91258026 0 24
0.00550000 0.00557378 62591.39538578 0 -10332.33725303 0 2834.78793680 0 14685.96479111 0 12593.05592698 0 45
0.00650000 0.00659388 56200.42588028 0 -5248.38766949 0 15550.52359322 0 17611.04616227 0 -1388.67331390 0 40
0.00750000 0.00754703 86093.19807119 0 -4966.14998075 0 -15466.78505627 0 13258.74956781 0 -8151.95211856 0 57
0.00850000 0.00846663 77407.57082907 0 -740.82429984 0 14139.83425338 0 -13982.78290459 0 9296.68564679 0 75
0.00950000 0.00948925 72266.69013159 0 12247.78696598 0 13350.36285461 0 -19074.41868761 0 10587.40150924 0 112
0.01050000 0.01054430 59965.44359632 0 6274.62284952 0 11909.28363512 0 -1159.46263777 0 94.28737438 0 105
0.01150000 0.01145670 58616.97587136 0 1600.06043654 0 39402.36445432 0 2256.08255363 0 11562.90555443 0 144
0.01250000 0.01249090 59701.80584486 0 -843.58756692 0 8760.72573666 0 17131.90645410 0 -3296.03754428 0 169
0.01350000 0.01339930 61781.84892053 0 -3508.20105071 0 26771.70936968 0 14401.36467742 0 11132.34528890 0 180
0.01450000 0.01448870 61141.22138480 0 3571.13250219 0 7524.96675508 0 3489.11310076 0 15667.20298512 0 267
0.01550000 0.01550050 58260.94844932 0 5633.66257788 0 23041.85074796 0 -2284.86420971 0 13534.14398804 0 238
0.01650000 0.01653350 48866.15007433 0 5566.78266028 0 22427.06570112 0 -5381.83695117 0 22091.22425753 0 315
0.01750000 0.01747870 42347.29906801 0 7715.18078274 0 32758.18292248 0 3811.76711118 0 15565.16397320 0 297
0.01850000 0.01844180 37196.43629328 0 3458.81195070 0 33821.49597391 0 3811.01290979 0 25156.38744614 0 388
0.01950000 0.01947590 34351.98792394 0 -2554.95703780 0 29224.97122266 0 17597.07125411 0 22639.79485859 0 399
0.02050000 0.02045430 43700.97965554 0 -6895.30841313 0 25108.36256336 0 17727.39281825 0 31929.89233439 0 462
0.02150000 0.02154770 48428.60235472 0 -5837.01967393 0 4122.13207538 0 8124.01339345 0 17478.39544677 0 571
0.02250000 0.02255340 53826.35517351 0 -2090.46880080 0 7847.75385987 0 482.49923172 0 17076.89411724 0 510
0.02350000 0.02348930 57839.48296529 0 -992.24953434 0 -941.13464408 0 -12929.34101845 0 6095.82166352 0 555
0.02450000 0.02439640 57586.49276290 0 1882.77504675 0 10175.30808663 0 -5010.91405163 0 452.55410908 0 592
0.02550000 0.02547300 59006.27688424 0 -505.70867045 0 10285.41039874 0 -2708.71430109 0 475.51399588 0 837
0.02650000 0.02652900 58634.83269844 0 153.21379464 0 11193.79051999 0 -5481.64663251 0 -15579.13888135 0 723
0.02750000 0.02749970 61924.92536116 0 1045.51611680 0 18627.99801045 0 -1031.65322974 0 -11372.91335071 0 826
0.02850000 0.02848090 57737.44395336 0 1660.19690639 0 21560.73230750 0 -4850.02514870 0 -17903.63193776 0 831
0.02950000 0.02946900 59146.13687776 0 2989.28831029 0 27707.69548014 0 -959.66248859 0 819.91673440 0 996
0.03050000 0.03053250 54635.90163876 0 667.95069941 0 31767.51721107 0 70.56818423 0 -5388.75785807 0 1041
0.03150000 0.03150510 55517.20814827 0 -97.01469971 0 27651.79584752 0 13164.80712966 0 -689.31234473 0 1036
0.03250000 0.03246190 55965.84706482 0 -658.59194743 0 28431.39608101 0 4313.00048366 0 14136.50689430 0 1059
0.03350000 0.03345080 56060.89862267 0 -835.64516079 0 19787.02809154 0 9393.84453205 0 8259.71418811 0 1302
0.03450000 0.03451200 57214.27219331 0 -1368.49842665 0 21058.63382165 0 6313.30894447 0 18566.99642723 0 1339
0.03550000 0.03553350 57456.94758254 0 159.04443688 0 15462.90313733 0 -3024.74686693 0 11218.96753707 0 1365
0.03650000 0.03647120 57782.91786085 0 1595.01394193 0 14661.34233389 0 2887.62639906 0 10571.88492471 0 1308
0.03750000 0.03744890 54877.35699632 0 2559.64861410 0 18605.37196867 0 -6857.94217062 0 4707.19271440 0 1579
0.03850000 0.03847530 51311.53717747 0 3181.96458367 0 17443.56908835 0 -1760.39477962 0 3917.63258605 0 1662
0.03950000 0.03950240 49452.20892107 0 1943.82099475 0 24995.67600236 0 -535.41311412 0 4940.66241016 0 1683
0.04050000 0.04050350 46120.08062192 0 1567.41904392 0 17714.08338191 0 3546.25494744 0 447.44661288 0 1822
0.04150000 0.04152450 43656.94760365 0 1081.81316794 0 23292.84453490 0 1106.01526880 0 6126.43336709 0 1887
0.04250000 0.04250150 43744.67897152 0 1402.07147982 0 17630.01210905 0 2639.32777298 0 2062.62989646 0 1920
0.04350000 0.04349210 40475.99231890 0 1111.88140286 0 21390.92608222 0 1631.43743270 0 7357.15694526 0 2005
0.04450000 0.04448520 39599.23320015 0 937.77290229 0 18765.30702867 0 -2027.28225179 0 -866.41546848 0 2151
0.04550000 0.04548030 38582.05952803 0 973.83038357 0 21463.35159829 0 2449.01392455 0 5598.53675715 0 2274
0.04650000 0.04648670 37160.50081517 0 447.78822175 0 17839.85755531 0 1414.81526511 0 1647.09820280 0 2311
0.04750000 0.04749250 37573.09334165 0 -357.44820437 0 17143.99585878 0 4503.92434793 0 7493.22374942 0 2568
0.04850000 0.04851840 37292.37514689 0 -775.24472045 0 12802.90137324 0 5496.46447163 0 6238.73173619 0 2493
0.04950000 0.04949480 38944.07619642 0 -408.48101977 0 10777.97045521 0 3087.84468637 0 9349.14700835 0 2644
0.05050000 0.05050630 38059.88597570 0 923.15359559 0 10213.80563124 0 -269.80556608 0 8519.39238226 0 2829
0.05150000 0.05149060 37992.67332220 0 802.90838388 0 13720.03244889 0 -3168.43332340 0 10430.92690270 0 2784
0.05250000 0.05249300 35479.51900570 0 1172.26187905 0 14124.08475371 0 -1916.98029814 0 5717.57857399 0 3055
0.05350000 0.05348950 36283.85260838 0 1172.78316531 0 17101.84931037 0 -2762.77279501 0 3457.29245672 0 3009
0.05450000 0.05448610 34074.37526433 0 13.55776824 0 16878.36169187 0 1217.78015132 0 5748.58956066 0 3336
0.05550000 0.05550870 35306.38542134 0 -230.88211951 0 17338.42454128 0 3020.88713039 0 2531.63225061 0 3349
0.05650000 0.05647670 34912.98066558 0 390.95138299 0 17070.90487089 0 270.77493670 0 4532.60618324 0 3324
0.05750000 0.05747970 33598.34109131 0 1560.77541695 0 15699.36745627 0 -802.13421833 0 2297.64126860 0 3639
0.05850000 0.05849280 32867.65303636 0 1441.60050574 0 18418.59621207 0 -854.13973170 0 4830.70428362 0 3846
0.05950000 0.05951020 31447.09253123 0 -335.62183789 0 17883.44595931 0 445.61545627 0 2808.29106729 0 3787
0.06050000 0.06049470 32049.23361355 0 -513.11537177 0 16232.96494145 0 3987.96186590 0 2597.01485662 0 3930
0.06150000 0.06148310 31931.66692590 0 -776.85516225 0 13969.80620416 0 2398.00550978 0 2513.64232916 0 4083
0.06250000 0.06249100 33152.25315005 0 87.51974782 0 12537.82176618 0 1271.89410123 0 2273.86174234 0 4303
0.06350000 0.06350600 32007.97436091 0 757.66739153 0 10740.31584157 0 284.38383535 0 1233.06382072 0 4470
0.06450000 0.06451750 30510.44094896 0 1511.76341763 0 12729.03400157 0 -2273.16299693 0 1312.31042291 0 4479
0.06550000 0.06550280 29584.10417984 0 445.26719268 0 12249.89429340 0 27.58391772 0 -666.02194026 0 4636
0.06650000 0.06648880 28965.32630210 0 -107.27749515 0 12836.39678803 0 935.87630761 0 -1645.32361128 0 4653
0.06750000 0.06749660 29018.56404745 0 -188.10448200 0 9976.59820211 0 1902.19573260 0 -1917.01357173 0 5220
0.06850000 0.06852730 29385.68266644 0 -361.09166256 0 8717.35915659 0 1674.47127686 0 -583.62876549 0 5029
0.06950000 0.06949320 30089.30820083 0 -305.43936364 0 6237.26769820 0 398.04642168 0 -3473.67415461 0 5040
0.07050000 0.07048030 29399.43575065 0 821.07798272 0 8095.55338208 0 -629.80585487 0 -801.69611605 0 5475
0.07150000 0.07148790 28441.04542236 0 1183.33089360 0 8774.19044975 0 -2267.85031359 0 -3648.92615759 0 5509
0.07250000 0.07249820 27675.53100899 0 466.53567195 0 9524.95357118 0 209.58036665 0 -2297.96291331 0 5916
0.07350000 0.07351270 27004.06994575 0 358.84125870 0 11294.38767631 0 -382.20819243 0 -2624.02192119 0 5721
0.07450000 0.07449140 26695.51284665 0 509.71148343 0 10702.38394801 0 -124.91793299 0 -2808.22452011 0 6028
0.07550000 0.07549160 26608.44695060 0 -212.13910579 0 11578.54414213 0 459.64914777 0 -39.28058311 0 6183
0.07650000 0.07648840 25712.72188506 0 311.11694736 0 11623.46348977 0 1494.77170391 0 -2010.59000038 0 6330
0.07750000 0.07749960 27007.28639286 0 -101.26983742 0 10428.17628585 0 1605.85004135 0 2270.16837376 0 6583
0.07850000 0.07848650 26243.99021888 0 -216.23397570 0 9435.03723752 0 1453.65663682 0 -552.57119580 0 6549
0.07950000 0.07947320 26742.09587383 0 643.21954846 0 9843.61475070 0 429.42230872 0 2933.37758647 0 6828
0.08050000 0.08048110 25026.39861791 0 997.74965891 0 9169.97981285 0 -991.81365030 0 171.77269450 0 7147
0.08150000 0.08149960 23667.39425584 0 980.53168476 0 9476.34085496 0 -476.54214984 0 1660.49636871 0 7386
0.08250000 0.08250610 22847.86571334 0 393.93935145 0 10027.70643765 0 1450.32927774 0 611.17042575 0 7227
0.08350000 0.08350160 22602.63934881 0 -346.80398266 0 6830.54691415 0 2046.18165139 0 427.10646680 0 7798
0.08450000 0.08449610 22815.03577037 0 -410.77578841 0 7038.98377840 0 2245.14663344 0 1558.75681910 0 7371
0.08550000 0.08548940 22338.22521357 0 373.26203298 0 4228.39683334 0 -179.60086130 0 -139.06253646 0 8256
0.08650000 0.08650700 21792.64923568 0 654.08670323 0 4817.31720890 0 -834.81332102 0 355.06692438 0 8037
0.08750000 0.08749060 21295.98543634 0 623.86097330 0 5844.62823503 0 -1097.03916311 0 -862.12761174 0 8155
0.08850000 0.08849210 20802.42717215 0 219.75432161 0 5927.20219631 0 -461.94724377 0 -869.41009166 0 8718
0.08950000 0.08949900 20550.65700142 0 88.07353129 0 6772.66195728 0 -284.54576683 0 -2501.37546534 0 8571
0.09050000 0.09049190 20489.10085836 0 200.88375913 0 6890.25082733 0 -229.69425232 0 -2006.28661596 0 8932
0.09150000 0.09150830 20234.44697643 0 87.18856468 0 6274.65612311 0 296.97678037 0 -2225.02720218 0 9285
0.09250000 0.09250820 20404.36411368 0 -66.91929135 0 6379.05755998 0 1347.63588519 0 -654.80319455 0 9204
0.09350000 0.09350330 20172.11444958 0 233.74032097 0 5675.99767663 0 1122.10748645 0 -488.71584761 0 9349
0.09450000 0.09448040 19932.54459550 0 556.99103778 0 5342.57411397 0 571.58039825 0 1519.94872098 0 9564
0.09550000 0.09549270 18865.79327302 0 191.10797814 0 5422.10908729 0 157.87542472 0 1656.64772337 0 10155
0.09650000 0.09649430 18557.45799786 0 454.59488932 0 5582.55434234 0 364.89927048 0 2675.41852785 0 9913
0.09750000 0.09749140 18493.90543934 0 377.23268148 0 5569.00089967 0 124.84251285 0 2390.90714373 0 10476
0.09850000 0.09850240 17815.34601005 0 -43.26010458 0 4953.22873630 0 794.55782169 0 3741.74838485 0 10575
0.09950000 0.09950330 17845.95771363 0 -218.39675911 0 4603.58984371 0 1092.85001802 0 3483.91132939 0 10882
0.10050000 0.10051200 18231.59863152 0 -26.89715081 0 4118.54961877 0 112.35937068 0 2998.93765163 0 10875
0.10150000 0.10150300 17780.18691573 0 528.33471223 0 4435.52493635 0 -218.65185664 0 2611.44450385 0 11118
0.10250000 0.10250800 17727.61464219 0 217.60041117 0 5493.20365973 0 -919.00326969 0 3258.11674192 0 11575
0.10350000 0.10349800 17237.49464905 0 20.49930476 0 5270.84734331 0 -235.64911596 0 2032.99421822 0 11364
0.10450000 0.10450100 17219.52690999 0 208.87274829 0 5773.12328831 0 4.83525167 0 1971.79299346 0 12093
0.10550000 0.10551000 17379.12923408 0 77.40313435 0 6278.95950752 0 -229.89833034 0 1307.10865154 0 12067
0.10650000 0.10649700 17231.61631467 0 117.51788638 0 5874.27500447 0 -303.55275104 0 1812.78959401 0 12054
0.10750000 0.10749900 17202.66829063 0 299.71852425 0 6448.26662894 0 -30.00268595 0 471.89050184 0 12807
0.10850000 0.10850100 16735.72889911 0 197.55750916 0 6964.61730286 0 -391.75216741 0 1972.15900295 0 12736
0.10950000 0.10950300 16626.48060917 0 224.53019102 0 5956.53841224 0 766.27083300 0 610.81661657 0 12933
0.11050000 0.11050200 16399.11107173 0 169.21062800 0 6828.05139484 0 205.06846773 0 1240.08454839 0 13428
0.11150000 0.11150900 16123.82756348 0 294.88054414 0 6606.73765094 0 -250.44699093 0 1345.31782503 0 13453
0.11250000 0.11250000 15718.99887487 0 255.16074963 0 6348.47913000 0 408.95017740 0 1078.89840138 0 13668
0.11350000 0.11349100 15151.57323900 0 310.62893469 0 6435.71139399 0 -318.27631499 0 1511.86323841 0 13791
0.11450000 0.11448600 15288.66043328 0 120.42932558 0 6277.69511107 0 439.08163215 0 1392.98778952 0 14205
0.11550000 0.11549300 14841.35246036 0 43.02974042 0 6031.48163002 0 956.80650537 0 1769.94430019 0 14776
0.11650000 0.11649800 14933.40939503 0 39.35944152 0 5468.93612081 0 428.04478206 0 1541.76510538 0 14553
0.11750000 0.11747300 14665.33516479 0 8.32728176 0 4964.16465649 0 935.78646892 0 1918.20032980 0 14568
0.11850000 0.11849100 14472.57016183 0 265.21713790 0 4741.00977390 0 128.81094312 0 2426.36570038 0 16015
0.11950000 0.11950300 14010.39998499 0 175.16881900 0 4563.35098118 0 -206.87300548 0 2413.85483022 0 15270
0.12050000 0.12050700 14147.04353140 0 5.52436992 0 3943.44180135 0 725.19014862 0 2299.94823756 0 15999
0.12150000 0.12150000 14031.58417117 0 -37.85569704 0 4206.54717536 0 309.67620087 0 1575.17179059 0 15670
0.12250000 0.12250700 13904.81179005 0 242.54229486 0 3875.55258483 0 -448.23852435 0 2247.33159924 0 16887
0.12350000 0.12352200 13796.22897192 0 33.93994996 0 3824.76599400 0 313.92745666 0 1170.54274352 0 16407
0.12450000 0.12449800 13675.22401322 0 145.80043860 0 3735.96987124 0 -454.88547868 0 1383.46045134 0 16306
0.12550000 0.12549900 13628.75189801 0 286.80948012 0 4202.89817156 0 -357.24967194 0 -197.30462987 0 17523
0.12650000 0.12650100 13291.02495093 0 122.66309265 0 4373.50296302 0 -421.26584249 0 120.88628290 0 17154
0.12750000 0.12750600 13188.43137916 0 179.21932413 0 4826.67817912 0 -165.64924466 0 -139.96092341 0 18007
0.12850000 0.12850300 13101.80913100 0 94.83350491 0 4486.18952401 0 318.08332816 0 -577.92678114 0 17496
0.12950000 0.12949900 12865.23390009 0 104.52654558 0 4327.37467491 0 215.98442377 0 -57.93874918 0 18405
0.13050000 0.13049000 12719.71739613 0 147.72476127 0 4200.26955788 0 410.07260653 0 -261.19436077 0 18100
0.13150000 0.13148800 12738.57243094 0 31.69486987 0 4144.90230272 0 581.41828994 0 801.88799376 0 19059
0.13250000 0.13249300 12355.92613623 0 68.23337636 0 3531.32619634 0 398.02091192 0 421.86365800 0 18957
0.13350000 0.13349100 12190.33456579 0 233.05710323 0 3754.27034620 0 217.87658197 0 819.68825574 0 19468
0.13450000 0.13450700 12090.07014538 0 191.24883634 0 3504.95133000 0 -92.08699181 0 1105.28214068 0 19953
0.13550000 0.13551000 11766.42901843 0 233.10923186 0 3730.54627593 0 -62.23581161 0 977.03684861 0 19956
0.13650000 0.13649900 11536.61941766 0 110.74127596 0 3740.91654508 0 -140.75061663 0 766.56253148 0 19723
0.13750000 0.13749600 11194.12325590 0 132.78048251 0 3539.06785181 0 180.20754978 0 754.15480945 0 20946
0.13850000 0.13851100 11195.34328757 0 91.54163766 0 3392.12058345 0 230.77675314 0 593.22043261 0 20955
0.13950000 0.13949800 11153.30765113 0 93.33441873 0 3271.04907756 0 128.68893995 0 16.66285974 0 20506
0.14050000 0.14048300 11026.82364114 0 65.96311926 0 3160.99113024 0 175.93189335 0 1066.47958815 0 21447
0.14150000 0.14148400 10862.45210236 0 5.22171334 0 2791.93155179 0 231.68623129 0 330.21044290 0 21771
0.14250000 0.14249400 11021.48877540 0 23.58576305 0 2962.31451931 0 309.51316028 0 617.69426780 0 22470
0.14350000 0.14350900 10819.09661349 0 204.47730694 0 3090.08510815 0 -96.32271993 0 923.45638527 0 22519
0.14450000 0.14449900 10466.23018258 0 323.18860611 0 2773.48689127 0 -286.35141369 0 1035.07486400 0 22218
0.14550000 0.14550500 10331.61632522 0 128.78432424 0 3491.37570494 0 5.57411394 0 919.26724018 0 23559
0.14650000 0.14650700 10000.04499246 0 159.05552808 0 3349.07564809 0 35.82600800 0 832.52077061 0 23044
0.14750000 0.14750500 10052.41762445 0 87.12312662 0 3566.84020897 0 -87.51919326 0 1031.07094190 0 23649
0.14850000 0.14849900 9970.56459097 0 3.04277006 0 3329.47750308 0 86.87324195 0 599.10985819 0 23640
0.14950000 0.14949500 10002.40741741 0 96.71923022 0 3664.98621077 0 -254.81581341 0 465.32118589 0 24457
0.15050000 0.15050000 9823.73932577 0 160.42529090 0 3417.09795897 0 -253.85087927 0 410.70480475 0 24591
0.15150000 0.15149900 9741.90847468 0 -33.80253003 0 3705.60217399 0 228.04610045 0 186.35207288 0 25020
0.15250000 0.15250500 9839.31136628 0 -44.59925570 0 3365.24661324 0 360.90422134 0 4.80002603 0 25297
0.15350000 0.15350100 9824.99263102 0 -7.00998030 0 3083.43038998 0 477.33738866 0 164.35933846 0 25452
0.15450000 0.15450400 9755.78356207 0 76.85667108 0 2903.78627301 0 210.33567717 0 629.47866456 0 26061
0.15550000 0.15549900 9735.91922833 0 57.42189940 0 2427.47482007 0 520.16050008 0 359.49785756 0 26128
0.15650000 0.15649500 9533.70452557 0 142.47751600 0 2512.77721580 0 33.87384642 0 877.25600438 0 26331
0.15750000 0.15749700 9316.64980129 0 143.79293195 0 2116.61075201 0 67.37214492 0 550.83764172 0 27345
0.15850000 0.15849900 9106.88199341 0 226.68853795 0 2289.33396208 0 -211.25181003 0 780.20359460 0 26980
0.15950000 0.15949700 8901.48411713 0 129.84464267 0 2340.63074797 0 -243.71463438 0 315.88283468 0 27777
0.16050000 0.16050000 8662.81265000 0 37.33685085 0 2589.53938988 0 17.10196022 0 194.36546268 0 28224
0.16150000 0.16150500 8816.90264920 0 56.63176253 0 2134.90013578 0 122.87382539 0 113.82229956 0 28075
0.16250000 0.16249700 8724.37988426 0 -70.88417243 0 2062.31934295 0 201.43388249 0 -162.29304846 0 28590
0.16350000 0.16349900 8782.34247951 0 10.67636400 0 1988.09705297 0 414.58894192 0 304.10952912 0 29163
0.16450000 0.16449100 8769.19941113 0 66.23008437 0 1928.39313980 0 35.12692985 0 114.35911349 0 28996
0.16550000 0.16550500 8597.45222638 0 222.82769229 0 1780.95785876 0 -29.57312389 0 523.70413750 0 30777
0.16650000 0.16650700 8296.32622924 0 191.02479416 0 2191.17686909 0 -294.72859474 0 376.12023443 0 29211
0.16750000 0.16749900 8309.74657755 0 18.31001339 0 2213.07089187 0 113.92544769 0 1027.88444101 0 30922
0.16850000 0.16850800 8137.84411605 0 64.53146756 0 2458.04215886 0 170.83216099 0 589.88198233 0 30867
0.16950000 0.16949900 8220.60662767 0 -18.80967182 0 2235.33092414 0 100.19920417 0 663.48205616 0 30852
0.17050000 0.17049200 8220.22952698 0 24.20165721 0 2046.73621123 0 172.54575092 0 725.11694672 0 31257
0.17150000 0.17149500 8275.56350855 0 17.75855908 0 2089.09349238 0 9.04165466 0 638.35273124 0 32608
0.17250000 0.17250900 8150.43262458 0 112.25622255 0 1946.49397322 0 -218.68513023 0 485.77224394 0 32361
0.17350000 0.17350400 8082.01103061 0 92.76410939 0 2211.97286337 0 -21.72177649 0 294.14519779 0 32508
0.17450000 0.17449800 8004.40592556 0 -36.66394793 0 1793.08053703 0 139.77570042 0 232.56132673 0 32791
0.17550000 0.17549800 8062.88980707 0 -29.35218725 0 1896.49485737 0 142.09708794 0 100.91480820 0 33633
0.17650000 0.17650100 8211.82239969 0 21.37761665 0 1492.94165641 0 101.22635992 0 162.31301262 0 33984
0.17750000 0.17750300 8095.09864301 0 65.58457671 0 1743.15905956 0 15.03334108 0 -40.01005114 0 34069
0.17850000 0.17849800 8095.84175320 0 149.71452201 0 1859.20625323 0 -186.88223210 0 174.14731976 0 34536
