### header ###
fiducial parameters:
Omega_m = 0.31
Omega_nu = 0
Omega_de = 0.69
Omega_k = 0
H_0 = 100
w_de = -1
zeff = 0
beta = 0
fgrowth = 0
b_1 = 2
gamma = 0.55
Lx = 3500 Ly = 3500 Lz = 3500
nx = 700 ny = 700 nz = 700
xoffset = 1379.75464 yoffset = 22.6059522 zoffset = 368.141391
bins = 400 dk = 0.001
kx_ny = 0.628318531 ky_ny = 0.628318531 kz_ny = 0.628318531
############################
A(data) = 3.35589025 (not used)
A(ran) = 3.36850434 (used)
Ngal = 189101
weighted Ngal = 0
Nran = 9399747
weighted Nran = 0
SN(data) = 6589.52925
SN(ran) = 133.98355
SN(data+ran) = 6723.5128
############################
13 columns: k_central k_mean P_0(k) sigma^{lin}_{P_0(k)} P^img_1(k) sigma^{lin}_{P_1(k)} P_2(k) sigma^{lin}_{P_2(k)} P^img_3(k) sigma^{lin}_{P_3(k)} P_4(k) sigma^{lin}_{P_4(k)} N_modes
### header ###
0.00050000 0 0 0 0 0 0 0 0 0 0 0 0
0.00150000 0.00179520 34840.11150163 0 -16125.71306696 0 -22101.87180660 0 55814.45222648 0 -28389.36044458 0 3
0.00250000 0.00253879 30933.68102450 0 -13799.66724298 0 20277.25899665 0 -23823.33648493 0 -37308.12464655 0 6
0.00350000 0.00331552 58267.49225552 0 -18232.15319137 0 -27583.80681023 0 37000.89849109 0 27929.85215501 0 7
0.00450000 0.00420575 80489.70354901 0 -20319.40554505 0 -7878.58738738 0 7337.66971222 0 -10787.37579022 0 24
0.00550000 0.00557378 106218.61858162 0 -1999.63189780 0 -27925.97023608 0 1282.48619432 0 36236.49319742 0 45
0.00650000 0.00659388 94429.34169747 0 3788.09849689 0 57003.42853933 0 989.77397918 0 -15333.91251683 0 40
0.00750000 0.00754703 91896.88869828 0 10420.71191031 0 12267.19656064 0 3396.14668794 0 54570.90722464 0 57
0.00850000 0.00846663 71542.98953072 0 19170.69027712 0 35327.23687160 0 21766.03036301 0 30368.25180408 0 75
0.00950000 0.00948925 67879.12353085 0 7096.29199303 0 32800.99494270 0 13522.16549533 0 64053.99152734 0 112
0.01050000 0.01054430 50689.65376458 0 4120.69021978 0 31460.95652742 0 25132.09772482 0 28922.62519385 0 105
0.01150000 0.01145670 49576.76306280 0 2577.01742853 0 37778.05866125 0 11874.12454080 0 49355.93733156 0 144
0.01250000 0.01249090 50956.17522725 0 -2630.22190029 0 17844.40494606 0 9215.97500660 0 29534.52652948 0 169
0.01350000 0.01339930 56710.39911596 0 -6614.27966486 0 24133.88999948 0 29187.37206500 0 44320.97756494 0 180
0.01450000 0.01448870 59989.06784582 0 -3334.21344418 0 8478.06658243 0 9371.49577020 0 28972.75740406 0 267
0.01550000 0.01550050 72641.35076451 0 -10587.62333318 0 -17539.39702998 0 12329.08543961 0 4495.65031501 0 238
0.01650000 0.01653350 76031.26419976 0 -5851.75987467 0 -1072.64074806 0 2035.05718085 0 16135.14058437 0 315
0.01750000 0.01747870 88770.94575040 0 -745.72217241 0 -30372.24463498 0 -9921.40840609 0 9399.48995130 0 297
0.01850000 0.01844180 82172.34903802 0 1207.21024063 0 -3174.22292820 0 -18052.91944868 0 4900.13517651 0 388
0.01950000 0.01947590 81551.13109695 0 6010.54145018 0 5171.92495773 0 -25632.64344310 0 -31797.35253086 0 399
0.02050000 0.02045430 73023.55341134 0 8270.35064599 0 22752.81415549 0 -18461.40823229 0 -31735.24182795 0 462
0.02150000 0.02154770 67414.40237872 0 4698.66358395 0 33268.59980604 0 -9638.87125503 0 -29503.91482591 0 571
0.02250000 0.02255340 66821.35607790 0 506.68913226 0 38712.82474005 0 6202.79625808 0 -30710.19340599 0 510
0.02350000 0.02348930 64983.21200767 0 -276.92944188 0 33835.80361797 0 5337.71616971 0 -28897.78091269 0 555
0.02450000 0.02439640 65744.40085422 0 1975.76364196 0 43168.38037809 0 2508.80656729 0 -23021.77568149 0 592
0.02550000 0.02547300 62479.15247267 0 1312.39915249 0 35530.98215954 0 2650.51879070 0 -5407.55743689 0 837
0.02650000 0.02652900 64639.27399030 0 -418.48417029 0 40363.74940579 0 11361.37850588 0 -6945.26316419 0 723
0.02750000 0.02749970 63070.31327001 0 303.23221544 0 31347.71540658 0 722.24987231 0 6506.05176504 0 826
0.02850000 0.02848090 63959.05088147 0 2830.32927563 0 36783.51103090 0 3000.73442554 0 4696.98881321 0 831
0.02950000 0.02946900 61790.05640627 0 920.35195924 0 44653.71347339 0 1361.89916447 0 21110.54062337 0 996
0.03050000 0.03053250 62178.02647552 0 1417.00023091 0 38227.25213765 0 4641.07808939 0 13874.97647026 0 1041
0.03150000 0.03150510 60836.87894054 0 2048.18915803 0 48772.87310799 0 5220.00529650 0 15998.38612599 0 1036
0.03250000 0.03246190 56661.81967332 0 1543.04059303 0 42825.44056845 0 -4827.01091503 0 17237.05100117 0 1059
0.03350000 0.03345080 58542.88667574 0 327.96114816 0 44410.37261235 0 10583.04266884 0 17038.96222368 0 1302
0.03450000 0.03451200 60303.50327930 0 -855.71024519 0 40029.57164174 0 2027.37098136 0 12969.15841550 0 1339
0.03550000 0.03553350 58199.50321823 0 577.25132725 0 34913.75704937 0 1174.57993921 0 5923.06517985 0 1365
0.03650000 0.03647120 57163.91815917 0 2568.17774456 0 35349.64108944 0 3368.90670823 0 970.17139769 0 1308
0.03750000 0.03744890 51694.18347218 0 2763.87082351 0 32358.45618447 0 -3645.41024815 0 -4525.04198692 0 1579
0.03850000 0.03847530 51534.91388401 0 1523.07643852 0 31775.17013696 0 1531.88284890 0 -9216.01937138 0 1662
0.03950000 0.03950240 47017.91301487 0 1049.92043111 0 29133.46884784 0 4129.08625587 0 -10992.61838975 0 1683
0.04050000 0.04050350 47419.96890425 0 -276.47692105 0 20467.14028840 0 2678.18023589 0 -12862.35018888 0 1822
0.04150000 0.04152450 47021.12946199 0 -526.92613021 0 17925.59250772 0 5574.44667737 0 -18081.64564878 0 1887
0.04250000 0.04250150 46479.10266713 0 405.75369444 0 12665.92509093 0 277.48621997 0 -18262.87580691 0 1920
0.04350000 0.04349210 42313.80365323 0 1380.86511125 0 11504.45494651 0 2513.35395804 0 -10497.08589249 0 2005
0.04450000 0.04448520 42229.06690854 0 1273.74633112 0 9318.06947450 0 607.72993646 0 -12348.93868215 0 2151
0.04550000 0.04548030 42217.97571159 0 183.96524730 0 11211.42552314 0 1977.52714228 0 -10161.59936720 0 2274
0.04650000 0.04648670 40817.49027294 0 662.42839245 0 9817.83880899 0 1515.04641193 0 -6713.00240890 0 2311
0.04750000 0.04749250 39341.36287110 0 1541.63201102 0 10802.78146278 0 -3446.80018440 0 -4577.98026995 0 2568
0.04850000 0.04851840 38211.50263799 0 1569.10490586 0 15529.11758311 0 -2319.79038890 0 -4457.71842144 0 2493
0.04950000 0.04949480 38225.92119402 0 327.87352770 0 16092.10674021 0 -55.97582914 0 -7051.68319891 0 2644
0.05050000 0.05050630 37036.39032132 0 218.81711547 0 19989.10969993 0 149.10561529 0 307.75853292 0 2829
0.05150000 0.05149060 35678.27325501 0 313.17769175 0 19064.99117021 0 1831.56699044 0 -4456.42075140 0 2784
0.05250000 0.05249300 38403.49125716 0 -1.31180023 0 17119.26248958 0 1057.52677398 0 -1961.17871798 0 3055
0.05350000 0.05348950 36178.59714935 0 1161.29268527 0 18498.23100615 0 506.15120921 0 -5893.46277520 0 3009
0.05450000 0.05448610 35265.12616869 0 1741.81702473 0 18825.42131613 0 -1925.27651345 0 -1224.04667760 0 3336
0.05550000 0.05550870 32331.39366392 0 1134.82908935 0 20205.72077633 0 497.19284944 0 -2323.28411594 0 3349
0.05650000 0.05647670 31716.60861708 0 1051.83588082 0 17304.37456665 0 1372.66871671 0 -3151.46379206 0 3324
0.05750000 0.05747970 30535.83978997 0 183.28424781 0 18547.14318470 0 3325.17411867 0 -1036.17621985 0 3639
0.05850000 0.05849280 30633.88597099 0 -102.09136237 0 14841.13063642 0 2725.01836060 0 -825.08301394 0 3846
0.05950000 0.05951020 30212.53139893 0 -757.40009368 0 12120.79276093 0 4254.13950146 0 2086.01013963 0 3787
0.06050000 0.06049470 30130.12380560 0 548.87006338 0 11655.62796092 0 62.75221774 0 2197.23266262 0 3930
0.06150000 0.06148310 30281.85137985 0 368.82111772 0 10895.30422772 0 1675.38075501 0 5739.90515345 0 4083
0.06250000 0.06249100 28858.51807549 0 153.25372295 0 11215.41835404 0 1292.44608918 0 4029.39857770 0 4303
0.06350000 0.06350600 29343.42520607 0 286.11184384 0 8110.57086275 0 922.63785493 0 7840.24511953 0 4470
0.06450000 0.06451750 29261.12852471 0 -494.29471967 0 8808.10733002 0 1462.28558805 0 4091.38727744 0 4479
0.06550000 0.06550280 29683.81404041 0 397.53068102 0 9908.99735671 0 257.38453462 0 6129.17289274 0 4636
0.06650000 0.06648880 28492.17584029 0 157.00254752 0 6650.63660846 0 -124.48981279 0 5220.78168029 0 4653
0.06750000 0.06749660 28542.19713853 0 166.23485986 0 9272.46247265 0 -741.98998464 0 4256.95666549 0 5220
0.06850000 0.06852730 28816.70426299 0 -0.15854533 0 7013.86221731 0 416.23265731 0 3536.25068779 0 5029
0.06950000 0.06949320 28185.06059679 0 90.21668327 0 8469.03834812 0 455.38347342 0 1343.60978070 0 5040
0.07050000 0.07048030 28606.30425689 0 459.15558950 0 8382.07227285 0 -981.41565316 0 2112.09663485 0 5475
0.07150000 0.07148790 27901.34777886 0 726.49336426 0 7926.66772615 0 -592.76569354 0 -1514.52512567 0 5509
0.07250000 0.07249820 27487.97886860 0 785.34214615 0 11097.74075442 0 -1702.72055549 0 1898.26944889 0 5916
0.07350000 0.07351270 26259.07424673 0 152.67365335 0 10268.27449945 0 601.37800797 0 522.50739735 0 5721
0.07450000 0.07449140 26695.06919877 0 -126.00708853 0 10842.82068376 0 1522.20023396 0 390.03635924 0 6028
0.07550000 0.07549160 26530.03218818 0 52.07450062 0 10616.09443575 0 775.45988967 0 771.39607511 0 6183
0.07650000 0.07648840 26974.56736186 0 311.92438649 0 9859.78571585 0 475.32322729 0 1831.61135523 0 6330
0.07750000 0.07749960 25955.06453838 0 3.39920786 0 9933.19834845 0 221.59102383 0 2261.96088801 0 6583
0.07850000 0.07848650 26220.92052923 0 387.11271972 0 10239.48175217 0 -351.07409348 0 1052.41816866 0 6549
0.07950000 0.07947320 26127.64356290 0 366.90234065 0 10400.03791920 0 358.77249328 0 2600.81913718 0 6828
0.08050000 0.08048110 25088.28749688 0 297.69216257 0 9408.69564477 0 801.13268325 0 1189.54196389 0 7147
0.08150000 0.08149960 25265.30300017 0 -105.88699179 0 9021.33559135 0 1269.29876115 0 2665.81355129 0 7386
0.08250000 0.08250610 24985.02845329 0 -20.94905280 0 8382.39391756 0 431.99102994 0 503.07783854 0 7227
0.08350000 0.08350160 24572.99048667 0 552.11423848 0 7377.01018779 0 269.11680275 0 943.98619082 0 7798
0.08450000 0.08449610 24496.35031575 0 563.07345019 0 7387.48027771 0 -397.25118286 0 1553.75468928 0 7371
0.08550000 0.08548940 23370.37200157 0 215.72378064 0 7165.57870037 0 372.09080258 0 -487.03664039 0 8256
0.08650000 0.08650700 23029.53951935 0 503.86753176 0 7150.99377638 0 362.33387662 0 566.38639072 0 8037
0.08750000 0.08749060 22366.95141366 0 520.35126866 0 6297.04924975 0 289.40703845 0 -1669.93497731 0 8155
0.08850000 0.08849210 21760.59567650 0 427.76861126 0 6748.86024863 0 218.37346759 0 1060.59127170 0 8718
0.08950000 0.08949900 20972.56613333 0 311.40199112 0 5839.01608938 0 535.56395440 0 -625.06547729 0 8571
0.09050000 0.09049190 20538.12394887 0 330.55094265 0 7078.14679483 0 809.26696709 0 1140.78506211 0 8932
0.09150000 0.09150830 19937.09198625 0 182.72414236 0 5300.77139268 0 39.03269486 0 -71.23554155 0 9285
0.09250000 0.09250820 19136.52939052 0 563.46275120 0 6366.71305778 0 300.52596339 0 1199.25785242 0 9204
0.09350000 0.09350330 19391.07236049 0 301.87465294 0 5800.86237187 0 -83.16201654 0 1379.48980283 0 9349
0.09450000 0.09448040 18522.96437535 0 224.74979672 0 6119.53464259 0 191.76790435 0 -8.34300908 0 9564
0.09550000 0.09549270 18494.45999919 0 484.00985274 0 6281.99849549 0 53.71444500 0 1405.16592376 0 10155
0.09650000 0.09649430 17378.02011438 0 439.76484988 0 5677.47280583 0 -94.13054485 0 540.91767516 0 9913
0.09750000 0.09749140 17079.55600451 0 249.41661873 0 5832.72738071 0 643.03099811 0 2262.31580632 0 10476
0.09850000 0.09850240 17093.19817675 0 -68.96095888 0 5440.94193971 0 819.16142389 0 1190.62890119 0 10575
0.09950000 0.09950330 17064.36106469 0 -72.21644701 0 4684.67758460 0 840.44543083 0 1770.31030969 0 10882
0.10050000 0.10051200 17172.16749902 0 5.21617883 0 5065.88202371 0 143.13300574 0 1428.11361025 0 10875
0.10150000 0.10150300 16991.27007680 0 271.68552396 0 4561.31020094 0 -812.08413111 0 1147.38432429 0 11118
0.10250000 0.10250800 16504.47744274 0 576.97293820 0 5770.66104258 0 -1230.13574472 0 857.98837704 0 11575
0.10350000 0.10349800 16510.46668909 0 266.57137305 0 6729.59483953 0 -810.17311788 0 -632.92026297 0 11364
0.10450000 0.10450100 15973.20910892 0 14.87518061 0 6732.43418595 0 139.39638148 0 -869.68737158 0 12093
0.10550000 0.10551000 16256.70010292 0 -163.03061306 0 6249.91166272 0 1240.61692584 0 288.37555713 0 12067
0.10650000 0.10649700 16452.34881708 0 -283.97124282 0 6080.43817335 0 688.71563834 0 1001.40975390 0 12054
0.10750000 0.10749900 16790.74123598 0 196.97411220 0 5793.16508119 0 711.57126789 0 377.90813538 0 12807
0.10850000 0.10850100 16303.17221813 0 189.11156269 0 5232.95981453 0 223.32014143 0 1509.63390782 0 12736
0.10950000 0.10950300 15671.75037587 0 406.79848519 0 5295.56962131 0 -266.72221333 0 549.72630378 0 12933
0.11050000 0.11050200 15688.71990720 0 264.11689117 0 5793.83055301 0 -240.57249829 0 870.21087608 0 13428
0.11150000 0.11150900 15064.06369508 0 155.07046101 0 5550.70042471 0 233.37542059 0 777.53616174 0 13453
0.11250000 0.11250000 15103.54835621 0 199.18236951 0 5144.75152521 0 428.89880423 0 512.42660844 0 13668
0.11350000 0.11349100 14628.17965501 0 196.38516964 0 5678.00518328 0 -90.19649729 0 1095.46754050 0 13791
0.11450000 0.11448600 14403.80474075 0 383.98722042 0 5354.68570104 0 220.39317456 0 1355.23335510 0 14205
0.11550000 0.11549300 14098.02044089 0 83.70104871 0 5310.85329070 0 328.97044708 0 1788.28913995 0 14776
0.11650000 0.11649800 14028.70045996 0 -7.03606679 0 5101.96168738 0 409.36276992 0 2117.43150058 0 14553
0.11750000 0.11747300 14271.37584919 0 51.74420477 0 5735.46867467 0 438.37512290 0 2300.21442629 0 14568
0.11850000 0.11849100 14089.14748333 0 99.90351286 0 5303.49982713 0 155.74480579 0 3190.98172679 0 16015
0.11950000 0.11950300 14110.55349344 0 -16.54651308 0 5462.91360086 0 156.09750585 0 2514.26343619 0 15270
0.12050000 0.12050700 14169.11501332 0 -7.96740569 0 5411.35062625 0 -1.60539530 0 3149.32319105 0 15999
0.12150000 0.12150000 14208.59967446 0 25.99000181 0 5014.55196423 0 281.82287798 0 2392.19372258 0 15670
0.12250000 0.12250700 14023.82033330 0 97.46699872 0 5107.25218832 0 43.36114538 0 2498.72466927 0 16887
0.12350000 0.12352200 13882.18574827 0 291.56094890 0 5348.17516843 0 74.75500017 0 2076.62698701 0 16407
0.12450000 0.12449800 13499.42854159 0 364.10735901 0 4700.12762195 0 -84.28755121 0 2249.15055554 0 16306
0.12550000 0.12549900 13206.51003019 0 102.37363334 0 5139.06174117 0 507.78272428 0 2056.19700223 0 17523
0.12650000 0.12650100 12921.35535665 0 22.23507708 0 4546.66982097 0 61.96884650 0 1351.21834181 0 17154
0.12750000 0.12750600 12885.30896657 0 107.11234723 0 4374.05752286 0 270.49987501 0 1333.63879465 0 18007
0.12850000 0.12850300 12760.97664878 0 117.46575776 0 3883.78225297 0 -91.24883006 0 1060.90071609 0 17496
0.12950000 0.12949900 12302.46656694 0 151.82074031 0 3822.52557222 0 120.11988119 0 619.75279395 0 18405
0.13050000 0.13049000 12373.11749150 0 204.33533962 0 3898.48918012 0 -177.92830880 0 36.80691346 0 18100
0.13150000 0.13148800 11966.18147547 0 176.64616644 0 3833.11766531 0 162.30857614 0 741.17256342 0 19059
0.13250000 0.13249300 11927.14046221 0 91.37227508 0 3902.19363990 0 100.20630254 0 276.11534803 0 18957
0.13350000 0.13349100 11884.10661805 0 141.49372683 0 3609.07548695 0 -120.86188226 0 -42.66428548 0 19468
0.13450000 0.13450700 11510.66601680 0 221.80841129 0 3977.18122247 0 -12.40361828 0 138.56121435 0 19953
0.13550000 0.13551000 11360.49121013 0 174.06302667 0 4126.44655100 0 -223.36228798 0 253.22311752 0 19956
0.13650000 0.13649900 11187.69036167 0 181.24124933 0 4183.92113358 0 -44.18278125 0 413.93788866 0 19723
0.13750000 0.13749600 11083.87675824 0 58.98464905 0 4538.85052712 0 252.19829093 0 -69.42201994 0 20946
0.13850000 0.13851100 10967.72974379 0 116.59288056 0 4459.03827388 0 169.22504656 0 1123.99298993 0 20955
0.13950000 0.13949800 10987.72717189 0 87.82331388 0 4826.77799990 0 105.51909679 0 699.05928861 0 20506
0.14050000 0.14048300 10898.74249878 0 21.92840549 0 4369.38812895 0 -61.28130320 0 1308.37304800 0 21447
0.14150000 0.14148400 10856.93977748 0 252.40347807 0 4990.19569573 0 60.06604075 0 1137.87916851 0 21771
0.14250000 0.14249400 10565.39657450 0 122.06971361 0 4660.86478475 0 -178.83778695 0 1029.84869199 0 22470
0.14350000 0.14350900 10589.05409759 0 0.69161044 0 5068.57718457 0 455.02744600 0 1540.98872159 0 22519
0.14450000 0.14449900 10600.37820967 0 -160.47852864 0 4190.79767569 0 565.43143866 0 1056.15368380 0 22218
0.14550000 0.14550500 10712.59894040 0 -166.68627158 0 4110.14249148 0 735.38295862 0 1341.62445645 0 23559
0.14650000 0.14650700 10712.89840271 0 100.39795842 0 3404.27653530 0 136.48494229 0 500.30060282 0 23044
0.14750000 0.14750500 10632.78668716 0 260.86162486 0 3334.83455121 0 -203.97931219 0 1449.08706368 0 23649
0.14850000 0.14849900 10273.68700356 0 106.44820636 0 3230.03383125 0 185.12982298 0 683.47061130 0 23640
0.14950000 0.14949500 10242.60946971 0 -30.49923884 0 2818.56151566 0 284.07217272 0 949.76137707 0 24457
0.15050000 0.15050000 10109.65929190 0 40.97309977 0 2643.91952852 0 417.29186662 0 395.14274632 0 24591
0.15150000 0.15149900 10139.11751099 0 -25.71438556 0 2004.47875086 0 435.07216445 0 1075.60986148 0 25020
0.15250000 0.15250500 10255.84126767 0 -39.56684691 0 1916.96920694 0 247.53666085 0 768.77633439 0 25297
0.15350000 0.15350100 10087.31053005 0 93.88975497 0 1512.43998065 0 -223.86250096 0 176.76262400 0 25452
0.15450000 0.15450400 9997.51619955 0 232.07442318 0 1855.74579979 0 -252.77059669 0 533.99233179 0 26061
0.15550000 0.15549900 9711.18585914 0 172.95612521 0 1961.66673064 0 -179.76501102 0 144.76784817 0 26128
0.15650000 0.15649500 9594.82811195 0 134.09922582 0 2257.92369233 0 -332.61390528 0 -162.16549970 0 26331
0.15750000 0.15749700 9476.21885179 0 70.70360775 0 1916.83611258 0 121.26782007 0 -658.67734964 0 27345
0.15850000 0.15849900 9428.54888731 0 32.78169626 0 2409.25198349 0 172.67329969 0 -177.62551913 0 26980
0.15950000 0.15949700 9312.91206792 0 43.62433948 0 1722.35197409 0 118.38299975 0 -374.68836090 0 27777
0.16050000 0.16050000 9338.27763534 0 60.00448461 0 2199.47308441 0 146.60011390 0 -279.64678513 0 28224
0.16150000 0.16150500 9123.60751841 0 209.06240776 0 1808.61930395 0 -339.04125391 0 -736.61297236 0 28075
0.16250000 0.16249700 8945.83781372 0 200.43567477 0 2265.79844216 0 -196.38849700 0 -314.57407344 0 28590
0.16350000 0.16349900 8740.60630539 0 131.92091474 0 2283.76618121 0 90.90356110 0 -100.91103719 0 29163
0.16450000 0.16449100 8752.86207802 0 12.56089146 0 2201.63586781 0 115.37617625 0 -345.96216081 0 28996
0.16550000 0.16550500 8700.21216611 0 -9.85341937 0 2241.24253212 0 219.05113973 0 -238.37865953 0 30777
0.16650000 0.16650700 8634.67428334 0 46.80030373 0 2151.63675197 0 49.92103382 0 -398.00982073 0 29211
0.16750000 0.16749900 8677.31993561 0 53.87060905 0 2095.19365070 0 167.65342395 0 354.14635504 0 30922
0.16850000 0.16850800 8599.09372353 0 -28.66608581 0 1923.44646596 0 232.94286391 0 40.11242288 0 30867
0.16950000 0.16949900 8616.89509463 0 56.66137603 0 1826.75341096 0 105.33331924 0 226.59980837 0 30852
0.17050000 0.17049200 8479.18679333 0 141.62682119 0 1732.89970239 0 -6.13976499 0 212.04372150 0 31257
0.17150000 0.17149500 8320.64922415 0 222.49606550 0 2037.07577869 0 -170.11788791 0 383.80643391 0 32608
0.17250000 0.17250900 8073.07152587 0 234.18507796 0 2246.91013376 0 -310.14979498 0 332.48302916 0 32361
0.17350000 0.17350400 7944.39145888 0 55.82964717 0 2124.78496416 0 -59.07116039 0 -12.46949999 0 32508
0.17450000 0.17449800 7855.57315371 0 70.63750421 0 2720.00513958 0 -63.78880101 0 100.46472743 0 32791
0.17550000 0.17549800 7790.27927728 0 69.60114277 0 2314.48879676 0 -99.64408977 0 -397.23898254 0 33633
0.17650000 0.17650100 7772.81064209 0 39.65657469 0 2626.81690282 0 -23.15165360 0 43.70785620 0 33984
0.17750000 0.17750300 7761.81926591 0 55.93390442 0 2590.27140888 0 -47.10642077 0 -359.05088233 0 34069
0.17850000 0.17849800 7681.10862572 0 52.89369642 0 2620.66128852 0 299.68192330 0 331.33619939 0 34536
