### header ###
fiducial parameters:
Omega_m = 0.31
Omega_nu = 0
Omega_de = 0.69
Omega_k = 0
H_0 = 100
w_de = -1
zeff = 0
beta = 0
fgrowth = 0
b_1 = 2
gamma = 0.55
Lx = 3500 Ly = 3500 Lz = 3500
nx = 700 ny = 700 nz = 700
xoffset = 1379.75464 yoffset = 22.6059522 zoffset = 368.141391
bins = 400 dk = 0.001
kx_ny = 0.628318531 ky_ny = 0.628318531 kz_ny = 0.628318531
############################
A(data) = 3.36329573 (not used)
A(ran) = 3.37177046 (used)
Ngal = 189025
weighted Ngal = 0
Nran = 9399747
weighted Nran = 0
SN(data) = 6571.27303
SN(ran) = 134.113461
SN(data+ran) = 6705.38649
############################
13 columns: k_central k_mean P_0(k) sigma^{lin}_{P_0(k)} P^img_1(k) sigma^{lin}_{P_1(k)} P_2(k) sigma^{lin}_{P_2(k)} P^img_3(k) sigma^{lin}_{P_3(k)} P_4(k) sigma^{lin}_{P_4(k)} N_modes
### header ###
0.00050000 0 0 0 0 0 0 0 0 0 0 0 0
0.00150000 0.00179520 51752.07952025 0 -36258.01011950 0 -46193.06069784 0 94119.89730262 0 141835.33569357 0 3
0.00250000 0.00253879 55855.37874322 0 -34800.07228065 0 2177.00231939 0 -75203.52817151 0 -88618.88544024 0 6
0.00350000 0.00331552 87852.70555505 0 -21104.55137702 0 -66220.10229133 0 31242.01629966 0 41089.11368620 0 7
0.00450000 0.00420575 102460.69923162 0 -1529.80879507 0 -21830.47021728 0 -41975.18941040 0 -26470.02881269 0 24
0.00550000 0.00557378 97651.22349896 0 5382.67988214 0 -13595.25648322 0 -25837.27602679 0 30545.48913131 0 45
0.00650000 0.00659388 91128.71239765 0 3980.65276711 0 48885.11602111 0 -13245.55104345 0 -58946.49533269 0 40
0.00750000 0.00754703 100069.54808155 0 2416.06197841 0 5133.62705467 0 26642.16418933 0 13671.12027035 0 57
0.00850000 0.00846663 80027.86610808 0 7372.81771535 0 32898.48656388 0 -14766.81961686 0 -8209.32688038 0 75
0.00950000 0.00948925 73614.60329671 0 12964.05646490 0 35993.81780819 0 -7987.80240373 0 17178.82221719 0 112
0.01050000 0.01054430 67320.57085254 0 266.79985171 0 41609.40173504 0 26018.94983280 0 15215.34762145 0 105
0.01150000 0.01145670 62686.33603166 0 -4508.84883938 0 32061.76666610 0 10160.81189222 0 -5675.92003825 0 144
0.01250000 0.01249090 71756.05142410 0 3579.90563898 0 40158.22952634 0 -2956.69128246 0 5347.62060859 0 169
0.01350000 0.01339930 65874.05694655 0 4282.24459453 0 34705.13163477 0 -7980.27148100 0 1787.35747940 0 180
0.01450000 0.01448870 65358.20537649 0 1096.59884259 0 56008.76999701 0 3028.32932355 0 26160.58441783 0 267
0.01550000 0.01550050 68037.39491130 0 974.16755595 0 33935.06983066 0 25700.63248039 0 10634.05108361 0 238
0.01650000 0.01653350 73484.28173257 0 -3359.17972851 0 50592.71670326 0 20073.18097280 0 34550.96399719 0 315
0.01750000 0.01747870 74439.34470178 0 -2937.19295822 0 27991.85194595 0 18062.56879003 0 30655.07015716 0 297
0.01850000 0.01844180 78579.79943452 0 -324.70033626 0 42897.75517255 0 16312.59973554 0 61714.41444309 0 388
0.01950000 0.01947590 78082.47016336 0 -790.04370454 0 20891.71130758 0 4692.08650416 0 35799.27821372 0 399
0.02050000 0.02045430 81178.46687949 0 1227.48494865 0 37162.16449471 0 6789.36529988 0 55036.73749647 0 462
0.02150000 0.02154770 78787.75937730 0 -863.98316899 0 27653.01587919 0 7229.87436908 0 45911.45520732 0 571
0.02250000 0.02255340 82844.91922096 0 -778.45118549 0 22182.61572038 0 8437.89426709 0 42726.28526773 0 510
0.02350000 0.02348930 83122.86461648 0 -658.07731589 0 26420.67298627 0 5388.69131088 0 42684.13871933 0 555
0.02450000 0.02439640 80315.57175692 0 2050.20775588 0 9636.58646846 0 3201.56272868 0 20277.59173256 0 592
0.02550000 0.02547300 79077.57235356 0 2605.26670715 0 20462.37107371 0 -3137.15614800 0 29587.20971499 0 837
0.02650000 0.02652900 73297.94962384 0 2053.06928469 0 19917.12783174 0 -5318.20675428 0 -1778.10742115 0 723
0.02750000 0.02749970 72519.12577414 0 5168.32031872 0 24979.59376679 0 -5270.68097536 0 17290.06692258 0 826
0.02850000 0.02848090 64711.69950637 0 2013.69553553 0 29067.91987387 0 -4281.31293398 0 -14917.43807142 0 831
0.02950000 0.02946900 67026.65413341 0 -52.80796147 0 27427.75366917 0 284.70880742 0 -6215.41804021 0 996
0.03050000 0.03053250 65849.21266538 0 465.56408310 0 25182.34084700 0 2265.02205837 0 -21560.84321947 0 1041
0.03150000 0.03150510 63557.32772800 0 1413.63959823 0 21885.59346611 0 -4166.62995754 0 -25632.53253113 0 1036
0.03250000 0.03246190 60088.22314654 0 5503.93993837 0 28561.05217334 0 -6598.90726589 0 -17985.81770715 0 1059
0.03350000 0.03345080 55206.54372175 0 4689.09188098 0 28963.10806271 0 -4037.66151942 0 -27836.24245277 0 1302
0.03450000 0.03451200 47150.45281841 0 3663.00088651 0 32268.72840116 0 1203.58341923 0 -20544.11319522 0 1339
0.03550000 0.03553350 46204.70645463 0 874.70281084 0 28517.90741721 0 8408.72441911 0 -20809.41462622 0 1365
0.03650000 0.03647120 45421.11339024 0 -414.86954921 0 28088.45627137 0 8468.32851151 0 -9297.67276332 0 1308
0.03750000 0.03744890 42215.09200039 0 1072.43445180 0 20568.18109260 0 5881.36227932 0 -7369.01343479 0 1579
0.03850000 0.03847530 42855.16497627 0 337.17904194 0 20494.64645683 0 3498.57389176 0 -31.13043886 0 1662
0.03950000 0.03950240 42025.09979666 0 528.92698214 0 17531.96592802 0 898.35257010 0 5816.48986837 0 1683
0.04050000 0.04050350 41141.79687171 0 -140.04632563 0 16721.86490293 0 666.99241999 0 -3753.61596558 0 1822
0.04150000 0.04152450 41034.65590919 0 1272.53739066 0 18948.86633816 0 1390.30371985 0 5281.74998991 0 1887
0.04250000 0.04250150 40900.00877824 0 304.52988549 0 15443.04989480 0 -880.66987480 0 -7970.71086923 0 1920
0.04350000 0.04349210 41489.50589603 0 -204.10575184 0 18303.69141168 0 2607.01911627 0 6020.56789222 0 2005
0.04450000 0.04448520 38722.58499336 0 492.19737433 0 16078.90821584 0 722.21216224 0 -1666.08633197 0 2151
0.04550000 0.04548030 41280.21500962 0 303.42298403 0 16354.63537197 0 3195.10765206 0 6799.44719791 0 2274
0.04650000 0.04648670 39000.41947691 0 -433.55377959 0 10453.00947582 0 3915.80253855 0 2154.49828078 0 2311
0.04750000 0.04749250 40239.30617603 0 -795.36636995 0 12664.70505927 0 2018.07655832 0 4042.73019643 0 2568
0.04850000 0.04851840 41115.73255888 0 613.97428034 0 11147.54022872 0 -1247.02763768 0 1771.88525966 0 2493
0.04950000 0.04949480 39883.61148990 0 581.69446074 0 12982.02420396 0 -2329.78355735 0 -1055.35511762 0 2644
0.05050000 0.05050630 38114.23284075 0 1625.05999446 0 14563.62888877 0 -2973.89372892 0 -2264.75586965 0 2829
0.05150000 0.05149060 38356.24275816 0 1535.53185269 0 15166.87909079 0 -3812.17748547 0 -7050.72935597 0 2784
0.05250000 0.05249300 36761.10681307 0 426.47648681 0 18060.35055064 0 526.84849184 0 -4094.13789429 0 3055
0.05350000 0.05348950 36540.39199380 0 283.79711103 0 19504.86804117 0 818.68228418 0 -6367.16779685 0 3009
0.05450000 0.05448610 35901.31722564 0 285.40200723 0 16558.15883597 0 1541.06635997 0 -1321.62702835 0 3336
0.05550000 0.05550870 35235.84540875 0 959.76341848 0 17916.94137410 0 -234.72854661 0 -6212.36796105 0 3349
0.05650000 0.05647670 34165.10125537 0 851.35473215 0 16934.15041252 0 1347.36969647 0 -245.72214103 0 3324
0.05750000 0.05747970 33076.05662702 0 1308.04031209 0 20573.94851501 0 896.72770974 0 344.44599418 0 3639
0.05850000 0.05849280 32341.15391723 0 202.84024627 0 16876.25436445 0 2312.78075243 0 -106.59350104 0 3846
0.05950000 0.05951020 31775.39196090 0 -714.12335231 0 14725.78218816 0 4754.67412854 0 2801.19270124 0 3787
0.06050000 0.06049470 31290.70665426 0 125.37378118 0 13158.70697134 0 1979.77865526 0 1466.95498196 0 3930
0.06150000 0.06148310 32124.87557674 0 239.60756415 0 11263.11050092 0 1297.12657429 0 6060.41856286 0 4083
0.06250000 0.06249100 31065.22262031 0 223.87359216 0 12308.45581329 0 1329.10249509 0 4010.72100204 0 4303
0.06350000 0.06350600 30163.73013236 0 828.37377207 0 10051.09777201 0 -1200.07860099 0 4668.37352508 0 4470
0.06450000 0.06451750 30275.30757365 0 548.63603912 0 11515.65705543 0 -177.16301621 0 2923.17368528 0 4479
0.06550000 0.06550280 29094.98239442 0 545.49390303 0 11525.52822071 0 -1104.49244746 0 3143.21194154 0 4636
0.06650000 0.06648880 29639.33834064 0 -172.15423167 0 13331.28599586 0 1152.63046045 0 2194.62623134 0 4653
0.06750000 0.06749660 29053.94496572 0 419.18069746 0 13763.62085290 0 -1207.39879098 0 1935.20313472 0 5220
0.06850000 0.06852730 28254.38057772 0 1284.74879850 0 14364.20916764 0 -1082.01280948 0 658.72282355 0 5029
0.06950000 0.06949320 28524.78395932 0 216.89501104 0 16244.49978628 0 -505.48351915 0 1519.46070832 0 5040
0.07050000 0.07048030 27845.66997018 0 -517.68827228 0 13756.85522276 0 2722.58938847 0 2683.65928718 0 5475
0.07150000 0.07148790 28387.25311716 0 -396.00453232 0 14826.26843251 0 2744.25049611 0 2571.46073885 0 5509
0.07250000 0.07249820 28593.10573252 0 207.53736818 0 11797.92801776 0 583.39141388 0 2565.63786046 0 5916
0.07350000 0.07351270 27926.63570790 0 484.09303672 0 11489.26000669 0 1205.81274982 0 1499.46328022 0 5721
0.07450000 0.07449140 27147.03547441 0 501.87222543 0 10328.31114853 0 -508.12876963 0 3134.12825123 0 6028
0.07550000 0.07549160 26163.35721707 0 260.19948041 0 9509.89172572 0 1873.69135645 0 1833.77413863 0 6183
0.07650000 0.07648840 26226.57703968 0 81.14142228 0 8465.38934432 0 1470.28234105 0 2184.37796536 0 6330
0.07750000 0.07749960 25348.70880122 0 112.31278766 0 5878.85566881 0 1263.38715318 0 472.40735162 0 6583
0.07850000 0.07848650 25493.33800943 0 539.66880639 0 6058.76597451 0 1345.27346024 0 1343.23268001 0 6549
0.07950000 0.07947320 24250.56939138 0 388.91614835 0 4551.86050114 0 -782.65474913 0 621.42756469 0 6828
0.08050000 0.08048110 23302.27205231 0 693.23530109 0 5906.00691894 0 -306.51299150 0 -453.63882814 0 7147
0.08150000 0.08149960 23465.09082351 0 383.17201745 0 5173.13389820 0 -609.44241727 0 -95.90757643 0 7386
0.08250000 0.08250610 22155.10955195 0 361.26135788 0 5675.01056010 0 -238.28438436 0 -1457.25018463 0 7227
0.08350000 0.08350160 22162.09700603 0 -29.88933392 0 5152.60409264 0 446.63362815 0 -139.27881480 0 7798
0.08450000 0.08449610 22753.25780337 0 -354.26170348 0 5255.07566125 0 1416.83386295 0 -1564.89025102 0 7371
0.08550000 0.08548940 22207.01635367 0 251.02151493 0 4103.38795254 0 415.35645275 0 -1704.50623820 0 8256
0.08650000 0.08650700 22304.17523894 0 488.17016072 0 4802.11117788 0 87.18734465 0 12.61801112 0 8037
0.08750000 0.08749060 21026.46935050 0 568.78319838 0 4223.67198344 0 -156.65539306 0 -528.33471223 0 8155
0.08850000 0.08849210 20394.82568430 0 550.04018465 0 4598.88717620 0 107.79855959 0 1118.51393864 0 8718
0.08950000 0.08949900 19964.48724271 0 457.06046240 0 5423.04074783 0 124.05060139 0 243.99745990 0 8571
0.09050000 0.09049190 19247.10862410 0 395.27251332 0 5409.46512277 0 399.71786506 0 1878.61584789 0 8932
0.09150000 0.09150830 18984.24725643 0 316.11907718 0 5848.16632686 0 -179.31249018 0 2115.32417316 0 9285
0.09250000 0.09250820 18631.10354559 0 315.54455318 0 5623.82468619 0 -562.67860358 0 1349.62120945 0 9204
0.09350000 0.09350330 18332.30669981 0 -12.92523728 0 6165.54092753 0 409.97056752 0 2392.93683278 0 9349
0.09450000 0.09448040 18213.96362837 0 228.29897974 0 6288.86394640 0 -383.13319826 0 925.30196044 0 9564
0.09550000 0.09549270 18541.70849819 0 137.27796287 0 7027.77057829 0 -7.37079912 0 1963.68532849 0 10155
0.09650000 0.09649430 18174.70079117 0 160.93104948 0 6890.86084316 0 -335.56527279 0 657.84994635 0 9913
0.09750000 0.09749140 18093.29140557 0 411.49560710 0 7738.81612344 0 -425.81323324 0 1267.22470732 0 10476
0.09850000 0.09850240 17611.93345802 0 309.01960201 0 7960.38496488 0 -259.41976926 0 852.04349548 0 10575
0.09950000 0.09950330 17093.97456054 0 106.12168152 0 7646.51518244 0 993.79121072 0 2172.80984694 0 10882
0.10050000 0.10051200 17453.21842969 0 -100.55567524 0 7633.03937815 0 1323.77872056 0 2704.58837582 0 10875
0.10150000 0.10150300 17306.48189407 0 -224.21187367 0 6317.23522819 0 1086.42821499 0 2484.66103154 0 11118
0.10250000 0.10250800 17388.44583951 0 210.17374569 0 6381.69726486 0 550.63356369 0 2857.90199124 0 11575
0.10350000 0.10349800 17152.64699240 0 371.40869397 0 5504.30594787 0 -1064.90685643 0 2532.85228228 0 11364
0.10450000 0.10450100 16396.11644856 0 272.61496627 0 6241.20507311 0 184.32903856 0 2477.19665599 0 12093
0.10550000 0.10551000 16326.13099581 0 104.14245742 0 6174.26969953 0 252.96802000 0 1457.30564062 0 12067
0.10650000 0.10649700 16103.08702519 0 -108.62307917 0 5598.47020996 0 536.20169822 0 1026.91396128 0 12054
0.10750000 0.10749900 16610.50928557 0 -87.39075720 0 4498.37874946 0 680.99394702 0 1023.67200441 0 12807
0.10850000 0.10850100 16240.72877931 0 232.79978746 0 4628.22339213 0 -420.04137434 0 497.29045197 0 12736
0.10950000 0.10950300 15983.52392208 0 357.27850905 0 4613.32791463 0 -504.70602625 0 -5.12804818 0 12933
0.11050000 0.11050200 15315.27930595 0 443.96397704 0 5403.02113734 0 -404.46711559 0 -596.89827352 0 13428
0.11150000 0.11150900 14814.84449965 0 431.59951068 0 5385.55250215 0 67.59263791 0 379.87793196 0 13453
0.11250000 0.11250000 14530.68803384 0 415.79344591 0 5616.40467543 0 419.09751348 0 -381.91760307 0 13668
0.11350000 0.11349100 13922.89044107 0 165.34423675 0 5499.75855712 0 328.29277495 0 845.56956382 0 13791
0.11450000 0.11448600 13631.85743315 0 180.45931995 0 5339.63494678 0 499.64067660 0 679.50772663 0 14205
0.11550000 0.11549300 13797.67082753 0 -107.34692605 0 5107.05254678 0 781.95822196 0 1842.62491380 0 14776
0.11650000 0.11649800 13890.06049811 0 -124.90573267 0 4369.48794972 0 419.70309284 0 1128.56256307 0 14553
0.11750000 0.11747300 13652.93070735 0 76.29623289 0 3888.44055568 0 279.72996911 0 1093.63416564 0 14568
0.11850000 0.11849100 13993.43045366 0 -109.50338747 0 3707.43222149 0 197.98008377 0 1839.49719626 0 16015
0.11950000 0.11950300 13984.44658414 0 -30.13500393 0 3581.87987203 0 268.36038312 0 1338.47455651 0 15270
0.12050000 0.12050700 13833.49539367 0 106.16271895 0 3423.90795390 0 326.13997362 0 1052.20632680 0 15999
0.12150000 0.12150000 13879.41294904 0 157.36412054 0 3327.85818833 0 -164.96824517 0 524.42617442 0 15670
0.12250000 0.12250700 13426.33755370 0 381.18447496 0 3554.19624445 0 -511.06904594 0 1313.14226268 0 16887
0.12350000 0.12352200 13120.77507778 0 218.09064207 0 4401.07567863 0 -455.79717507 0 1177.87402470 0 16407
0.12450000 0.12449800 12857.02641435 0 234.81173059 0 4394.88679073 0 -3.00164390 0 113.51950988 0 16306
0.12550000 0.12549900 12751.99277925 0 240.71557473 0 4496.21596605 0 -323.43261245 0 63.36201175 0 17523
0.12650000 0.12650100 12324.98169674 0 3.19691552 0 4501.80592931 0 463.54881261 0 600.49625781 0 17154
0.12750000 0.12750600 12436.55913804 0 50.68665914 0 4272.98344508 0 508.42601370 0 558.93532461 0 18007
0.12850000 0.12850300 12426.57706079 0 41.79462472 0 3918.37569625 0 143.04427616 0 575.26267563 0 17496
0.12950000 0.12949900 12455.08143695 0 -64.62219355 0 3308.30440811 0 284.32948849 0 -280.61061015 0 18405
0.13050000 0.13049000 12461.51433118 0 -11.34684904 0 3644.76695873 0 298.55283945 0 652.14907112 0 18100
0.13150000 0.13148800 12293.03904953 0 128.42829682 0 3206.09902823 0 -667.65900093 0 -237.07655301 0 19059
0.13250000 0.13249300 12225.27183618 0 300.45165237 0 3821.98210357 0 -233.53402470 0 -204.75236862 0 18957
0.13350000 0.13349100 12033.72686488 0 159.61896088 0 4025.96030664 0 -190.72200448 0 77.96579077 0 19468
0.13450000 0.13450700 11979.15817590 0 14.91499801 0 3852.57162475 0 138.21960549 0 -566.13018407 0 19953
0.13550000 0.13551000 11751.34499058 0 39.65768381 0 4235.48410819 0 339.91856759 0 192.86038725 0 19956
0.13650000 0.13649900 11758.55426860 0 340.07051699 0 4681.45004628 0 -455.92805119 0 -181.61058619 0 19723
0.13750000 0.13749600 11473.28868309 0 203.29831270 0 4394.02167737 0 -179.70290031 0 -151.55787894 0 20946
0.13850000 0.13851100 11241.81540278 0 86.80370015 0 4920.21024299 0 341.19516436 0 365.16102272 0 20955
0.13950000 0.13949800 11329.87950655 0 -133.30398700 0 4455.48909086 0 468.22042477 0 543.75813070 0 20506
0.14050000 0.14048300 11323.00296444 0 20.81252016 0 4464.96097305 0 131.60370651 0 319.11480947 0 21447
0.14150000 0.14148400 11421.27096940 0 96.49740628 0 4078.77658651 0 444.86347311 0 676.26244240 0 21771
0.14250000 0.14249400 11251.90839200 0 -66.11717598 0 4347.60501814 0 -61.92159800 0 929.44119514 0 22470
0.14350000 0.14350900 11258.34128623 0 76.56419621 0 4018.38501913 0 384.87007970 0 1229.65882326 0 22519
0.14450000 0.14449900 11375.90797388 0 51.34248162 0 4166.91832866 0 30.99457170 0 1197.42780492 0 22218
0.14550000 0.14550500 11271.87254651 0 44.66857568 0 3602.66477512 0 109.07582183 0 1142.07164096 0 23559
0.14650000 0.14650700 11159.29689748 0 62.57498041 0 4097.21015584 0 13.10591287 0 986.07839236 0 23044
0.14750000 0.14750500 10994.64807879 0 244.78937137 0 4075.49359222 0 -217.60928412 0 912.28422258 0 23649
0.14850000 0.14849900 10855.88611377 0 320.12410840 0 4363.08832908 0 -404.54808133 0 716.90835186 0 23640
0.14950000 0.14949500 10236.83095610 0 314.26573817 0 4611.02094566 0 -205.32467438 0 648.00207258 0 24457
0.15050000 0.15050000 10214.30473510 0 43.85536912 0 4621.91250107 0 255.58443336 0 483.96326972 0 24591
0.15150000 0.15149900 10189.78209865 0 -160.47741952 0 4113.01511149 0 777.08031354 0 1080.07517737 0 25020
0.15250000 0.15250500 10219.76160400 0 42.45399638 0 3672.83877821 0 655.14480341 0 695.55003390 0 25297
0.15350000 0.15350100 10103.48149520 0 62.11580486 0 3200.39815300 0 63.15527184 0 1148.41580561 0 25452
0.15450000 0.15450400 9982.43217170 0 182.30711336 0 3510.75202601 0 -135.09854267 0 887.95679120 0 26061
0.15550000 0.15549900 9846.68701225 0 199.04372955 0 3896.98077733 0 -123.06348486 0 1077.47429169 0 26128
0.15650000 0.15649500 9586.59844382 0 57.71492882 0 3446.80018440 0 -111.57522306 0 707.56290931 0 26331
0.15750000 0.15749700 9575.66252363 0 18.08940949 0 3859.80308516 0 234.16622293 0 516.59135290 0 27345
0.15850000 0.15849900 9711.25240632 0 20.55453892 0 3384.35674558 0 -20.81462749 0 967.97423158 0 26980
0.15950000 0.15949700 9584.60202837 0 48.12170894 0 3317.49901038 0 340.60622180 0 441.27658002 0 27777
0.16050000 0.16050000 9594.63956161 0 79.12537541 0 3198.49046713 0 291.13948341 0 903.15616749 0 28224
0.16150000 0.16150500 9378.92687216 0 111.06391888 0 2610.45738732 0 380.96154190 0 522.19684384 0 28075
0.16250000 0.16249700 9174.54938599 0 210.52090015 0 2866.34239212 0 63.90858594 0 887.62183705 0 28590
0.16350000 0.16349900 9015.31307141 0 132.87808504 0 2503.07241847 0 85.80737793 0 1094.27856419 0 29163
0.16450000 0.16449100 8666.83875449 0 64.18952595 0 2653.62432585 0 242.13302970 0 873.93086354 0 28996
0.16550000 0.16550500 8605.78171529 0 166.87038545 0 2395.66526723 0 -227.35733712 0 1276.13093847 0 30777
0.16650000 0.16650700 8407.94803533 0 144.08684867 0 2332.04616153 0 65.15812018 0 315.42587737 0 29211
0.16750000 0.16749900 8367.38752809 0 141.01569624 0 2815.34506855 0 -147.18018350 0 1221.26278717 0 30922
0.16850000 0.16850800 8070.43182100 0 135.57990061 0 2833.76754668 0 -63.42079509 0 694.66939286 0 30867
0.16950000 0.16949900 8180.96668978 0 -12.89118730 0 2804.46460434 0 211.30504778 0 1232.49816967 0 30852
0.17050000 0.17049200 8105.96801602 0 -147.90554778 0 2990.20887963 0 219.76541281 0 834.51274958 0 31257
0.17150000 0.17149500 8407.79275857 0 -78.34056232 0 2351.74412731 0 472.14449025 0 999.33459095 0 32608
0.17250000 0.17250900 8457.48132090 0 32.41302487 0 2549.57780728 0 90.98885240 0 1688.41291143 0 32361
0.17350000 0.17350400 8351.36074850 0 178.11242267 0 2426.22151482 0 -391.48819692 0 1148.13852569 0 32508
0.17450000 0.17449800 8257.24085119 0 89.10024339 0 2678.15805350 0 390.51106247 0 1871.63948501 0 32791
0.17550000 0.17549800 8119.33290834 0 -3.87221413 0 2487.72220190 0 194.95329612 0 1620.83424842 0 33633
0.17650000 0.17650100 8162.15601976 0 60.81957667 0 2281.66994499 0 244.22039296 0 1988.59615683 0 33984
0.17750000 0.17750300 8182.48618376 0 58.28845462 0 2564.29582563 0 247.50560550 0 2221.95494062 0 34069
0.17850000 0.17849800 7931.22620810 0 66.08334783 0 1898.69091437 0 -60.31936369 0 2189.05845047 0 34536
