### header ###
fiducial parameters:
Omega_m = 0.31
Omega_nu = 0
Omega_de = 0.69
Omega_k = 0
H_0 = 100
w_de = -1
zeff = 0
beta = 0
fgrowth = 0
b_1 = 2
gamma = 0.55
Lx = 3500 Ly = 3500 Lz = 3500
nx = 700 ny = 700 nz = 700
xoffset = 1379.75464 yoffset = 22.6059522 zoffset = 368.141391
bins = 400 dk = 0.001
kx_ny = 0.628318531 ky_ny = 0.628318531 kz_ny = 0.628318531
############################
A(data) = 3.31278906 (not used)
A(ran) = 3.31215887 (used)
Ngal = 186240
weighted Ngal = 0
Nran = 9399747
weighted Nran = 0
SN(data) = 6733.85717
SN(ran) = 131.742387
SN(data+ran) = 6865.59956
############################
13 columns: k_central k_mean P_0(k) sigma^{lin}_{P_0(k)} P^img_1(k) sigma^{lin}_{P_1(k)} P_2(k) sigma^{lin}_{P_2(k)} P^img_3(k) sigma^{lin}_{P_3(k)} P_4(k) sigma^{lin}_{P_4(k)} N_modes
### header ###
0.00050000 0 0 0 0 0 0 0 0 0 0 0 0
0.00150000 0.00179520 10861.15443232 0 -8182.78564608 0 -2956.45836732 0 -5764.77161701 0 -26572.84420840 0 3
0.00250000 0.00253879 13810.75843993 0 -4892.60425378 0 -694.83797905 0 -7156.55046605 0 7024.28794245 0 6
0.00350000 0.00331552 28085.46164820 0 -9820.97761773 0 -1483.89123970 0 -11982.59644695 0 -24146.53396401 0 7
0.00450000 0.00420575 33772.47288340 0 -8705.74667339 0 7455.56913578 0 -18680.23754807 0 -2576.68469262 0 24
0.00550000 0.00557378 57208.94841878 0 -9622.89993143 0 6558.29130267 0 -17371.58722015 0 -5911.25305510 0 45
0.00650000 0.00659388 65596.99884678 0 -78.75049296 0 46542.98796155 0 -13755.52427912 0 -5163.15182094 0 40
0.00750000 0.00754703 74870.68135110 0 6246.72848919 0 38348.58983227 0 -14279.80515887 0 -21652.90015414 0 57
0.00850000 0.00846663 74134.00404980 0 6804.42714534 0 68432.90699447 0 7627.63796523 0 6701.75593519 0 75
0.00950000 0.00948925 58649.36216645 0 6710.80635190 0 68300.14536700 0 18948.97725013 0 19079.07699033 0 112
0.01050000 0.01054430 66635.57852901 0 -108.40613536 0 58113.32461794 0 25527.38798406 0 16042.19635394 0 105
0.01150000 0.01145670 61038.62781303 0 1956.18767935 0 52491.08597291 0 31828.74061822 0 10064.46266433 0 144
0.01250000 0.01249090 61464.52977584 0 -947.23923888 0 45178.54891298 0 11568.22932897 0 38688.31319479 0 169
0.01350000 0.01339930 64312.19459230 0 -2370.98735402 0 33764.26539766 0 22758.58157791 0 34521.46141331 0 180
0.01450000 0.01448870 67751.68567791 0 -4039.04791904 0 25853.46917434 0 13823.84605233 0 22527.88468138 0 267
0.01550000 0.01550050 73170.40085894 0 -2150.46108509 0 7738.48338753 0 -4591.54480382 0 -3116.91471357 0 238
0.01650000 0.01653350 76038.25165384 0 1302.27288968 0 27470.45477742 0 -5972.79810697 0 17414.84288825 0 315
0.01750000 0.01747870 75649.72702474 0 -578.09093086 0 13692.52628046 0 -4750.30419694 0 2306.07057828 0 297
0.01850000 0.01844180 79316.92038370 0 -120.45039886 0 44836.38548713 0 -7862.73806694 0 3021.81879094 0 388
0.01950000 0.01947590 85545.84750179 0 387.82921105 0 40672.75015277 0 -5869.00668592 0 -9535.54566426 0 399
0.02050000 0.02045430 81002.33867195 0 4738.15933628 0 51409.36153455 0 609.96148529 0 -7246.78844442 0 462
0.02150000 0.02154770 80679.58484076 0 4799.07218992 0 68672.14411265 0 -8333.49283021 0 326.31854189 0 571
0.02250000 0.02255340 72904.32304415 0 2598.44562103 0 50137.97762838 0 3014.40987138 0 -18194.33220977 0 510
0.02350000 0.02348930 77934.29177214 0 -2459.43964968 0 75624.55000767 0 17932.69087376 0 8223.16869417 0 555
0.02450000 0.02439640 71400.13491403 0 -665.89439150 0 44013.08593766 0 8766.94789815 0 -20189.52762879 0 592
0.02550000 0.02547300 80017.10764704 0 871.49634581 0 50274.39935084 0 3592.56069470 0 -1770.41013047 0 837
0.02650000 0.02652900 70625.30389523 0 2894.90222426 0 36187.58101887 0 1177.67438316 0 -18933.56048637 0 723
0.02750000 0.02749970 69301.34771552 0 4259.33018163 0 43379.11312010 0 -3657.52183522 0 -3533.30042940 0 826
0.02850000 0.02848090 67552.04413284 0 2397.34003796 0 40431.18388323 0 9730.27380908 0 -15264.59253590 0 831
0.02950000 0.02946900 61847.95245434 0 -85.27677506 0 31259.20765493 0 9858.62114017 0 981.96244917 0 996
0.03050000 0.03053250 63699.62778485 0 -526.82187296 0 29575.00939834 0 9116.84188827 0 1168.73487842 0 1041
0.03150000 0.03150510 62028.29531672 0 -391.29299185 0 23255.02355331 0 12038.49607957 0 2305.52710963 0 1036
0.03250000 0.03246190 63610.78729729 0 2279.34079363 0 23389.44886032 0 311.28109707 0 19961.04897166 0 1059
0.03350000 0.03345080 59150.01879669 0 2929.40693796 0 22640.57124238 0 -2036.43248927 0 5609.52813332 0 1302
0.03450000 0.03451200 56648.28841305 0 1690.15422935 0 29248.48456019 0 421.18709499 0 17380.01652983 0 1339
0.03550000 0.03553350 55860.81342972 0 1797.30628307 0 27750.28567642 0 -363.28771956 0 7249.76088521 0 1365
0.03650000 0.03647120 53990.17215244 0 922.35059293 0 30484.37663613 0 2682.63889706 0 16247.60532142 0 1308
0.03750000 0.03744890 53946.58374843 0 1754.48317165 0 31901.72069414 0 2291.25273915 0 11947.65917656 0 1579
0.03850000 0.03847530 48090.54267174 0 3030.23700942 0 30085.42628190 0 2785.99776142 0 9792.99452783 0 1662
0.03950000 0.03950240 47496.16542728 0 1400.14161155 0 30037.29048715 0 2559.17169264 0 18202.87243142 0 1683
0.04050000 0.04050350 42867.58711685 0 589.67235871 0 26209.82933228 0 9988.19959412 0 14752.62288477 0 1822
0.04150000 0.04152450 44815.97768474 0 659.08439657 0 25643.06916823 0 5016.44855891 0 24338.52258318 0 1887
0.04250000 0.04250150 40988.84926579 0 703.77193819 0 15149.46591158 0 2696.41416367 0 12090.73561720 0 1920
0.04350000 0.04349210 41517.12297643 0 1290.44967373 0 22154.55499211 0 693.10775233 0 22940.92085573 0 2005
0.04450000 0.04448520 38521.27976875 0 1272.02719560 0 13370.43792108 0 -1444.91677363 0 5600.81045252 0 2151
0.04550000 0.04548030 39045.00608864 0 -656.93159524 0 21141.48506285 0 1890.72743496 0 15678.73782995 0 2274
0.04650000 0.04648670 39113.99333366 0 -159.73985493 0 15119.07603194 0 -1173.98101458 0 3207.29687750 0 2311
0.04750000 0.04749250 38879.96907806 0 426.78925857 0 15989.73499237 0 -270.00188027 0 -435.11098364 0 2568
0.04850000 0.04851840 38551.11508854 0 1206.70004557 0 18665.04260826 0 -1493.09693317 0 3928.47977667 0 2493
0.04950000 0.04949480 36064.13599684 0 1261.27982575 0 16019.90304807 0 -1900.25477314 0 -5355.55081440 0 2644
0.05050000 0.05050630 36604.61002413 0 985.55710610 0 21562.95054689 0 -238.37311393 0 711.95724154 0 2829
0.05150000 0.05149060 34503.38276229 0 211.43703302 0 17405.96993069 0 2838.13747828 0 -5836.54275246 0 2784
0.05250000 0.05249300 34244.84696142 0 838.01091310 0 21616.96467602 0 458.54668279 0 1868.25666994 0 3055
0.05350000 0.05348950 33619.19254157 0 11.91582744 0 14859.43111138 0 496.79800282 0 -4846.97506954 0 3009
0.05450000 0.05448610 34903.22041227 0 -189.32562279 0 20530.24919904 0 2550.77565655 0 2897.77484427 0 3336
0.05550000 0.05550870 34105.43061578 0 -49.25168008 0 15859.52434020 0 925.23541326 0 -840.38110189 0 3349
0.05650000 0.05647670 34156.56103372 0 225.54725378 0 16392.67817750 0 1804.30482834 0 1282.73020065 0 3324
0.05750000 0.05747970 33991.96767100 0 651.95053869 0 15830.35449223 0 738.31214373 0 403.56318304 0 3639
0.05850000 0.05849280 32925.65999640 0 462.89110463 0 13602.57667321 0 2582.62957418 0 239.90480823 0 3846
0.05950000 0.05951020 31547.80059952 0 166.44337436 0 13344.26269628 0 726.90817503 0 2899.43852381 0 3787
0.06050000 0.06049470 31652.94514659 0 435.48364786 0 11529.18831571 0 1138.45591075 0 485.58923919 0 3930
0.06150000 0.06148310 31566.43381040 0 218.54205379 0 10722.37028491 0 1921.54987128 0 2314.14496966 0 4083
0.06250000 0.06249100 30331.09629430 0 696.15339501 0 10294.97101051 0 -96.58901957 0 1622.27610403 0 4303
0.06350000 0.06350600 28881.58776514 0 946.62035009 0 9351.13233261 0 -503.31186279 0 1920.20783645 0 4470
0.06450000 0.06451750 28770.34305975 0 333.35036076 0 9162.42670773 0 669.29495248 0 28.55916667 0 4479
0.06550000 0.06550280 28370.94905764 0 -254.33889194 0 9378.78268660 0 1440.03664697 0 1948.02455839 0 4636
0.06650000 0.06648880 28389.13862064 0 266.06783271 0 8354.94320511 0 47.33933590 0 -1985.80117520 0 4653
0.06750000 0.06749660 28558.83393395 0 113.01596954 0 9655.19749694 0 -947.87920095 0 713.97694851 0 5220
0.06850000 0.06852730 28158.99628396 0 84.01126949 0 8943.88576306 0 -580.14612965 0 -1025.44770504 0 5029
0.06950000 0.06949320 28383.59302217 0 71.69516075 0 11032.36923961 0 -248.31859023 0 -1664.40047004 0 5040
0.07050000 0.07048030 27841.12257943 0 576.13444371 0 10700.27662059 0 -1536.68533718 0 -1748.02809502 0 5475
0.07150000 0.07148790 28108.42042588 0 597.40957770 0 12556.45497705 0 96.21779721 0 -1832.44319500 0 5509
0.07250000 0.07249820 27101.45065495 0 230.53052857 0 12208.19139288 0 1749.08175873 0 -297.81416574 0 5916
0.07350000 0.07351270 26826.83261851 0 -26.62353098 0 10895.63696363 0 1655.89352198 0 1285.27008475 0 5721
0.07450000 0.07449140 26458.16123195 0 481.93690803 0 11306.92072887 0 1560.58686660 0 1739.84279168 0 6028
0.07550000 0.07549160 26193.08162489 0 655.60730633 0 10182.49518225 0 429.71511632 0 4261.84788334 0 6183
0.07650000 0.07648840 25915.69078922 0 119.91025757 0 11220.07665676 0 1604.35272976 0 5173.47772530 0 6330
0.07750000 0.07749960 24382.88737097 0 676.32898959 0 10339.92363174 0 -525.80702844 0 5241.22275626 0 6583
0.07850000 0.07848650 24231.60344460 0 643.96044041 0 10631.72193225 0 -98.66052242 0 4066.88682338 0 6549
0.07950000 0.07947320 23667.17243190 0 227.86864130 0 11057.71262464 0 191.58046313 0 6403.70219960 0 6828
0.08050000 0.08048110 23558.47870181 0 -185.59232589 0 10131.73077382 0 1561.27452081 0 2344.45721092 0 7147
0.08150000 0.08149960 23923.93364126 0 -241.07825687 0 9611.72000491 0 459.05798697 0 3970.99233457 0 7386
0.08250000 0.08250610 23578.33194435 0 112.74423522 0 8002.24314216 0 931.71267228 0 1397.35772111 0 7227
0.08350000 0.08350160 23224.41184973 0 457.62167696 0 7693.58622229 0 -33.09313707 0 2843.76071513 0 7798
0.08450000 0.08449610 22983.62196398 0 343.09952288 0 7321.36565270 0 610.87318168 0 2810.04347641 0 7371
0.08550000 0.08548940 22472.20687270 0 403.22490153 0 7708.31533183 0 473.54530842 0 1101.16397925 0 8256
0.08650000 0.08650700 21681.62635423 0 313.04570650 0 6154.77137530 0 319.39541676 0 2584.37089210 0 8037
0.08750000 0.08749060 21573.81991990 0 112.99600539 0 7184.02336089 0 178.65478220 0 1544.40481025 0 8155
0.08850000 0.08849210 21495.73789338 0 154.09998128 0 7192.35284980 0 551.17814146 0 2714.37081153 0 8718
0.08950000 0.08949900 20741.98014878 0 366.84022994 0 6396.98093425 0 -119.48546472 0 1864.80730769 0 8571
0.09050000 0.09049190 20555.31530414 0 642.54409456 0 7817.81871930 0 -1139.49848326 0 2445.65329187 0 8932
0.09150000 0.09150830 20094.69789488 0 322.39447641 0 8516.00956719 0 -123.44280379 0 1403.46897063 0 9285
0.09250000 0.09250820 19578.62450088 0 35.75602255 0 8310.31222859 0 129.54961683 0 2044.20741833 0 9204
0.09350000 0.09350330 19930.54818005 0 221.72744555 0 8369.06229883 0 167.48927423 0 1768.41371502 0 9349
0.09450000 0.09448040 19429.00425405 0 152.44517469 0 8317.07785873 0 719.45378156 0 1246.77254015 0 9564
0.09550000 0.09549270 18702.97450182 0 602.39174337 0 8263.42973909 0 212.78128609 0 1911.90052993 0 10155
0.09650000 0.09649430 18949.19907407 0 204.84997115 0 7793.87282509 0 455.92250559 0 2805.81773037 0 9913
0.09750000 0.09749140 17940.45471163 0 -37.52761943 0 7086.40973655 0 1342.95540008 0 2482.37624497 0 10476
0.09850000 0.09850240 17951.32408464 0 167.94068595 0 6595.28044449 0 1057.75192528 0 2525.84264581 0 10575
0.09950000 0.09950330 17567.23593432 0 256.06246394 0 5420.31231338 0 161.21720236 0 2831.66021926 0 10882
0.10050000 0.10051200 17155.97435148 0 419.68978340 0 5842.98673788 0 -208.06420003 0 2118.17461078 0 10875
0.10150000 0.10150300 16520.33785438 0 392.50747792 0 5213.65004065 0 247.97365401 0 1752.44239141 0 11118
0.10250000 0.10250800 16103.97432094 0 137.88908782 0 5881.27354975 0 -63.70195694 0 1928.03822149 0 11575
0.10350000 0.10349800 15929.17705704 0 79.72629646 0 4973.96927460 0 757.30249115 0 1286.09083333 0 11364
0.10450000 0.10450100 15787.20973610 0 -36.08432198 0 5309.96599495 0 369.21152785 0 1355.04480476 0 12093
0.10550000 0.10551000 16242.61428279 0 237.16417346 0 3714.73022908 0 -40.77434552 0 1289.91729628 0 12067
0.10650000 0.10649700 15571.92960334 0 4.96798003 0 5177.83656570 0 93.65439977 0 2069.40661780 0 12054
0.10750000 0.10749900 15693.26729795 0 94.27417585 0 4700.02780117 0 80.41483797 0 1906.59893779 0 12807
0.10850000 0.10850100 15728.09365637 0 47.62881614 0 4581.19671707 0 204.15011663 0 2249.11728195 0 12736
0.10950000 0.10950300 15713.67510033 0 71.30009232 0 4621.08066130 0 5.89215401 0 1581.64904960 0 12933
0.11050000 0.11050200 15758.26171207 0 126.14572849 0 4994.24398262 0 181.80690038 0 2239.62321736 0 13428
0.11150000 0.11150900 15397.57598731 0 168.09929007 0 5075.99719532 0 -569.02720471 0 2174.38479691 0 13453
0.11250000 0.11250000 15396.24504368 0 262.78816577 0 5583.63018845 0 -24.30946365 0 1437.04202379 0 13668
0.11350000 0.11349100 15073.82394839 0 258.85744557 0 5826.43867204 0 -202.16035589 0 1877.70636974 0 13791
0.11450000 0.11448600 14688.62667838 0 211.34719433 0 5777.51540230 0 -28.96865366 0 1069.08823768 0 14205
0.11550000 0.11549300 14484.32683059 0 259.87339922 0 6325.79763224 0 -182.42357093 0 1463.58325809 0 14776
0.11650000 0.11649800 14194.62476630 0 75.82485702 0 5775.84063156 0 441.94648832 0 1149.68020206 0 14553
0.11750000 0.11747300 14209.59788218 0 27.34090960 0 5653.24963169 0 797.74764994 0 1504.67614278 0 14568
0.11850000 0.11849100 14110.55349344 0 -124.99668049 0 5031.76550189 0 877.57875821 0 1825.73302084 0 16015
0.11950000 0.11950300 14326.49909802 0 -143.09640479 0 4047.44395513 0 774.83545528 0 2157.51508635 0 15270
0.12050000 0.12050700 14311.85871805 0 55.86092434 0 3996.10280446 0 510.09634797 0 2393.91285811 0 15999
0.12150000 0.12150000 14123.08654599 0 105.94632970 0 3397.55526995 0 -20.64848136 0 1873.40298533 0 15670
0.12250000 0.12250700 14050.21738204 0 122.39690392 0 3141.30425566 0 234.46013965 0 2496.55079467 0 16887
0.12350000 0.12352200 13953.61305662 0 153.83157431 0 3345.98120414 0 -286.53885492 0 1703.30838893 0 16407
0.12450000 0.12449800 13802.21821828 0 180.25967840 0 2799.28501537 0 -242.89388581 0 1027.85449478 0 16306
0.12550000 0.12549900 13533.92216410 0 178.59045326 0 3520.96701839 0 -286.92371945 0 1112.86851939 0 17523
0.12650000 0.12650100 13191.20417840 0 164.44030419 0 3291.46797114 0 -100.82419312 0 388.96605873 0 17154
0.12750000 0.12750600 13044.46764277 0 135.26158326 0 3444.31575629 0 156.23060021 0 193.16206781 0 18007
0.12850000 0.12850300 12968.60385565 0 60.51534514 0 3143.97723412 0 207.01386368 0 -278.42009875 0 17496
0.12950000 0.12949900 12870.11402675 0 132.65293374 0 3421.22388424 0 257.40449877 0 409.80530868 0 18405
0.13050000 0.13049000 12434.00816274 0 252.67410328 0 3545.52292844 0 -300.48048948 0 -109.72787330 0 18100
0.13150000 0.13148800 12153.84452783 0 370.52916205 0 3331.59592170 0 -140.55762981 0 163.61955562 0 19059
0.13250000 0.13249300 12073.98790980 0 181.37656193 0 3954.41099513 0 -85.81270170 0 391.36841199 0 18957
0.13350000 0.13349100 11642.31852458 0 89.30997792 0 3678.01836718 0 245.78646997 0 819.95666271 0 19468
0.13450000 0.13450700 11871.24082959 0 -148.21942866 0 3733.40780474 0 548.23675603 0 976.88822657 0 19953
0.13550000 0.13551000 12020.86107642 0 -140.57093924 0 3038.91032543 0 491.25462259 0 1177.47474161 0 19956
0.13650000 0.13649900 12085.41184266 0 -2.13798349 0 3004.99344517 0 198.87181600 0 1087.82016020 0 19723
0.13750000 0.13749600 12022.96840384 0 183.61587460 0 3081.58925129 0 -228.73042730 0 1209.21774728 0 20946
0.13850000 0.13851100 11604.38663102 0 212.88887070 0 2954.70595820 0 -246.06485901 0 842.02370815 0 20955
0.13950000 0.13949800 11548.59791037 0 157.42734036 0 3696.01937983 0 -178.15567834 0 576.03129558 0 20506
0.14050000 0.14048300 11505.23133030 0 109.10587897 0 3476.82405454 0 -390.89703612 0 -14.25440632 0 21447
0.14150000 0.14148400 11231.50058962 0 251.26663038 0 3698.69235829 0 -209.70347894 0 -355.88323648 0 21771
0.14250000 0.14249400 11049.17240299 0 127.82826307 0 3735.98096243 0 -76.15992208 0 -578.93608006 0 22470
0.14350000 0.14350900 10736.97739129 0 71.45869643 0 3748.56947097 0 -145.81818452 0 -1043.72488850 0 22519
0.14450000 0.14449900 10982.72504207 0 124.09385706 0 4006.81690071 0 248.35186383 0 -742.58114544 0 22218
0.14550000 0.14550500 10637.62244903 0 124.15153128 0 3403.24505399 0 212.39974892 0 -912.27978610 0 23559
0.14650000 0.14650700 10627.97310768 0 15.69803651 0 3374.19720918 0 455.84264897 0 -705.93693984 0 23044
0.14750000 0.14750500 10649.00201709 0 -82.10125447 0 3270.56106489 0 110.29041881 0 -200.33363576 0 23649
0.14850000 0.14849900 10632.47613364 0 51.29334761 0 3006.93440463 0 355.35196814 0 -256.94421410 0 23640
0.14950000 0.14949500 10455.73791027 0 59.18417968 0 2719.17329981 0 266.69670358 0 -62.11802310 0 24457
0.15050000 0.15050000 10403.37636948 0 103.21955893 0 2701.71575581 0 -20.58060323 0 -322.54642581 0 24591
0.15150000 0.15149900 10207.42819299 0 228.40767347 0 2712.28566651 0 -90.72776563 0 -175.24423914 0 25020
0.15250000 0.15250500 10115.47107910 0 129.67272912 0 2973.30589549 0 -8.37392024 0 206.69998281 0 25297
0.15350000 0.15350100 9894.70080384 0 50.77871608 0 2311.01725212 0 284.32061553 0 -209.39292542 0 25452
0.15450000 0.15450400 9893.31440422 0 -55.02353897 0 2370.03351108 0 455.62747975 0 299.99025858 0 26061
0.15550000 0.15549900 9782.66862347 0 34.49340069 0 2264.84459922 0 365.67010866 0 -138.31609890 0 26128
0.15650000 0.15649500 9818.84810791 0 200.81610282 0 1911.97816831 0 -377.64971049 0 152.90545937 0 26331
0.15750000 0.15749700 9453.04934136 0 125.67102526 0 2105.18681915 0 -46.57903435 0 137.12157699 0 27345
0.15850000 0.15849900 9431.92061118 0 156.64984746 0 2354.83857126 0 -274.69900218 0 101.44263826 0 26980
0.15950000 0.15949700 9281.88999006 0 222.59810451 0 2628.60258553 0 -129.25348188 0 -226.11955954 0 27777
0.16050000 0.16050000 8992.52066168 0 178.17009690 0 2649.18784707 0 -82.36389401 0 212.58497191 0 28224
0.16150000 0.16150500 8695.47622501 0 237.36936061 0 3264.51636256 0 -133.67110562 0 -72.82380095 0 28075
0.16250000 0.16249700 8798.73526860 0 76.84369438 0 3125.13329051 0 26.21204757 0 501.46406938 0 28590
0.16350000 0.16349900 8558.01193004 0 -15.35154752 0 3157.24230567 0 306.15918232 0 476.46340234 0 29163
0.16450000 0.16449100 8618.73623333 0 29.85750218 0 3100.63283645 0 69.46926844 0 614.82275691 0 28996
0.16550000 0.16550500 8699.34705275 0 -36.74269543 0 2965.73060797 0 212.50955177 0 673.41422303 0 30777
0.16650000 0.16650700 8635.71685586 0 29.65719517 0 2979.43932740 0 175.71894237 0 352.02793642 0 29211
0.16750000 0.16749900 8694.37819651 0 68.52518575 0 2803.72149415 0 43.32909182 0 1010.71970462 0 30922
0.16850000 0.16850800 8477.30128984 0 70.51539013 0 2512.77721580 0 214.79433834 0 610.22878313 0 30867
0.16950000 0.16949900 8497.38744752 0 -43.66415688 0 2136.46399455 0 601.02087143 0 1160.67157824 0 30852
0.17050000 0.17049200 8518.20562419 0 -127.08293463 0 2018.54238859 0 406.73193801 0 902.37645635 0 31257
0.17150000 0.17149500 8514.83390032 0 113.96870336 0 1542.30857403 0 103.98640428 0 728.53525362 0 32608
0.17250000 0.17250900 8410.66537858 0 157.69463821 0 1435.88853931 0 -225.44188741 0 997.94930045 0 32361
0.17350000 0.17350400 8110.62631874 0 129.35441177 0 1448.31067989 0 -200.70075438 0 242.51900335 0 32508
0.17450000 0.17449800 8090.93944415 0 171.36564757 0 1742.28285501 0 -57.06576107 0 414.88729512 0 32791
0.17550000 0.17549800 7873.38561601 0 116.84575985 0 1507.87040750 0 -56.44154850 0 -252.43453342 0 33633
0.17650000 0.17650100 7641.45759663 0 130.80181297 0 1710.00747189 0 -93.23182516 0 243.60261329 0 33984
0.17750000 0.17750300 7624.64334206 0 153.66298812 0 1853.40555723 0 22.94424821 0 -131.80112981 0 34069
0.17850000 0.17849800 7487.57833017 0 43.49856531 0 1862.92180421 0 42.73770920 0 306.52851918 0 34536
