### header ###
fiducial parameters:
Omega_m = 0.31
Omega_nu = 0
Omega_de = 0.69
Omega_k = 0
H_0 = 100
w_de = -1
zeff = 0
beta = 0
fgrowth = 0
b_1 = 2
gamma = 0.55
Lx = 3500 Ly = 3500 Lz = 3500
nx = 700 ny = 700 nz = 700
xoffset = 1379.75464 yoffset = 22.6059522 zoffset = 368.141391
bins = 400 dk = 0.001
kx_ny = 0.628318531 ky_ny = 0.628318531 kz_ny = 0.628318531
############################
A(data) = 3.26473292 (not used)
A(ran) = 3.26328442 (used)
Ngal = 183171
weighted Ngal = 0
Nran = 9399747
weighted Nran = 0
SN(data) = 6705.04607
SN(ran) = 129.798387
SN(data+ran) = 6834.84445
############################
13 columns: k_central k_mean P_0(k) sigma^{lin}_{P_0(k)} P^img_1(k) sigma^{lin}_{P_1(k)} P_2(k) sigma^{lin}_{P_2(k)} P^img_3(k) sigma^{lin}_{P_3(k)} P_4(k) sigma^{lin}_{P_4(k)} N_modes
### header ###
0.00050000 0 0 0 0 0 0 0 0 0 0 0 0
0.00150000 0.00179520 67117.26921247 0 -59999.38265898 0 -89060.09325484 0 87897.40307876 0 38956.60924897 0 3
0.00250000 0.00253879 87747.67191995 0 -42438.35779495 0 -5872.71114571 0 -133789.78142732 0 -4809.27609111 0 6
0.00350000 0.00331552 112773.07233014 0 -8752.58479810 0 -91772.66729246 0 8507.95735821 0 -60912.07725585 0 7
0.00450000 0.00420575 118534.94914474 0 2514.06379465 0 -36909.39611626 0 -56421.91708333 0 1789.22080049 0 24
0.00550000 0.00557378 98619.15225663 0 13780.59038423 0 -18272.08150038 0 -33795.65348502 0 -6349.44406413 0 45
0.00650000 0.00659388 79006.58869309 0 4776.35741857 0 26278.81657730 0 -1935.55805303 0 32593.03499992 0 40
0.00750000 0.00754703 70718.35903762 0 4976.20969638 0 -11478.27972172 0 4183.95440717 0 -25601.47717967 0 57
0.00850000 0.00846663 66975.85645138 0 4193.38192458 0 7149.96229507 0 -8561.01764441 0 9622.07918285 0 75
0.00950000 0.00948925 62623.89259284 0 3290.22575708 0 -9022.42252865 0 -1692.47228951 0 -15761.58907115 0 112
0.01050000 0.01054430 53986.95570532 0 3243.02162287 0 18404.39947997 0 -2242.27401343 0 5587.14609788 0 105
0.01150000 0.01145670 53145.68841680 0 3685.20546280 0 8959.42452999 0 -6804.97061399 0 5700.75322822 0 144
0.01250000 0.01249090 53873.04911266 0 -2345.05613555 0 11456.87371161 0 9438.15386386 0 9227.29911868 0 169
0.01350000 0.01339930 48836.53657847 0 -3120.17552547 0 4792.36201577 0 14917.32715945 0 18444.88234883 0 180
0.01450000 0.01448870 64181.42938028 0 -3226.36264506 0 4611.49786713 0 3612.56921399 0 14878.28614619 0 267
0.01550000 0.01550050 68835.96109157 0 -3055.99076873 0 9276.31111799 0 3541.51900634 0 9634.21295232 0 238
0.01650000 0.01653350 73607.61584264 0 -1527.19127259 0 9431.12204500 0 -789.37490536 0 20706.82105445 0 315
0.01750000 0.01747870 69706.17640413 0 2039.34947407 0 7788.50468577 0 -669.88389504 0 13314.31646452 0 297
0.01850000 0.01844180 72055.84647761 0 337.13024068 0 18448.32061989 0 1408.87038354 0 12115.69081033 0 388
0.01950000 0.01947590 77303.42448972 0 -582.30669482 0 24678.80050555 0 2350.70155480 0 8710.59352645 0 399
0.02050000 0.02045430 73429.04757177 0 1865.36186754 0 18617.57228532 0 -4803.22029758 0 1806.91125962 0 462
0.02150000 0.02154770 69550.01235110 0 3109.81634752 0 22751.26138792 0 -723.52646908 0 3616.20712659 0 571
0.02250000 0.02255340 65216.90352737 0 1457.07272548 0 13979.67736945 0 -2792.37519967 0 5982.02598283 0 510
0.02350000 0.02348930 64953.70942378 0 3979.86529213 0 28890.34981073 0 207.59060592 0 -3364.86951255 0 555
0.02450000 0.02439640 60039.08914406 0 1129.07275813 0 15764.14004645 0 9633.89130760 0 -3209.02710423 0 592
0.02550000 0.02547300 57907.91565046 0 339.03459919 0 20400.26037080 0 4030.79606851 0 -218.13389774 0 837
0.02650000 0.02652900 64700.83013336 0 -2007.19609411 0 7322.29731325 0 1140.80724450 0 -3694.32242670 0 723
0.02750000 0.02749970 54906.97049218 0 2217.09699636 0 16589.87965924 0 -1841.85962121 0 -4589.24892605 0 826
0.02850000 0.02848090 57825.95170501 0 5200.22969234 0 14618.53031367 0 -10843.96307705 0 -2909.33187149 0 831
0.02950000 0.02946900 51187.31577165 0 2380.75869853 0 19832.28017509 0 -1635.66317874 0 -9055.42993077 0 996
0.03050000 0.03053250 49804.24351221 0 509.60389882 0 22154.99863998 0 1205.67965545 0 -9816.59659493 0 1041
0.03150000 0.03150510 50148.51426548 0 -804.15614353 0 22037.09921642 0 1817.25934638 0 -11864.80793536 0 1036
0.03250000 0.03246190 50280.05586129 0 -1169.10088792 0 17942.11839117 0 4864.09987763 0 -4494.94047840 0 1059
0.03350000 0.03345080 51051.22678510 0 81.21473509 0 14814.62267571 0 3283.52667413 0 -9690.76696556 0 1302
0.03450000 0.03451200 53901.77531276 0 693.33068539 0 18438.67127854 0 -5170.81583803 0 -4835.76186943 0 1339
0.03550000 0.03553350 50033.38764116 0 856.49882929 0 18124.45766900 0 1621.13371074 0 -13363.78320291 0 1365
0.03650000 0.03647120 50328.52439195 0 1108.31114656 0 22343.99263598 0 -2815.87744600 0 -6073.41744568 0 1308
0.03750000 0.03744890 48474.40899812 0 795.50390079 0 18819.09933387 0 1614.80063728 0 -10392.38499330 0 1579
0.03850000 0.03847530 49499.01377219 0 222.99849672 0 18885.42469162 0 3928.81251257 0 -4138.26976694 0 1662
0.03950000 0.03950240 48968.96547004 0 -169.79291584 0 16474.64212295 0 5975.43781184 0 -2429.34923236 0 1683
0.04050000 0.04050350 49050.04211973 0 -357.50476947 0 14337.36847103 0 1577.94458982 0 2768.71767658 0 1822
0.04150000 0.04152450 46790.54347744 0 1956.24313533 0 18445.99146853 0 -683.76452802 0 404.26636492 0 1887
0.04250000 0.04250150 44814.75765308 0 3647.22920445 0 15117.85600027 0 -3886.08922193 0 -931.66165277 0 1920
0.04350000 0.04349210 41793.73742832 0 1464.06017956 0 21994.73084408 0 -1450.98365836 0 1966.39158054 0 2005
0.04450000 0.04448520 40253.94655600 0 460.47433282 0 18493.12905556 0 2528.11634118 0 -2073.37726630 0 2151
0.04550000 0.04548030 39644.81801960 0 300.96406567 0 19838.26942144 0 1799.91271435 0 847.23546160 0 2274
0.04650000 0.04648670 39896.36636639 0 154.98727703 0 17646.87072841 0 1630.15085386 0 -2291.25273915 0 2311
0.04750000 0.04749250 37999.43895234 0 987.59455898 0 15560.83840639 0 1069.13925718 0 -1310.90184090 0 2568
0.04850000 0.04851840 36626.90332999 0 868.11463986 0 15376.39180114 0 -296.57306080 0 -3083.17529245 0 2493
0.04950000 0.04949480 36375.35498321 0 737.54685114 0 13449.73997926 0 1456.21870332 0 -3163.55319674 0 2644
0.05050000 0.05050630 35184.04951900 0 -513.22850198 0 12452.08681377 0 2988.67829446 0 -1554.57543785 0 2829
0.05150000 0.05149060 35514.89992396 0 273.57435481 0 12613.68555331 0 1837.07931532 0 -2624.87594336 0 2784
0.05250000 0.05249300 34327.92002657 0 780.88015762 0 6393.74230474 0 -1029.68343316 0 -2008.17211945 0 3055
0.05350000 0.05348950 33565.62206031 0 879.01839558 0 11053.85288810 0 701.86425232 0 -3427.66786967 0 3009
0.05450000 0.05448610 33003.74202292 0 378.87528775 0 9860.80610597 0 -1506.87219978 0 -2053.56838855 0 3336
0.05550000 0.05550870 31832.62253715 0 534.25186580 0 11653.40972153 0 -79.71287611 0 -4921.64100740 0 3349
0.05650000 0.05647670 33098.34993289 0 15.61451980 0 10669.07708357 0 264.44851796 0 -2766.25543086 0 3324
0.05750000 0.05747970 32034.03867373 0 -228.98774307 0 11420.27276168 0 428.44850163 0 -2755.38605785 0 3639
0.05850000 0.05849280 32634.73790045 0 680.71223062 0 11744.02480059 0 330.45555835 0 -4995.30873753 0 3846
0.05950000 0.05951020 31985.23740716 0 -24.17237645 0 12084.63545887 0 -167.40054466 0 -1700.83505201 0 3787
0.06050000 0.06049470 32077.51616577 0 487.62003735 0 12698.42229799 0 295.96748144 0 -1677.72099757 0 3930
0.06150000 0.06148310 31494.11920629 0 539.02773520 0 13969.69529219 0 16.12482577 0 -353.03945358 0 4083
0.06250000 0.06249100 30803.58128430 0 743.68471953 0 13793.23434875 0 645.53206302 0 -230.42516220 0 4303
0.06350000 0.06350600 30015.66265310 0 515.89482573 0 13754.41515943 0 1386.35525374 0 3000.08004492 0 4470
0.06450000 0.06451750 29591.31345786 0 -97.19337889 0 13318.19838346 0 2025.92912576 0 4287.74582821 0 4479
0.06550000 0.06550280 29914.28911299 0 -211.32833929 0 11454.43364828 0 3680.58043368 0 5977.20131215 0 4636
0.06650000 0.06648880 29806.14994274 0 -93.76154073 0 9985.00532939 0 1198.98057250 0 5136.86568418 0 4653
0.06750000 0.06749660 29477.51777717 0 42.49192828 0 9802.55513960 0 336.95610889 0 6951.77369680 0 5220
0.06850000 0.06852730 29588.20792271 0 271.49031890 0 8826.19707224 0 291.84488354 0 4132.30270298 0 5029
0.06950000 0.06949320 29002.59272385 0 232.15095244 0 8738.06642129 0 -1798.94778021 0 2555.15667934 0 5040
0.07050000 0.07048030 29098.75340139 0 797.03115861 0 9067.13114355 0 -2033.64859884 0 -572.84257646 0 5475
0.07150000 0.07148790 27572.93743722 0 758.94287917 0 10512.29192351 0 -449.18460345 0 -3557.87852184 0 5509
0.07250000 0.07249820 26832.60004093 0 668.58067940 0 9405.26846491 0 -157.51939730 0 -2914.84419637 0 5916
0.07350000 0.07351270 26288.79865456 0 184.23365427 0 8991.38935959 0 921.59750066 0 -4252.57564269 0 5721
0.07450000 0.07449140 25693.20137844 0 724.20414121 0 9545.07300244 0 1180.40281761 0 -2236.00748716 0 6028
0.07550000 0.07549160 24714.73598366 0 148.31037647 0 8335.27851292 0 1166.61645980 0 -1442.38798072 0 6183
0.07650000 0.07648840 24641.42317184 0 269.99633467 0 7904.05277558 0 759.01275372 0 -1182.36595947 0 6330
0.07750000 0.07749960 23758.23115885 0 850.94990346 0 8543.75974196 0 -213.02418331 0 -256.95641442 0 6583
0.07850000 0.07848650 23233.17389532 0 678.53946514 0 9449.07869286 0 -490.10890195 0 1795.52060036 0 6549
0.07950000 0.07947320 22863.72612497 0 -95.45716292 0 9077.73432783 0 1430.39839682 0 2444.06725071 0 6828
0.08050000 0.08048110 22542.30323742 0 -270.23923188 0 8395.30407081 0 1437.53003646 0 233.07595827 0 7147
0.08150000 0.08149960 23084.55185621 0 498.53377515 0 9224.58177543 0 -25.10847348 0 3852.29434483 0 7386
0.08250000 0.08250610 22139.47096426 0 374.79372727 0 7543.21177406 0 205.76610402 0 1957.74044692 0 7227
0.08350000 0.08350160 22010.81307966 0 248.28088016 0 9249.01568230 0 -413.56300621 0 3176.08624929 0 7798
0.08450000 0.08449610 21776.67791208 0 208.42355481 0 9123.24150891 0 -101.52981507 0 1791.74959339 0 7371
0.08550000 0.08548940 21473.77732342 0 206.54026957 0 8630.29326055 0 -97.94913305 0 73.70178010 0 8256
0.08650000 0.08650700 21499.61981231 0 37.17192475 0 8932.58383337 0 -396.57683808 0 443.51034709 0 8037
0.08750000 0.08749060 21065.39945179 0 -17.83453378 0 7861.89513598 0 656.28054198 0 -1690.16532055 0 8155
0.08850000 0.08849210 21233.65290949 0 154.48595493 0 8003.15262031 0 911.58547717 0 -107.26241113 0 8718
0.08950000 0.08949900 20516.60702679 0 187.15729378 0 6721.43171858 0 1203.03995058 0 -909.98723569 0 8571
0.09050000 0.09049190 20344.58256212 0 191.38193070 0 5591.70457983 0 1545.28101481 0 441.32427217 0 8932
0.09150000 0.09150830 19743.77242344 0 453.80186874 0 5032.50861209 0 -55.84972223 0 -419.28717295 0 9285
0.09250000 0.09250820 19010.42248122 0 741.10379800 0 4728.15507663 0 39.43852176 0 -226.31920109 0 9204
0.09350000 0.09350330 17668.83129837 0 839.39398536 0 5328.95412412 0 -1017.74486876 0 692.78610762 0 9349
0.09450000 0.09448040 17280.41758124 0 295.59592635 0 4612.26315972 0 148.38912397 0 -186.53618675 0 9564
0.09550000 0.09549270 16789.74302825 0 -121.92330981 0 4861.68199669 0 1392.83251276 0 553.73688060 0 10155
0.09650000 0.09649430 17218.97235015 0 -279.89744619 0 3548.63955478 0 1163.51092466 0 -170.56929963 0 9913
0.09750000 0.09749140 17256.57150780 0 -19.66557948 0 3273.55568807 0 424.50447200 0 979.06986501 0 10476
0.09850000 0.09850240 17055.93175501 0 571.99188165 0 3689.65303278 0 -985.56708818 0 423.78243507 0 10575
0.09950000 0.09950330 16345.42967850 0 509.41091199 0 4575.57348022 0 -593.62858866 0 1402.71476924 0 10882
0.10050000 0.10051200 15681.17789328 0 258.88961005 0 5625.57709530 0 -246.17798922 0 1701.32306468 0 10875
0.10150000 0.10150300 15867.51000201 0 8.11845670 0 4597.95551566 0 798.91333474 0 2103.62296038 0 11118
0.10250000 0.10250800 16011.91738627 0 -506.69356874 0 4306.12394156 0 2019.05258365 0 2621.20475717 0 11575
0.10350000 0.10349800 16620.93501070 0 -204.64145665 0 3569.59082582 0 819.50968747 0 3052.04230262 0 11364
0.10450000 0.10450100 16455.89800011 0 255.92271486 0 3502.20071316 0 -331.60904284 0 2382.25601011 0 12093
0.10550000 0.10551000 16104.86161670 0 346.22502218 0 3460.25380630 0 -610.18220011 0 3170.70701877 0 12067
0.10650000 0.10649700 15683.95069251 0 263.26175988 0 3525.96914822 0 -814.39886392 0 2529.18109609 0 12054
0.10750000 0.10749900 15762.14363100 0 73.92515681 0 4292.49286051 0 -319.83906464 0 1468.76284707 0 12807
0.10850000 0.10850100 15680.84515737 0 -111.90352249 0 4016.11132375 0 515.17389793 0 670.49834735 0 12736
0.10950000 0.10950300 15896.90167392 0 -211.47917957 0 3467.19689559 0 370.34837554 0 264.81452746 0 12933
0.11050000 0.11050200 16278.10611303 0 -85.40687480 0 3585.15177513 0 55.44200983 0 -733.15251891 0 13428
0.11150000 0.11150900 15959.56693668 0 299.24049366 0 3475.63729647 0 -696.22548779 0 -348.15821780 0 13453
0.11250000 0.11250000 15668.42301678 0 382.10393518 0 3769.95329869 0 -369.85814463 0 -1389.86007198 0 13668
0.11350000 0.11349100 15357.75859026 0 291.88148449 0 4346.04115937 0 -706.14767258 0 -873.83104276 0 13791
0.11450000 0.11448600 15055.74529736 0 218.55425410 0 4648.97502162 0 200.82830314 0 -991.88463396 0 14205
0.11550000 0.11549300 14912.00338492 0 3.40219139 0 4669.24972964 0 666.50773469 0 -483.94219644 0 14776
0.11650000 0.11649800 14754.39747628 0 69.59415531 0 4112.26091010 0 329.30096475 0 -595.11037257 0 14553
0.11750000 0.11747300 14656.01855935 0 344.30180862 0 4241.65081370 0 430.95178478 0 -65.78954203 0 14568
0.11850000 0.11849100 14208.26693855 0 317.29363494 0 4321.69598207 0 -122.01869411 0 1173.89228500 0 16015
0.11950000 0.11950300 13833.38448170 0 247.51115110 0 4226.11204677 0 380.40254557 0 1290.64931527 0 15270
0.12050000 0.12050700 13561.20650859 0 -39.86331460 0 4188.25779159 0 676.73825475 0 1609.82068985 0 15999
0.12150000 0.12150000 13471.92237316 0 17.49880325 0 4062.88290129 0 554.51991910 0 1628.35407995 0 15670
0.12250000 0.12250700 13535.47493167 0 183.66800322 0 4056.54982783 0 -119.93687644 0 2654.97745187 0 16887
0.12350000 0.12352200 13126.20976428 0 224.50246303 0 3843.32156650 0 -231.13167144 0 1789.55353640 0 16407
0.12450000 0.12449800 13055.00427987 0 212.04039414 0 4113.93568084 0 -307.29381177 0 1627.22277786 0 16306
0.12550000 0.12549900 12941.43042313 0 171.93129861 0 4575.70657458 0 -786.39802810 0 1042.69784366 0 17523
0.12650000 0.12650100 12908.37865622 0 161.93369368 0 4734.44378530 0 165.36752826 0 892.31784984 0 17154
0.12750000 0.12750600 12717.72098068 0 -19.81431244 0 5146.79230544 0 -171.55419792 0 812.47343213 0 18007
0.12850000 0.12850300 12458.74153194 0 259.41533278 0 4225.53530453 0 107.77903908 0 -395.99122288 0 17496
0.12950000 0.12949900 12507.87553442 0 174.48671039 0 5002.99493701 0 123.92637998 0 753.72779837 0 18405
0.13050000 0.13049000 11981.15459135 0 95.73777020 0 4803.18702399 0 311.20789517 0 338.14397608 0 18100
0.13150000 0.13148800 12210.63145621 0 -29.05272493 0 4324.90133799 0 1029.00132455 0 1389.51624487 0 19059
0.13250000 0.13249300 11835.52717542 0 54.43149088 0 3798.51313083 0 78.09755419 0 681.51966976 0 18957
0.13350000 0.13349100 11933.79518038 0 143.79736843 0 3732.79778891 0 253.65678333 0 1508.82425044 0 19468
0.13450000 0.13450700 11752.01046240 0 143.21064412 0 3941.91121617 0 -89.36909400 0 1430.60912956 0 19953
0.13550000 0.13551000 11546.15784704 0 -41.69125477 0 3404.16562333 0 132.03737231 0 1219.32182770 0 19956
0.13650000 0.13649900 11532.18293888 0 131.35970018 0 3287.78569376 0 168.33331432 0 745.45709281 0 19723
0.13750000 0.13749600 11785.17314127 0 -21.34789224 0 3338.28391346 0 -133.37718890 0 839.11892367 0 20946
0.13850000 0.13851100 11255.56848700 0 33.73143545 0 3053.07378394 0 345.64051610 0 236.41219031 0 20955
0.13950000 0.13949800 11545.38146325 0 143.60105425 0 3360.69922249 0 -226.79279520 0 462.49625802 0 20506
0.14050000 0.14048300 11161.29331294 0 108.07728137 0 2927.95399116 0 29.44180412 0 -5.44453549 0 21447
0.14150000 0.14148400 10975.24957533 0 243.81889163 0 3230.71039426 0 225.73469501 0 -280.88899919 0 21771
0.14250000 0.14249400 10692.57932990 0 169.65760324 0 2882.85718437 0 -513.74978824 0 -348.54640970 0 22470
0.14350000 0.14350900 10479.00724147 0 255.05760150 0 3402.85686209 0 -207.52294962 0 -675.46387622 0 22519
0.14450000 0.14449900 10073.37998668 0 203.47688097 0 3507.89049719 0 -423.29331329 0 -1112.97943136 0 22218
0.14550000 0.14550500 10409.89799328 0 -28.24761495 0 3352.08136246 0 153.44116418 0 -934.26032022 0 23559
0.14650000 0.14650700 10241.56689720 0 -125.17413964 0 3182.10876923 0 377.40792240 0 -1821.10799172 0 23044
0.14750000 0.14750500 10362.60512950 0 -11.93390609 0 2987.35844202 0 161.26600363 0 -1040.90217887 0 23649
0.14850000 0.14849900 10391.13168805 0 66.94602113 0 2881.04931927 0 327.97445760 0 -887.17929829 0 23640
0.14950000 0.14949500 10276.38216442 0 34.59577243 0 2531.29951471 0 517.00727278 0 -536.45568663 0 24457
0.15050000 0.15050000 10262.21870592 0 4.14011091 0 2045.60490915 0 774.75116218 0 144.47836793 0 24591
0.15150000 0.15149900 10001.15411215 0 109.42308720 0 1943.78772116 0 272.70924144 0 299.64754059 0 25020
0.15250000 0.15250500 10184.91306319 0 123.53707897 0 1970.88351531 0 243.51942931 0 1137.73498295 0 25297
0.15350000 0.15350100 9617.64270408 0 208.82061966 0 1379.38998206 0 115.32293851 0 697.11943827 0 25452
0.15450000 0.15450400 9443.01180813 0 251.67922291 0 1850.22238371 0 -207.05601023 0 1297.31512464 0 26061
0.15550000 0.15549900 9127.70017008 0 157.45174100 0 1583.16854359 0 -126.63595940 0 563.87201637 0 26128
0.15650000 0.15649500 9067.82988896 0 149.07899642 0 2229.67441370 0 -194.53626711 0 913.55305551 0 26331
0.15750000 0.15749700 8738.37697481 0 163.89683554 0 1881.44410311 0 -179.21821501 0 135.59986477 0 27345
0.15850000 0.15849900 8906.53061174 0 9.37228325 0 1991.04731136 0 110.79296094 0 503.94738838 0 26980
0.15950000 0.15949700 8538.85743291 0 1.87584305 0 2184.11177663 0 125.43145541 0 -41.92028799 0 27777
0.16050000 0.16050000 8672.75036247 0 151.20406976 0 1949.79914991 0 -197.04509586 0 423.31327744 0 28224
0.16150000 0.16150500 8639.94260189 0 17.51222360 0 1971.67099029 0 212.47849642 0 81.72359921 0 28075
0.16250000 0.16249700 8677.29775321 0 -97.63159208 0 2016.12450766 0 225.94320951 0 387.08166437 0 28590
0.16350000 0.16349900 8639.87605471 0 126.70250658 0 1900.85369777 0 -40.65544789 0 373.51158491 0 29163
0.16450000 0.16449100 8650.90070448 0 174.17393864 0 2083.40370834 0 -466.66987543 0 173.08811045 0 28996
0.16550000 0.16550500 8429.65350775 0 95.28624757 0 2406.60118742 0 -248.76223811 0 8.70908512 0 30777
0.16650000 0.16650700 8507.31406879 0 -13.06454271 0 2406.61227861 0 186.40420151 0 64.21292838 0 29211
0.16750000 0.16749900 8491.88621383 0 -69.56664915 0 2434.77282766 0 71.67741484 0 42.05016590 0 30922
0.16850000 0.16850800 8465.58898587 0 25.26319567 0 2106.06302371 0 202.64171384 0 42.49780661 0 30867
0.16950000 0.16949900 8713.99852392 0 -1.88100046 0 2223.85153530 0 359.30154338 0 180.31513439 0 30852
0.17050000 0.17049200 8461.34105744 0 132.84037497 0 1880.63444574 0 18.58995520 0 311.01047186 0 31257
0.17150000 0.17149500 8339.18261425 0 140.94138522 0 2010.71200355 0 84.07426749 0 557.02320225 0 32608
0.17250000 0.17250900 8242.27882651 0 84.99849693 0 2062.87390279 0 165.00262788 0 1042.71891693 0 32361
0.17350000 0.17350400 8094.01170571 0 23.88478172 0 1601.75738967 0 265.54765557 0 781.95267636 0 32508
0.17450000 0.17449800 8153.51597733 0 59.12373266 0 2124.09730995 0 142.58510061 0 1226.60874409 0 32791
0.17550000 0.17549800 8012.97942080 0 87.07144164 0 1763.04557569 0 -195.90492082 0 903.02418225 0 33633
0.17650000 0.17650100 7969.41319919 0 88.37776282 0 1983.92676292 0 57.81852060 0 1309.62635325 0 33984
0.17750000 0.17750300 7800.59409044 0 66.68693077 0 1928.75914930 0 -219.26076335 0 806.84575879 0 34069
0.17850000 0.17849800 7859.63253180 0 42.43525226 0 2196.36754926 0 116.60840823 0 1132.21156687 0 34536
