### header ###
fiducial parameters:
Omega_m = 0.31
Omega_nu = 0
Omega_de = 0.69
Omega_k = 0
H_0 = 100
w_de = -1
zeff = 0
beta = 0
fgrowth = 0
b_1 = 2
gamma = 0.55
Lx = 3500 Ly = 3500 Lz = 3500
nx = 700 ny = 700 nz = 700
xoffset = 1379.75464 yoffset = 22.6059522 zoffset = 368.141391
bins = 400 dk = 0.001
kx_ny = 0.628318531 ky_ny = 0.628318531 kz_ny = 0.628318531
############################
A(data) = 3.30933111 (not used)
A(ran) = 3.31431021 (used)
Ngal = 186508
weighted Ngal = 0
Nran = 9399747
weighted Nran = 0
SN(data) = 6610.18496
SN(ran) = 131.827958
SN(data+ran) = 6742.01292
############################
13 columns: k_central k_mean P_0(k) sigma^{lin}_{P_0(k)} P^img_1(k) sigma^{lin}_{P_1(k)} P_2(k) sigma^{lin}_{P_2(k)} P^img_3(k) sigma^{lin}_{P_3(k)} P_4(k) sigma^{lin}_{P_4(k)} N_modes
### header ###
0.00050000 0 0 0 0 0 0 0 0 0 0 0 0
0.00150000 0.00179520 94366.78734668 0 -67739.37444930 0 -136305.26489518 0 154042.30705478 0 52017.49186322 0 3
0.00250000 0.00253879 155832.42624222 0 -60527.54545766 0 -15778.78042642 0 -156046.48634332 0 69556.88889321 0 6
0.00350000 0.00331552 188928.55793572 0 -30059.25105710 0 -134682.62278166 0 808.76897234 0 -41530.21058883 0 7
0.00450000 0.00420575 207090.39293843 0 -5221.30296654 0 -44443.53529122 0 -90089.24541966 0 3838.30834548 0 24
0.00550000 0.00557378 187899.29485892 0 22748.48858868 0 -19046.91251918 0 -57568.41411187 0 28632.81221759 0 45
0.00650000 0.00659388 143014.32992916 0 23308.81585851 0 86739.37120539 0 422.47478295 0 -83535.23531902 0 40
0.00750000 0.00754703 123301.94559309 0 25533.93179026 0 55895.19614026 0 -9695.42526827 0 24729.26545167 0 57
0.00850000 0.00846663 91336.45051649 0 19943.63579245 0 72050.85543898 0 8879.29063204 0 -3925.11914399 0 75
0.00950000 0.00948925 76724.35309706 0 11576.32590274 0 78208.35524873 0 18531.83733291 0 21245.40957826 0 112
0.01050000 0.01054430 78106.20532483 0 -538.18702248 0 85094.99034585 0 26656.13909748 0 22896.22333203 0 105
0.01150000 0.01145670 72656.10205645 0 -6572.31057561 0 37578.97167603 0 43580.41834471 0 10998.96255440 0 144
0.01250000 0.01249090 83053.65554753 0 353.61841406 0 67640.10823661 0 6474.26439459 0 27619.52046440 0 169
0.01350000 0.01339930 86073.67756456 0 3081.88871361 0 13071.30833939 0 6584.36670669 0 14959.69553179 0 180
0.01450000 0.01448870 77133.39644051 0 4765.61004873 0 51484.11620198 0 9906.91221168 0 47214.89267268 0 267
0.01550000 0.01550050 67195.24032702 0 4471.34950249 0 23187.69998783 0 7364.99842150 0 7056.71860232 0 238
0.01650000 0.01653350 72098.65849783 0 481.73504825 0 44175.12832508 0 21351.77415699 0 54638.45261406 0 315
0.01750000 0.01747870 65243.30057610 0 3664.32073895 0 21023.14199142 0 20851.45026266 0 29496.92737183 0 297
0.01850000 0.01844180 61156.19450068 0 -209.30308673 0 18619.67961274 0 17887.88243809 0 65039.66620013 0 388
0.01950000 0.01947590 55633.66571622 0 -44.47337061 0 14373.52577308 0 7111.38711208 0 36106.39345721 0 399
0.02050000 0.02045430 61136.56308208 0 1811.02609369 0 13458.16928894 0 -1041.83383942 0 38126.32224542 0 462
0.02150000 0.02154770 56717.49748200 0 -315.64991955 0 14030.14231556 0 -12121.45823274 0 27331.48207966 0 571
0.02250000 0.02255340 58705.37271103 0 2397.92787140 0 19631.08586245 0 -12768.40775073 0 1121.76365934 0 510
0.02350000 0.02348930 60488.17170849 0 -1.59407119 0 23851.61903715 0 -7269.99122844 0 -3278.92382739 0 555
0.02450000 0.02439640 60864.60693291 0 -2097.77789959 0 26530.80857197 0 1502.32480903 0 -21222.45080058 0 592
0.02550000 0.02547300 63661.14133144 0 -242.80848359 0 33813.51031211 0 -4654.72026164 0 -11440.68056406 0 837
0.02650000 0.02652900 67379.24328439 0 1102.33853701 0 25930.77481707 0 -545.08463786 0 -27124.85308051 0 723
0.02750000 0.02749970 63695.19130607 0 166.26813345 0 36127.46673141 0 942.99796517 0 -13314.53828846 0 826
0.02850000 0.02848090 65724.99125956 0 2028.15845635 0 32476.02287212 0 -2023.98816629 0 -19723.36462105 0 831
0.02950000 0.02946900 62044.59937624 0 2489.03096314 0 38570.63559517 0 5326.71370234 0 -1355.90991812 0 996
0.03050000 0.03053250 59335.01996178 0 2789.54694445 0 32296.78912944 0 6659.37647165 0 -6989.80541113 0 1041
0.03150000 0.03150510 57694.85375708 0 138.55566876 0 31429.56844006 0 6264.38567473 0 1529.69788310 0 1036
0.03250000 0.03246190 56259.09831213 0 928.41193206 0 27061.30052200 0 9472.92476630 0 4952.03088703 0 1059
0.03350000 0.03345080 54138.79419154 0 2310.64015142 0 24786.05238004 0 1654.65130792 0 5657.99666398 0 1302
0.03450000 0.03451200 49535.61472212 0 2803.45530542 0 22856.18411105 0 -2238.02608500 0 10662.96583405 0 1339
0.03550000 0.03553350 46231.32532731 0 3507.31375495 0 29873.14077231 0 514.20009084 0 7525.35494698 0 1365
0.03650000 0.03647120 41806.71412875 0 1232.81981439 0 26673.44136472 0 2931.93573087 0 9008.28125254 0 1308
0.03750000 0.03744890 41912.63505961 0 1261.03581942 0 31412.82073266 0 4319.71065782 0 11840.96186192 0 1579
0.03850000 0.03847530 41820.02356509 0 671.43888085 0 28580.01812012 0 1507.81495152 0 11606.82669435 0 1662
0.03950000 0.03950240 40922.08026016 0 89.17521988 0 28661.64932966 0 2617.63339175 0 14898.80486055 0 1683
0.04050000 0.04050350 41756.24918264 0 -348.27689361 0 28892.12440224 0 3853.19273178 0 12890.74365307 0 1822
0.04150000 0.04152450 41966.20554087 0 89.34924076 0 25113.68633789 0 642.71600811 0 12057.57293832 0 1887
0.04250000 0.04250150 42266.33333029 0 531.14411241 0 29379.24977221 0 2027.99208839 0 11657.18072849 0 1920
0.04350000 0.04349210 41484.40394544 0 351.18722369 0 24389.98573702 0 897.74588162 0 15053.97070585 0 2005
0.04450000 0.04448520 41169.96851195 0 33.15757692 0 24401.18784594 0 6011.51747551 0 8640.75225927 0 2151
0.04550000 0.04548030 41470.76177319 0 -671.93133000 0 17019.99627689 0 5206.64040418 0 9085.39834492 0 2274
0.04650000 0.04648670 40094.67696782 0 645.46995232 0 14735.87517738 0 1402.69258684 0 8227.31680183 0 2311
0.04750000 0.04749250 39189.74620882 0 691.16679286 0 14790.22204242 0 317.88257749 0 7947.13098452 0 2568
0.04850000 0.04851840 38809.09632956 0 951.75890164 0 14030.47505147 0 -460.60409982 0 4082.61414066 0 2493
0.04950000 0.04949480 36874.56975785 0 815.31277854 0 13248.43475465 0 -1017.60068320 0 -2188.80335294 0 2644
0.05050000 0.05050630 35282.53934790 0 1191.03927548 0 12257.54721930 0 -2931.76936291 0 -6765.66341201 0 2829
0.05150000 0.05149060 35102.64013340 0 446.97967349 0 13477.13523572 0 -3436.29682089 0 -8782.98576893 0 2784
0.05250000 0.05249300 34456.91064707 0 208.07307299 0 15794.41901412 0 -124.42992032 0 -9949.96823824 0 3055
0.05350000 0.05348950 35223.64509210 0 143.73414861 0 14206.49234704 0 -387.30237919 0 -14270.15581752 0 3009
0.05450000 0.05448610 34888.35820836 0 -621.72369965 0 14668.10796402 0 2365.40848195 0 -10519.60102230 0 3336
0.05550000 0.05550870 34553.62588446 0 275.17259629 0 10879.09998898 0 2335.95026286 0 -11410.73433230 0 3349
0.05650000 0.05647670 35131.80998137 0 512.83143713 0 11381.45357236 0 3011.02705631 0 -6361.96602549 0 3324
0.05750000 0.05747970 33406.57429608 0 1016.34848707 0 9373.95801593 0 1732.44496331 0 -4825.62451541 0 3639
0.05850000 0.05849280 32155.15454441 0 868.12129457 0 10899.35251461 0 551.27130752 0 -545.68467161 0 3846
0.05950000 0.05951020 30664.05402669 0 993.11908418 0 10998.19726181 0 1051.34786816 0 1412.98521761 0 3787
0.06050000 0.06049470 30568.44790900 0 524.62914333 0 10270.22655012 0 777.45519600 0 3780.37902382 0 3930
0.06150000 0.06148310 28962.22076695 0 51.70050545 0 9258.94230357 0 1278.80391693 0 1184.44001330 0 4083
0.06250000 0.06249100 29965.64135486 0 79.47519176 0 11201.99800574 0 -129.76478605 0 5346.95513677 0 4303
0.06350000 0.06350600 28996.82530143 0 -123.40953020 0 9250.61281467 0 1142.84802474 0 3514.02392911 0 4470
0.06450000 0.06451750 30163.28648448 0 207.87010408 0 9371.92832688 0 661.02202868 0 2659.97958170 0 4479
0.06550000 0.06550280 29539.73939205 0 299.53219214 0 9956.44549725 0 -1908.77281240 0 1860.58156166 0 4636
0.06650000 0.06648880 28965.54812604 0 386.14556735 0 9584.46893400 0 766.46160159 0 2680.65357281 0 4653
0.06750000 0.06749660 29409.97238775 0 351.44453946 0 11078.89681081 0 145.36122720 0 1980.33321511 0 5220
0.06850000 0.06852730 28176.74219908 0 161.32589609 0 10202.75879908 0 664.75976205 0 1114.96475561 0 5029
0.06950000 0.06949320 28119.28979889 0 885.65758607 0 11805.24820775 0 -1108.61393624 0 1884.15035517 0 5040
0.07050000 0.07048030 27134.39150989 0 569.08931541 0 10984.76582231 0 592.06362077 0 1995.00686867 0 5475
0.07150000 0.07148790 26664.56840716 0 256.60149612 0 10845.90403652 0 937.32038145 0 2172.58802301 0 5509
0.07250000 0.07249820 26039.57945913 0 136.41506774 0 9977.39676829 0 1510.73193632 0 1602.88869176 0 5916
0.07350000 0.07351270 25445.64586255 0 735.42510517 0 9118.37247345 0 19.62676030 0 2137.30692551 0 5721
0.07450000 0.07449140 25122.55929545 0 -6.39103605 0 9476.28539897 0 2243.20567397 0 4414.95076601 0 6028
0.07550000 0.07549160 23907.51866977 0 189.53524641 0 7766.16701511 0 1105.84446436 0 3319.57306421 0 6183
0.07650000 0.07648840 24095.95810592 0 714.47937973 0 7521.79467275 0 675.18659630 0 3356.34038209 0 6330
0.07750000 0.07749960 23111.50346480 0 714.70342191 0 8527.58877681 0 -969.06560536 0 3443.69464926 0 6583
0.07850000 0.07848650 21895.57554336 0 456.89964004 0 7215.62218100 0 318.62125121 0 3818.53274132 0 6549
0.07950000 0.07947320 22477.19791133 0 -467.58379006 0 8138.03266639 0 1281.16634188 0 3460.43126545 0 6828
0.08050000 0.08048110 22660.42448491 0 -556.53962607 0 5032.85243919 0 1570.04765760 0 2903.87500259 0 7147
0.08150000 0.08149960 23027.98675178 0 -58.80208795 0 4317.13750013 0 1318.53258440 0 3196.81569639 0 7386
0.08250000 0.08250610 23226.07552927 0 -241.87793217 0 4021.76783420 0 -61.16795117 0 2951.85552059 0 7227
0.08350000 0.08350160 23025.76851239 0 166.60752408 0 2732.32745939 0 512.12160053 0 2285.60731991 0 7798
0.08450000 0.08449610 23152.76271745 0 353.38217157 0 3529.65142561 0 -248.25647953 0 2663.06293445 0 7371
0.08550000 0.08548940 22212.00739230 0 279.37283257 0 2869.48120085 0 -851.09741638 0 -110.56958423 0 8256
0.08650000 0.08650700 21962.45546096 0 746.05269008 0 4630.77436743 0 -572.23810623 0 650.23473053 0 8037
0.08750000 0.08749060 21175.09138961 0 640.30256366 0 4510.92289321 0 -818.91187195 0 269.52828616 0 8155
0.08850000 0.08849210 20073.95735659 0 775.16153647 0 5788.05203940 0 -61.21819429 0 513.47361744 0 8718
0.08950000 0.08949900 19717.92993455 0 548.22344659 0 5930.31882265 0 -250.49579220 0 942.89814440 0 8571
0.09050000 0.09049190 18817.99021417 0 109.67962659 0 5601.52028912 0 523.32260033 0 1570.24729914 0 8932
0.09150000 0.09150830 19137.19486234 0 -126.58715813 0 5337.90472006 0 1558.33535362 0 1418.00952983 0 9285
0.09250000 0.09250820 18947.53539453 0 -39.06541389 0 4699.51760611 0 590.26351951 0 1864.74076051 0 9204
0.09350000 0.09350330 18530.50638927 0 296.09059373 0 4353.40571415 0 191.40965869 0 2362.10330526 0 9349
0.09450000 0.09448040 18145.86367911 0 467.65255548 0 4288.73294474 0 -422.14204705 0 1591.02111103 0 9564
0.09550000 0.09549270 17982.04670018 0 94.28360337 0 4475.47542776 0 -7.24951688 0 1938.16448431 0 10155
0.09650000 0.09649430 17771.53578211 0 277.39305391 0 4827.59874847 0 -541.28701202 0 -296.48765858 0 9913
0.09750000 0.09749140 17217.41958257 0 604.42808713 0 5621.57317321 0 -1491.11160892 0 -0.96022592 0 10476
0.09850000 0.09850240 16552.16958962 0 724.05551917 0 5550.87788386 0 -718.21711310 0 -923.05932042 0 10575
0.09950000 0.09950330 15947.36662003 0 198.63890086 0 7315.42077114 0 -460.66510141 0 -1031.11863404 0 10882
0.10050000 0.10051200 15832.23999571 0 -108.25196772 0 6255.19107246 0 818.20425359 0 -1230.69030457 0 10875
0.10150000 0.10150300 16039.97811455 0 27.35455177 0 6838.35511681 0 605.29209137 0 -1573.50811104 0 11118
0.10250000 0.10250800 16111.18359896 0 186.19568701 0 6084.60846340 0 -106.07044019 0 -726.01977015 0 11575
0.10350000 0.10349800 15383.26834325 0 136.47939669 0 5718.63223770 0 583.93155517 0 -1221.97262377 0 11364
0.10450000 0.10450100 15694.70915355 0 -57.74354411 0 5964.87899234 0 212.66926500 0 162.32521294 0 12093
0.10550000 0.10551000 15584.90630376 0 -66.26235975 0 4951.63160394 0 773.33703457 0 -981.12395468 0 12067
0.10650000 0.10649700 15873.05560048 0 213.68743688 0 5544.02352414 0 192.26700822 0 169.08529748 0 12054
0.10750000 0.10749900 15055.41256146 0 364.98245445 0 5062.18865512 0 -723.00407370 0 -221.20726841 0 12807
0.10850000 0.10850100 14836.02868582 0 392.00061022 0 5680.47852020 0 237.61447606 0 776.61891975 0 12736
0.10950000 0.10950300 14534.79177671 0 47.95456460 0 5625.15562982 0 263.60669611 0 -516.34734657 0 12933
0.11050000 0.11050200 14724.00759664 0 -179.02522818 0 5598.98040502 0 693.84642605 0 634.34770002 0 13428
0.11150000 0.11150900 14707.14897728 0 -103.46678171 0 5490.05375979 0 316.39081150 0 539.21184907 0 13453
0.11250000 0.11250000 14928.19653246 0 -142.97772898 0 5030.61201741 0 65.31672430 0 1069.73707270 0 13668
0.11350000 0.11349100 15212.79664615 0 62.91947299 0 5142.43346504 0 254.15921455 0 1071.83996364 0 13791
0.11450000 0.11448600 15123.29068678 0 139.21226762 0 5194.99464738 0 -237.55014712 0 823.76205238 0 14205
0.11550000 0.11549300 14956.03543680 0 276.56786886 0 5524.89120941 0 -209.47832764 0 1247.37146478 0 14776
0.11650000 0.11649800 14838.80148506 0 49.86746333 0 5558.02061469 0 56.22393922 0 1000.61007860 0 14553
0.11750000 0.11747300 14781.01634896 0 -62.12123955 0 5117.17880959 0 976.65420231 0 1405.94230755 0 14568
0.11850000 0.11849100 14685.96479111 0 -16.84098436 0 4897.48438044 0 834.33529043 0 1401.19527526 0 16015
0.11950000 0.11950300 14767.37417671 0 107.12044381 0 4299.67995613 0 475.70032799 0 1379.66726198 0 15270
0.12050000 0.12050700 14260.39556421 0 329.64479186 0 3876.75043410 0 329.59044499 0 2230.62825664 0 15999
0.12150000 0.12150000 13760.95896563 0 402.77570806 0 3699.38001250 0 38.25486922 0 1953.01559702 0 15670
0.12250000 0.12250700 13366.55600215 0 75.70551575 0 3529.28541611 0 453.96601845 0 2722.94430677 0 16887
0.12350000 0.12352200 13144.17750334 0 31.02961988 0 3501.24687022 0 679.60865652 0 2235.43074491 0 16407
0.12450000 0.12449800 13166.02716133 0 99.48348923 0 2505.81194412 0 163.68943016 0 2620.65019732 0 16306
0.12550000 0.12549900 13137.19004926 0 -141.32735887 0 2220.49090263 0 609.99254064 0 1920.14128927 0 17523
0.12650000 0.12650100 13026.94355160 0 293.25568379 0 2203.11099701 0 -543.76922190 0 1972.24773253 0 17154
0.12750000 0.12750600 12703.41333662 0 386.69790896 0 2813.01591719 0 -795.51499199 0 1549.89495274 0 18007
0.12850000 0.12850300 12354.92792850 0 260.55994431 0 3448.90751182 0 -271.56130256 0 888.45700418 0 17496
0.12950000 0.12949900 12256.99265945 0 24.00245932 0 3474.83873029 0 -19.28459687 0 1101.10297767 0 18405
0.13050000 0.13049000 12281.39329274 0 -58.90612338 0 3400.16170123 0 183.81995262 0 534.68664072 0 18100
0.13150000 0.13148800 12425.24611715 0 126.49621031 0 3734.11764135 0 -1.34965448 0 1026.88401505 0 19059
0.13250000 0.13249300 12057.68385029 0 178.57936206 0 3476.95714890 0 -175.50155491 0 613.17571416 0 18957
0.13350000 0.13349100 11815.11937303 0 356.71396713 0 4297.31753118 0 -226.81165023 0 1037.57038331 0 19468
0.13450000 0.13450700 11694.44715024 0 214.88861351 0 4286.30397261 0 -117.04983787 0 863.63046893 0 19953
0.13550000 0.13551000 11280.96732801 0 180.09885605 0 4505.48820670 0 -172.02002819 0 914.00779459 0 19956
0.13650000 0.13649900 11130.34887345 0 172.58013363 0 4582.42783993 0 231.16161768 0 1024.40069605 0 19723
0.13750000 0.13749600 11202.77438952 0 -81.81787438 0 4038.84827750 0 396.69995037 0 868.58157925 0 20946
0.13850000 0.13851100 11205.65810073 0 -84.93793900 0 4159.57595628 0 490.32628941 0 955.10400664 0 20955
0.13950000 0.13949800 11385.11366735 0 -42.69622812 0 3520.07972264 0 362.64221190 0 1372.10306566 0 20506
0.14050000 0.14048300 11162.84608051 0 139.63484222 0 3280.27695342 0 -205.07179509 0 792.13661340 0 21447
0.14150000 0.14148400 10948.61961145 0 321.22213689 0 3825.70874574 0 -434.86919554 0 480.74127700 0 21771
0.14250000 0.14249400 10634.20636036 0 182.05534319 0 3980.61949352 0 -280.92338190 0 502.67522809 0 22470
0.14350000 0.14350900 10546.06461822 0 32.47336098 0 3835.01425998 0 343.99125511 0 506.04695196 0 22519
0.14450000 0.14449900 10553.93936805 0 -130.52009657 0 3625.64573519 0 421.06398270 0 -39.15469803 0 22218
0.14550000 0.14550500 10608.54133063 0 95.00663850 0 3253.72462793 0 182.46682659 0 412.30526447 0 23559
0.14650000 0.14650700 10493.55889186 0 223.88801072 0 3363.78257524 0 -63.00620615 0 114.79277929 0 23044
0.14750000 0.14750500 10188.12951030 0 163.75043174 0 3411.49690452 0 -244.53316472 0 643.90831179 0 23649
0.14850000 0.14849900 10080.81108863 0 47.69880160 0 3311.23248410 0 333.04424372 0 92.45078307 0 23640
0.14950000 0.14949500 10196.01535133 0 -34.74672362 0 3354.75434093 0 143.27497306 0 615.86311118 0 24457
0.15050000 0.15050000 10187.56385926 0 51.56818747 0 2810.93077216 0 287.14665251 0 464.00687905 0 24591
0.15150000 0.15149900 9965.39609319 0 58.42565272 0 3260.11315737 0 -33.41766549 0 747.63873124 0 25020
0.15250000 0.15250500 10038.18761876 0 75.59160915 0 2798.48644919 0 89.41523338 0 416.83047283 0 25297
0.15350000 0.15350100 9929.18333515 0 1.80960642 0 2994.64535841 0 327.33227729 0 383.51362632 0 25452
0.15450000 0.15450400 10027.92826158 0 17.74791153 0 2786.00885262 0 140.06961714 0 698.57349419 0 26061
0.15550000 0.15549900 9940.65163280 0 -59.60409240 0 2393.82412853 0 361.47874534 0 546.10835534 0 26128
0.15650000 0.15649500 10029.81376507 0 107.66979079 0 2687.99594519 0 -113.61711242 0 465.21803775 0 26331
0.15750000 0.15749700 9733.74535373 0 231.18158183 0 2253.24320721 0 -277.74353574 0 222.75781775 0 27345
0.15850000 0.15849900 9466.97988473 0 242.15521209 0 3116.87034878 0 -274.18215240 0 246.83126072 0 26980
0.15950000 0.15949700 9265.65247773 0 204.89211770 0 2980.71481505 0 -432.59217281 0 33.66278095 0 27777
0.16050000 0.16050000 9070.66923538 0 69.39340465 0 2975.41322291 0 295.58816251 0 -63.98899711 0 28224
0.16150000 0.16150500 9011.93025634 0 -25.68998493 0 2905.06176066 0 350.57277138 0 -59.45136662 0 28075
0.16250000 0.16249700 9094.55967360 0 39.40702276 0 2436.82469910 0 382.82929946 0 -68.49579408 0 28590
0.16350000 0.16349900 8965.72432985 0 8.69211559 0 2395.12179857 0 274.96851826 0 26.81197041 0 29163
0.16450000 0.16449100 8812.35525845 0 175.17436460 0 2202.75607870 0 -241.02945560 0 49.20609526 0 28996
0.16550000 0.16550500 8800.48767772 0 167.53252990 0 2286.50570686 0 -226.39351211 0 -80.04550111 0 30777
0.16650000 0.16650700 8587.34814596 0 -44.05412337 0 2397.02948445 0 -91.89245222 0 -573.78976468 0 29211
0.16750000 0.16749900 8497.26544435 0 151.23956159 0 2423.31562122 0 -238.89218195 0 -893.51015351 0 30922
0.16850000 0.16850800 8356.31851353 0 311.22785932 0 2865.75455868 0 -257.35126103 0 -450.96363144 0 30867
0.16950000 0.16949900 8046.39719721 0 171.39337556 0 3095.83034817 0 -73.71520045 0 -514.92989160 0 30852
0.17050000 0.17049200 7991.63995788 0 -34.09833225 0 2778.99921615 0 435.76758250 0 -475.01600114 0 31257
0.17150000 0.17149500 8194.35376450 0 -147.78132638 0 2953.63011210 0 565.72757362 0 55.97738191 0 32608
0.17250000 0.17250900 8236.45594811 0 -40.19161403 0 2283.00088863 0 423.02934280 0 404.46156999 0 32361
0.17350000 0.17350400 8293.43142684 0 62.24335363 0 2394.24559402 0 139.53945793 0 844.70888694 0 32508
0.17450000 0.17449800 8105.99019841 0 102.56218368 0 1943.25534371 0 72.68416278 0 678.17678300 0 32791
0.17550000 0.17549800 7971.33197626 0 120.40159759 0 2220.44653784 0 87.57620202 0 870.28518710 0 33633
0.17650000 0.17650100 7920.36792629 0 81.63631149 0 2088.98258041 0 97.68538439 0 1045.31092966 0 33984
0.17750000 0.17750300 7804.01017910 0 14.58392578 0 1978.92463309 0 213.43123023 0 504.66831618 0 34069
0.17850000 0.17849800 7681.07535213 0 120.51805516 0 1693.34849407 0 126.66701475 0 891.48933742 0 34536
