### header ###
fiducial parameters:
Omega_m = 0.31
Omega_nu = 0
Omega_de = 0.69
Omega_k = 0
H_0 = 100
w_de = -1
zeff = 0
beta = 0
fgrowth = 0
b_1 = 2
gamma = 0.55
Lx = 3500 Ly = 3500 Lz = 3500
nx = 700 ny = 700 nz = 700
xoffset = 1379.75464 yoffset = 22.6059522 zoffset = 368.141391
bins = 400 dk = 0.001
kx_ny = 0.628318531 ky_ny = 0.628318531 kz_ny = 0.628318531
############################
A(data) = 3.3306336 (not used)
A(ran) = 3.33244011 (used)
Ngal = 187616
weighted Ngal = 0
Nran = 9399747
weighted Nran = 0
SN(data) = 6653.00346
SN(ran) = 132.549081
SN(data+ran) = 6785.55254
############################
13 columns: k_central k_mean P_0(k) sigma^{lin}_{P_0(k)} P^img_1(k) sigma^{lin}_{P_1(k)} P_2(k) sigma^{lin}_{P_2(k)} P^img_3(k) sigma^{lin}_{P_3(k)} P_4(k) sigma^{lin}_{P_4(k)} N_modes
### header ###
0.00050000 0 0 0 0 0 0 0 0 0 0 0 0
0.00150000 0.00179520 8082.85396158 0 -20969.12786228 0 -28390.46956427 0 30731.04485626 0 30274.08754199 0 3
0.00250000 0.00253879 21194.72280821 0 -22533.31936789 0 -21033.23498064 0 -25131.76498892 0 -27598.66901414 0 6
0.00350000 0.00331552 49112.59647052 0 -28657.98923466 0 -73185.37397482 0 47023.12587744 0 32176.33873058 0 7
0.00450000 0.00420575 81351.60046385 0 -37271.85643253 0 -74983.25700012 0 -16440.81397226 0 -8673.39365189 0 24
0.00550000 0.00557378 104501.25764615 0 -7374.69212763 0 -79456.33672934 0 -50426.34874903 0 1688.50164100 0 45
0.00650000 0.00659388 125017.75376098 0 -941.38752337 0 -86337.09349208 0 -36221.29825760 0 -22875.70461768 0 40
0.00750000 0.00754703 91398.67213137 0 7797.64383205 0 -24875.33651547 0 -47413.42509805 0 788.31347781 0 57
0.00850000 0.00846663 104717.75781058 0 9769.50337269 0 -42654.63613544 0 -16052.40025513 0 -8645.15546446 0 75
0.00950000 0.00948925 83242.76045550 0 8783.37396083 0 1713.42356055 0 -20584.48515211 0 8750.77693300 0 112
0.01050000 0.01054430 70977.56031030 0 7610.63516031 0 14456.37701428 0 10394.12631122 0 5124.16626367 0 105
0.01150000 0.01145670 69029.94612620 0 4997.72661846 0 21412.44300430 0 2542.02470215 0 23619.03663715 0 144
0.01250000 0.01249090 65621.73221598 0 -700.18726334 0 17146.65774604 0 20864.53787506 0 23923.26816944 0 169
0.01350000 0.01339930 70639.27880338 0 2448.57027667 0 31722.81968737 0 5971.64462248 0 43010.55264551 0 180
0.01450000 0.01448870 67601.84360714 0 -1587.63829596 0 13801.55274646 0 18751.33212051 0 48637.00594538 0 267
0.01550000 0.01550050 67890.54746370 0 -203.79519833 0 35451.01462954 0 9399.94469038 0 34181.51622685 0 238
0.01650000 0.01653350 79413.85744503 0 -5509.01970658 0 811.86785277 0 17020.32901280 0 53716.10867585 0 315
0.01750000 0.01747870 80814.89744353 0 -6266.31554300 0 17385.67304028 0 21650.90373869 0 40016.48402934 0 297
0.01850000 0.01844180 79374.37278389 0 1743.12578597 0 -9452.28404877 0 -9241.44039479 0 56491.90253608 0 388
0.01950000 0.01947590 80564.45821644 0 2344.08011022 0 15079.59137080 0 -415.94872267 0 28274.23382026 0 399
0.02050000 0.02045430 79501.58881289 0 7453.09579886 0 26830.27088957 0 -13682.21146730 0 32214.60336005 0 462
0.02150000 0.02154770 67009.01913026 0 5437.75876618 0 33899.79982436 0 -13224.36685727 0 23637.22620014 0 571
0.02250000 0.02255340 64771.03741005 0 681.09598603 0 38976.57340347 0 4870.31094792 0 2774.93983807 0 510
0.02350000 0.02348930 68897.73905857 0 -2287.78119451 0 34149.35175570 0 6382.44037505 0 6375.94093364 0 555
0.02450000 0.02439640 70630.96040567 0 -1906.99822088 0 32863.21655758 0 17776.85955664 0 4445.57356079 0 592
0.02550000 0.02547300 72398.56446331 0 -3420.58059482 0 16040.97632228 0 17958.64427462 0 18693.65789638 0 837
0.02650000 0.02652900 74584.97211771 0 -2596.74866790 0 834.33196307 0 2852.10129524 0 4351.79749059 0 723
0.02750000 0.02749970 76296.89836667 0 3232.64026253 0 2022.71267864 0 -2217.65155621 0 8733.89613124 0 826
0.02850000 0.02848090 69842.37630265 0 5733.52771520 0 1152.16463018 0 -12109.47974004 0 1861.15830390 0 831
0.02950000 0.02946900 58657.79147613 0 7476.08785013 0 11204.54898103 0 -3493.08374927 0 7569.46463724 0 996
0.03050000 0.03053250 54023.88939116 0 1990.00473884 0 13104.02737039 0 -300.67347631 0 3446.02380062 0 1041
0.03150000 0.03150510 52766.36948117 0 -875.19636911 0 4106.89277078 0 7123.98671181 0 -7090.10310514 0 1036
0.03250000 0.03246190 52361.54079256 0 -1908.04079340 0 7836.75139249 0 8600.77958547 0 6432.93859476 0 1059
0.03350000 0.03345080 54656.08761721 0 -1166.97137810 0 -3256.60833913 0 1836.63566744 0 98.07235625 0 1302
0.03450000 0.03451200 55910.39108008 0 -1750.47924955 0 -4861.44908156 0 2517.77934563 0 4571.12591024 0 1339
0.03550000 0.03553350 55810.23757164 0 2108.35890148 0 -3627.81960979 0 -4056.08399756 0 -6698.67258244 0 1365
0.03650000 0.03647120 53434.50318533 0 3348.03307558 0 1978.82481232 0 -14345.46504480 0 -4213.03552557 0 1308
0.03750000 0.03744890 49248.57454510 0 4969.04478315 0 11737.03734652 0 -8023.10568362 0 -7841.86443429 0 1579
0.03850000 0.03847530 45219.25360578 0 1910.31448877 0 17364.26703017 0 -4226.86624816 0 -10783.20550017 0 1662
0.03950000 0.03950240 42460.98383673 0 1124.05953711 0 18293.48751049 0 -1488.22789771 0 -15472.33065474 0 1683
0.04050000 0.04050350 43771.63058010 0 541.84711747 0 23245.81785984 0 1036.62652245 0 -16252.81818399 0 1822
0.04150000 0.04152450 42344.63718074 0 465.17921856 0 22389.13380756 0 961.98498523 0 -9101.65803965 0 1887
0.04250000 0.04250150 40520.91166654 0 2178.83236689 0 18824.09037249 0 1484.58998511 0 -12869.78129084 0 1920
0.04350000 0.04349210 40548.86148285 0 -477.87531171 0 19739.77959254 0 2337.40320966 0 -3842.65609468 0 2005
0.04450000 0.04448520 39124.64088273 0 -646.19531660 0 17230.83993088 0 4224.99183588 0 -9291.06240994 0 2151
0.04550000 0.04548030 41552.94754258 0 459.52048988 0 17350.73576989 0 2762.96134536 0 -2684.71295089 0 2274
0.04650000 0.04648670 39417.22665823 0 -547.31285933 0 13689.42074531 0 1311.85568384 0 -3896.33748791 0 2311
0.04750000 0.04749250 40513.25874065 0 443.70998863 0 11896.63967060 0 1034.77096520 0 -2274.13902226 0 2568
0.04850000 0.04851840 40170.98440283 0 -380.40365469 0 11016.32027763 0 3836.45611559 0 -543.05162146 0 2493
0.04950000 0.04949480 39609.43710134 0 541.87928194 0 10116.69111076 0 543.33666522 0 -2412.59043377 0 2644
0.05050000 0.05050630 39370.31089514 0 1914.49587002 0 10355.20730113 0 -1972.58046844 0 641.92409665 0 2829
0.05150000 0.05149060 34671.52530802 0 1446.01480212 0 13083.06500815 0 -937.91930609 0 -662.35297231 0 2784
0.05250000 0.05249300 35908.63741563 0 563.84539750 0 14634.05798939 0 -15.82247974 0 3230.27783758 0 3055
0.05350000 0.05348950 34415.31865852 0 304.01858131 0 13102.14186690 0 1820.90835017 0 -626.69477412 0 3009
0.05450000 0.05448610 34544.42019100 0 -429.12506464 0 12883.75619899 0 2275.64742505 0 3396.56815342 0 3336
0.05550000 0.05550870 35045.07682124 0 -148.52776393 0 11804.58273593 0 400.67614447 0 1022.18578402 0 3349
0.05650000 0.05647670 34670.85983620 0 883.97616061 0 11600.39380012 0 -377.26151860 0 2308.82119512 0 3324
0.05750000 0.05747970 34384.48513100 0 495.27961796 0 12957.29083476 0 -819.53630634 0 991.57408045 0 3639
0.05850000 0.05849280 33567.61847577 0 243.05470816 0 11703.32010779 0 597.09569683 0 483.85235775 0 3846
0.05950000 0.05951020 32818.18629797 0 982.23196526 0 14640.37997165 0 496.85456793 0 169.49345352 0 3787
0.06050000 0.06049470 32457.94422110 0 1139.66485122 0 14689.62488610 0 -2137.29583432 0 1276.25294164 0 3930
0.06150000 0.06148310 31514.41609671 0 332.14585677 0 15044.87592436 0 285.63492237 0 1302.59453439 0 4083
0.06250000 0.06249100 30801.25213294 0 391.03678521 0 14489.09604528 0 423.52511931 0 -1482.97067036 0 4303
0.06350000 0.06350600 30691.11654724 0 159.53799514 0 14827.48846417 0 721.43466934 0 -351.25487999 0 4470
0.06450000 0.06451750 30225.06445148 0 -117.40586530 0 14081.60546940 0 736.97121802 0 -661.05752051 0 4479
0.06550000 0.06550280 30018.87910021 0 545.92978707 0 13450.84909896 0 2760.25509331 0 473.84144338 0 4636
0.06650000 0.06648880 29831.77060770 0 -249.85693925 0 10060.85802532 0 2992.71549015 0 1822.12838184 0 4653
0.06750000 0.06749660 29192.25219166 0 -108.51682550 0 7666.69006969 0 2850.62616604 0 -265.36132347 0 5220
0.06850000 0.06852730 29341.65061455 0 297.75094591 0 7650.87402284 0 982.66784930 0 4998.96883252 0 5029
0.06950000 0.06949320 28454.35485870 0 562.91262783 0 5847.60067581 0 406.70421001 0 1055.44495631 0 5040
0.07050000 0.07048030 28525.22760719 0 -0.15916089 0 5591.24984075 0 232.61567360 0 4217.67164589 0 5475
0.07150000 0.07148790 27349.44981871 0 419.96817244 0 4720.96798101 0 -790.06366869 0 197.42885128 0 5509
0.07250000 0.07249820 27365.19931838 0 900.28909308 0 5800.21908245 0 -1535.40984953 0 883.36281742 0 5916
0.07350000 0.07351270 26087.27160601 0 623.73231542 0 6929.97949479 0 -676.54194057 0 10.26991600 0 5721
0.07450000 0.07449140 25911.25431044 0 175.20209259 0 7666.59024891 0 -149.11670649 0 -1963.41913976 0 6028
0.07550000 0.07549160 26051.22521592 0 -189.53857377 0 8671.64124277 0 322.93461770 0 406.95265283 0 6183
0.07650000 0.07648840 26046.23417730 0 259.06928744 0 8129.33716799 0 -232.07109582 0 -3460.88600453 0 6330
0.07750000 0.07749960 25708.95087810 0 436.01602531 0 7839.12490864 0 -65.16710405 0 869.62082440 0 6583
0.07850000 0.07848650 24986.91395677 0 422.31617884 0 10303.48904976 0 270.45440110 0 555.97952062 0 6549
0.07950000 0.07947320 24909.38649010 0 243.39298967 0 9505.54397652 0 785.55398801 0 3296.23718583 0 6828
0.08050000 0.08048110 24608.70414084 0 73.73361184 0 9222.11952971 0 1952.60522273 0 3327.33690207 0 7147
0.08150000 0.08149960 24777.62307036 0 154.45157222 0 8965.15867881 0 623.41732542 0 4522.81265633 0 7386
0.08250000 0.08250610 24378.11815628 0 219.43267690 0 8829.14733063 0 98.24981540 0 4379.09292628 0 7227
0.08350000 0.08350160 23663.06868903 0 802.27951301 0 10756.07643243 0 -808.65362390 0 4242.16100876 0 7798
0.08450000 0.08449610 23088.21195121 0 965.03173703 0 10389.49019090 0 -2278.34258591 0 5380.00690367 0 7371
0.08550000 0.08548940 22230.08604332 0 180.45155611 0 11415.72537093 0 1134.85127174 0 4036.26402861 0 8256
0.08650000 0.08650700 21763.14665180 0 272.73253296 0 11815.56302091 0 617.50793569 0 3952.02638779 0 8037
0.08750000 0.08749060 22069.70733545 0 366.83468434 0 11648.52959487 0 710.60966111 0 3741.85929682 0 8155
0.08850000 0.08849210 20898.58784969 0 189.44540771 0 10748.26822978 0 1156.60110896 0 5465.70858249 0 8718
0.08950000 0.08949900 21614.19187679 0 -250.38266199 0 9518.17684984 0 1602.34522311 0 5803.90135984 0 8571
0.09050000 0.09049190 21315.72776691 0 -62.83395986 0 9678.82174644 0 807.91938666 0 4052.19098743 0 8932
0.09150000 0.09150830 21008.72343538 0 357.46151380 0 7530.72308630 0 -332.72038077 0 3756.73259192 0 9285
0.09250000 0.09250820 20107.23094743 0 627.59648843 0 9033.39172243 0 -385.01981086 0 3345.97011295 0 9204
0.09350000 0.09350330 19730.24116316 0 498.35187952 0 7338.42391361 0 -93.16416886 0 1698.65008621 0 9349
0.09450000 0.09448040 18808.11904889 0 454.15235056 0 8677.65267152 0 -662.63579783 0 244.58529334 0 9564
0.09550000 0.09549270 18264.53948646 0 731.04408237 0 8495.57958241 0 -800.77111023 0 -549.24938231 0 10155
0.09650000 0.09649430 17811.57500309 0 177.76748645 0 8935.67827732 0 602.71227896 0 -864.34030553 0 9913
0.09750000 0.09749140 17393.21505420 0 -264.74465291 0 6948.61270567 0 953.74977149 0 -767.73930747 0 10476
0.09850000 0.09850240 17695.00652316 0 29.22086748 0 7460.33835046 0 1365.39289151 0 -718.99682425 0 10575
0.09950000 0.09950330 17315.79849950 0 86.22762338 0 5601.71993067 0 692.07848925 0 -616.92342961 0 10882
0.10050000 0.10051200 17330.77161538 0 131.87544083 0 5711.50059806 0 764.25556251 0 721.76851436 0 10875
0.10150000 0.10150300 17036.85489626 0 73.89421237 0 5037.88784261 0 297.79974718 0 -457.52851091 0 11118
0.10250000 0.10250800 16642.23010884 0 440.18187888 0 5572.68317706 0 -233.60168100 0 1468.43011116 0 11575
0.10350000 0.10349800 16422.62440926 0 236.55748499 0 5292.10916786 0 185.48141392 0 659.32507554 0 11364
0.10450000 0.10450100 16070.81164207 0 3.09238099 0 4789.81104047 0 948.95171969 0 1116.19587848 0 12093
0.10550000 0.10551000 16191.70568880 0 -52.05109819 0 4769.36996449 0 331.82753942 0 2104.85408324 0 12067
0.10650000 0.10649700 16062.38233239 0 74.81533628 0 3737.05680854 0 916.13175880 0 1863.05489857 0 12054
0.10750000 0.10749900 16023.67405504 0 64.94028908 0 4359.06222459 0 297.45037448 0 2616.84591677 0 12807
0.10850000 0.10850100 15770.46202871 0 128.33845813 0 3915.11488434 0 -23.93624487 0 2143.78418453 0 12736
0.10950000 0.10950300 15993.39508737 0 178.78344009 0 4119.21509059 0 -483.64827972 0 2748.80897806 0 12933
0.11050000 0.11050200 15491.51842546 0 103.75371097 0 4201.74468708 0 145.85478547 0 1846.78411265 0 13428
0.11150000 0.11150900 15667.75754497 0 225.38975878 0 4659.16783162 0 -570.48902447 0 2005.00003712 0 13453
0.11250000 0.11250000 14994.52189021 0 259.08703335 0 4710.36479673 0 -441.03922841 0 843.60198548 0 13668
0.11350000 0.11349100 15167.98821048 0 210.38558755 0 5544.06788893 0 -179.96354344 0 886.14670785 0 13791
0.11450000 0.11448600 14758.16848324 0 184.45547821 0 5546.54122585 0 -596.61655712 0 512.08167222 0 14205
0.11550000 0.11549300 14712.47275182 0 319.77362657 0 5902.45773592 0 -106.41315818 0 273.34809439 0 14776
0.11650000 0.11649800 14321.72988333 0 82.67034378 0 5910.27702977 0 453.65546494 0 233.58282597 0 14553
0.11750000 0.11747300 14154.14189744 0 35.78397236 0 5739.72769430 0 83.80231134 0 160.56947646 0 14568
0.11850000 0.11849100 14351.34337918 0 27.47588946 0 5627.60678435 0 458.41358843 0 519.11127284 0 16015
0.11950000 0.11950300 13972.57900340 0 38.86943244 0 5684.44916871 0 -18.91869828 0 -398.45014125 0 15270
0.12050000 0.12050700 14347.12872434 0 62.89740151 0 4911.78093331 0 192.70067402 0 704.00485333 0 15999
0.12150000 0.12150000 13967.58796477 0 48.12581268 0 5718.32168419 0 16.86316675 0 -587.39422686 0 15670
0.12250000 0.12250700 14121.53377842 0 183.10678866 0 5086.10127574 0 -298.62382311 0 38.79179406 0 16887
0.12350000 0.12352200 13748.53682505 0 98.64599295 0 5158.72643336 0 201.26418718 0 -655.45979341 0 16407
0.12450000 0.12449800 13716.26144193 0 150.88575240 0 4966.99291172 0 -114.87818151 0 -1217.79124252 0 16306
0.12550000 0.12549900 13555.10635027 0 113.21006549 0 4877.40931397 0 204.83666172 0 -918.58734981 0 17523
0.12650000 0.12650100 13074.52478650 0 257.43888148 0 4561.22147137 0 26.72246446 0 -1469.25085973 0 17154
0.12750000 0.12750600 13322.63486224 0 0.43873337 0 4731.34934135 0 85.60074893 0 -1239.20834383 0 18007
0.12850000 0.12850300 13194.53153748 0 -149.12336121 0 3743.86680346 0 983.22351826 0 -1700.61322807 0 17496
0.12950000 0.12949900 13264.84972614 0 -27.22345382 0 3691.67163063 0 236.77043597 0 -1029.41391707 0 18405
0.13050000 0.13049000 13083.06500815 0 172.68439089 0 3403.95489059 0 -149.89530852 0 -1314.31792956 0 18100
0.13150000 0.13148800 12925.68092346 0 431.87235413 0 3971.63562399 0 -335.66398444 0 -1260.01542930 0 19059
0.13250000 0.13249300 12657.60669322 0 277.09691896 0 4219.12459269 0 -335.19149945 0 -978.14707742 0 18957
0.13350000 0.13349100 12151.73720041 0 183.11011602 0 4564.19391215 0 -108.56573768 0 -1221.27387836 0 19468
0.13450000 0.13450700 12409.05296961 0 -126.89216605 0 4383.57376985 0 595.96328562 0 -809.86589172 0 19953
0.13550000 0.13551000 12063.45127270 0 18.27485430 0 4568.25329023 0 169.84837183 0 -763.25070007 0 19956
0.13650000 0.13649900 12332.96735855 0 225.80567867 0 4074.53974928 0 -178.18784281 0 -718.68848897 0 19723
0.13750000 0.13749600 11944.44272945 0 299.71630601 0 4492.01240241 0 -262.46984842 0 -671.01076065 0 20946
0.13850000 0.13851100 11525.75004465 0 311.64377921 0 4873.78249256 0 -74.08076630 0 -554.46668136 0 20955
0.13950000 0.13949800 11310.02626401 0 108.13939207 0 4783.74415574 0 326.57918502 0 -70.48610937 0 20506
0.14050000 0.14048300 11046.32196537 0 -18.74523196 0 4546.89164491 0 655.81803907 0 -148.36139598 0 21447
0.14150000 0.14148400 11138.22362328 0 30.38699593 0 4398.22524101 0 409.81750900 0 -145.05400105 0 21771
0.14250000 0.14249400 11028.67587103 0 107.82240566 0 3627.07649960 0 287.89419919 0 169.23946511 0 22470
0.14350000 0.14350900 10879.41054250 0 127.26039378 0 3730.75700867 0 -141.98063037 0 197.05840530 0 22519
0.14450000 0.14449900 10779.33467243 0 84.04909047 0 3685.49383392 0 -59.46112687 0 -220.82240388 0 22218
0.14550000 0.14550500 10505.16028387 0 146.54022144 0 3708.34169964 0 -58.25617923 0 -305.59574951 0 23559
0.14650000 0.14650700 10384.59897305 0 148.30704911 0 3590.77501199 0 134.62605768 0 -428.23000505 0 23044
0.14750000 0.14750500 10468.62588112 0 -48.78795714 0 3627.15413798 0 318.22085900 0 34.28444253 0 23649
0.14850000 0.14849900 10238.66100360 0 -30.85326985 0 3243.02162287 0 606.29140822 0 -156.75632295 0 23640
0.14950000 0.14949500 10297.42216503 0 121.77357865 0 3216.10328788 0 99.52208660 0 189.48311778 0 24457
0.15050000 0.15050000 10306.63894970 0 35.10630023 0 2985.79458325 0 307.57441905 0 432.19288972 0 24591
0.15150000 0.15149900 10201.93805050 0 -27.72255768 0 3123.11469267 0 272.83124461 0 748.30531218 0 25020
0.15250000 0.15250500 10112.65391507 0 219.18312497 0 2712.37439608 0 10.32720203 0 654.51371431 0 25297
0.15350000 0.15350100 9880.32661260 0 174.15064712 0 2582.61848298 0 -22.00504566 0 741.03503258 0 25452
0.15450000 0.15450400 9730.67309217 0 88.59969767 0 2616.22480974 0 152.13905766 0 1037.18108230 0 26061
0.15550000 0.15549900 9603.45706318 0 126.54057510 0 2575.70866729 0 356.44334192 0 797.89072638 0 26128
0.15650000 0.15649500 9493.23274791 0 148.19280978 0 2521.46162301 0 -257.45884564 0 773.15957542 0 26331
0.15750000 0.15749700 9335.32737696 0 110.13902397 0 2495.67459011 0 -87.46551187 0 627.17724119 0 27345
0.15850000 0.15849900 9134.59889459 0 104.18571309 0 2609.23735566 0 70.50274617 0 766.82428373 0 26980
0.15950000 0.15949700 9043.60671482 0 6.52357586 0 2326.38965109 0 157.53048849 0 702.30568196 0 27777
0.16050000 0.16050000 9163.70219538 0 7.67620632 0 2247.27614325 0 203.04099693 0 300.78771564 0 28224
0.16150000 0.16150500 9045.41457993 0 119.74610785 0 2452.15273328 0 -34.12572751 0 432.53893507 0 28075
0.16250000 0.16249700 8819.73090442 0 146.18752138 0 2209.33315850 0 -301.72603090 0 -80.91394183 0 28590
0.16350000 0.16349900 8829.86825843 0 67.87457614 0 2387.31359592 0 177.46913325 0 357.88630665 0 29163
0.16450000 0.16449100 8688.89914522 0 5.73226332 0 2100.10705095 0 230.30315903 0 -189.07717997 0 28996
0.16550000 0.16550500 8677.81903947 0 123.15332355 0 2340.57529198 0 -308.41402266 0 -170.02804922 0 30777
0.16650000 0.16650700 8365.79039573 0 249.16706680 0 2264.31222177 0 -163.63730153 0 -744.15276804 0 29211
0.16750000 0.16749900 8139.52997798 0 197.06838738 0 2430.15888973 0 -210.35342308 0 -582.23016556 0 30922
0.16850000 0.16850800 7987.69149176 0 42.46042928 0 2420.26554206 0 45.41434776 0 -636.20547551 0 30867
0.16950000 0.16949900 8010.00698002 0 79.79816742 0 2360.85000000 0 173.56946840 0 -725.69923456 0 30852
0.17050000 0.17049200 7837.37249952 0 146.46923778 0 2268.42705584 0 162.43945226 0 -650.21254813 0 31257
0.17150000 0.17149500 7670.19488792 0 100.39019459 0 2313.63477460 0 69.43699305 0 -282.69131870 0 32608
0.17250000 0.17250900 7552.79456823 0 51.59347540 0 2165.72257209 0 368.17561006 0 -27.00595545 0 32361
0.17350000 0.17350400 7688.62845725 0 -14.63228340 0 2035.58955830 0 280.41651420 0 212.18568882 0 32508
0.17450000 0.17449800 7503.56074497 0 4.33018075 0 1808.59712156 0 110.27500204 0 241.96222526 0 32791
0.17550000 0.17549800 7633.74921475 0 32.62531038 0 2116.08946575 0 -21.42408876 0 419.12856884 0 33633
0.17650000 0.17650100 7467.10398060 0 79.73339483 0 1782.74354147 0 -185.43261266 0 268.62102625 0 33984
0.17750000 0.17750300 7629.09091203 0 -16.66995810 0 2087.74036635 0 -5.73366081 0 303.34867301 0 34069
0.17850000 0.17849800 7529.40323386 0 -4.45787370 0 1741.32901207 0 38.36600301 0 -178.23886232 0 34536
